(7.221112060546874e-05, 19.53125) (6.561456298828125e-05, 19.533203125) (5.8932498931884764e-05, 19.53515625) (5.219257736206054e-05, 19.537109375) (4.542242050170898e-05, 19.5390625) (3.864961624145508e-05, 19.541015625) (3.1901458740234376e-05, 19.54296875) (2.52048225402832e-05, 19.544921875) (1.8586132049560547e-05, 19.546875) (1.207120418548584e-05, 19.548828125) (5.685109138488769e-06, 19.55078125) (-5.479168891906738e-07, 19.552734375) (-6.6047992706298825e-06, 19.5546875) (-1.246388816833496e-05, 19.556640625) (-1.8104911804199216e-05, 19.55859375) (-2.350910949707031e-05, 19.560546875) (-2.8659408569335937e-05, 19.5625) (-3.354048919677734e-05, 19.564453125) (-3.813896942138672e-05, 19.56640625) (-4.244344329833984e-05, 19.568359375) (-4.644437789916992e-05, 19.5703125) (-5.013405227661133e-05, 19.572265625) (-5.3506637573242186e-05, 19.57421875) (-5.655831146240234e-05, 19.576171875) (-5.92873306274414e-05, 19.578125) (-6.169401931762695e-05, 19.580078125) (-6.37806282043457e-05, 19.58203125) (-6.555131530761718e-05, 19.583984375) (-6.701214599609374e-05, 19.5859375) (-6.817111206054687e-05, 19.587890625) (-6.903817749023437e-05, 19.58984375) (-6.962505340576172e-05, 19.591796875) (-6.994483184814453e-05, 19.59375) (-7.001187133789062e-05, 19.595703125) (-6.984181976318359e-05, 19.59765625) (-6.94514923095703e-05, 19.599609375) (-6.885893249511718e-05, 19.6015625) (-6.808343505859374e-05, 19.603515625) (-6.714482879638671e-05, 19.60546875) (-6.606346893310546e-05, 19.607421875) (-6.486029052734375e-05, 19.609375) (-6.355682754516602e-05, 19.611328125) (-6.21749038696289e-05, 19.61328125) (-6.073644638061523e-05, 19.615234375) (-5.926284027099609e-05, 19.6171875) (-5.777442932128906e-05, 19.619140625) (-5.629106903076172e-05, 19.62109375) (-5.4832160949707026e-05, 19.623046875) (-5.341648101806641e-05, 19.625) (-5.206184387207031e-05, 19.626953125) (-5.078466796875e-05, 19.62890625) (-4.959986877441406e-05, 19.630859375) (-4.8521217346191404e-05, 19.6328125) (-4.756163787841797e-05, 19.634765625) (-4.673291778564453e-05, 19.63671875) (-4.604522705078125e-05, 19.638671875) (-4.5506671905517574e-05, 19.640625) (-4.5123474121093746e-05, 19.642578125) (-4.4900409698486325e-05, 19.64453125) (-4.484083557128906e-05, 19.646484375) (-4.4946586608886716e-05, 19.6484375) (-4.521768188476562e-05, 19.650390625) (-4.565176391601562e-05, 19.65234375) (-4.624454116821289e-05, 19.654296875) (-4.6990673065185545e-05, 19.65625) (-4.788384246826172e-05, 19.658203125) (-4.891639709472656e-05, 19.66015625) (-5.007926559448242e-05, 19.662109375) (-5.136155319213867e-05, 19.6640625) (-5.275047302246094e-05, 19.666015625) (-5.423285675048828e-05, 19.66796875) (-5.579566955566406e-05, 19.669921875) (-5.7424919128417965e-05, 19.671875) (-5.910547637939453e-05, 19.673828125) (-6.082189178466797e-05, 19.67578125) (-6.255857849121094e-05, 19.677734375) (-6.430169677734374e-05, 19.6796875) (-6.60403823852539e-05, 19.681640625) (-6.77642364501953e-05, 19.68359375) (-6.946231079101562e-05, 19.685546875) (-7.112423706054687e-05, 19.6875) (-7.274065399169921e-05, 19.689453125) (-7.43028793334961e-05, 19.69140625) (-7.580345153808594e-05, 19.693359375) (-7.723354339599608e-05, 19.6953125) (-7.858159637451172e-05, 19.697265625) (-7.983682250976562e-05, 19.69921875) (-8.099059295654297e-05, 19.701171875) (-8.203749084472656e-05, 19.703125) (-8.297528076171875e-05, 19.705078125) (-8.380303955078124e-05, 19.70703125) (-8.452092742919922e-05, 19.708984375) (-8.51313247680664e-05, 19.7109375) (-8.563945007324218e-05, 19.712890625) (-8.605210876464843e-05, 19.71484375) (-8.637722778320312e-05, 19.716796875) (-8.661786651611327e-05, 19.71875) (-8.677290344238281e-05, 19.720703125) (-8.684747314453125e-05, 19.72265625) (-8.6851318359375e-05, 19.724609375) (-8.680271911621093e-05, 19.7265625) (-8.672938537597656e-05, 19.728515625) (-8.665298461914062e-05, 19.73046875) (-8.658831024169921e-05, 19.732421875) (-8.655062103271484e-05, 19.734375) (-8.655181121826172e-05, 19.736328125) (-8.659146881103516e-05, 19.73828125) (-8.665859985351562e-05, 19.740234375) (-8.672139739990234e-05, 19.7421875) (-8.672680664062499e-05, 19.744140625) (-8.663125610351562e-05, 19.74609375) (-8.640036010742187e-05, 19.748046875) (-8.601232910156249e-05, 19.75) (-8.545785522460937e-05, 19.751953125) (-8.471150207519531e-05, 19.75390625) (-8.373818206787109e-05, 19.755859375) (-8.250389099121094e-05, 19.7578125) (-8.09794921875e-05, 19.759765625) (-7.91547622680664e-05, 19.76171875) (-7.703324127197265e-05, 19.763671875) (-7.461091613769531e-05, 19.765625) (-7.18937530517578e-05, 19.767578125) (-6.894580841064452e-05, 19.76953125) (-6.588102722167968e-05, 19.771484375) (-6.286185455322265e-05, 19.7734375) (-6.008695602416992e-05, 19.775390625) (-5.770254135131836e-05, 19.77734375) (-5.581261825561523e-05, 19.779296875) (-5.452729797363281e-05, 19.78125) (-5.3955112457275386e-05, 19.783203125) (-5.422950363159179e-05, 19.78515625) (-5.550050354003906e-05, 19.787109375) (-5.7875732421875e-05, 19.7890625) (-6.138060760498046e-05, 19.791015625) (-6.603723144531249e-05, 19.79296875) (-7.18944091796875e-05, 19.794921875) (-7.890750122070312e-05, 19.796875) (-8.691164398193358e-05, 19.798828125) (-9.549091339111328e-05, 19.80078125) (-0.00010394625854492186, 19.802734375) (-0.00011152568054199219, 19.8046875) (-0.00011760636901855468, 19.806640625) (-0.0001217342529296875, 19.80859375) (-0.00012355252075195311, 19.810546875) (-0.00012301082611083984, 19.8125) (-0.00012028710174560547, 19.814453125) (-0.0001158597183227539, 19.81640625) (-0.00011073004913330077, 19.818359375) (-0.00010597631072998046, 19.8203125) (-0.00010247820281982421, 19.822265625) (-0.00010065267944335937, 19.82421875) (-0.00010029502868652343, 19.826171875) (-0.0001003826675415039, 19.828125) (-9.948888397216796e-05, 19.830078125) (-9.595153808593749e-05, 19.83203125) (-8.736756896972656e-05, 19.833984375) (-7.116895294189452e-05, 19.8359375) (-4.482266998291015e-05, 19.837890625) (-6.367408752441406e-06, 19.83984375) (4.463888168334961e-05, 19.841796875) (0.0001070833740234375, 19.84375) (0.00017904461669921874, 19.845703125) (0.00025783349609374997, 19.84765625) (0.00033927874755859374, 19.849609375) (0.000418370849609375, 19.8515625) (0.000489225341796875, 19.853515625) (0.0005456665039062499, 19.85546875) (0.0005832500610351562, 19.857421875) (0.0005990302734374999, 19.859375) (0.0005907400512695312, 19.861328125) (0.0005578041381835938, 19.86328125) (0.0005020419616699218, 19.865234375) (0.0004269537963867187, 19.8671875) (0.0003379715881347656, 19.869140625) (0.00024214901733398436, 19.87109375) (0.00014602349853515625, 19.873046875) (5.571049118041992e-05, 19.875) (-2.2484130859375e-05, 19.876953125) (-8.377218627929688e-05, 19.87890625) (-0.00012734132385253905, 19.880859375) (-0.00015388539123535155, 19.8828125) (-0.00016346795654296873, 19.884765625) (-0.00015930101013183592, 19.88671875) (-0.00014169065856933593, 19.888671875) (-0.0001109689712524414, 19.890625) (-7.668892669677733e-05, 19.892578125) (-4.528665161132812e-05, 19.89453125) (-2.3241985321044922e-05, 19.896484375) (-1.7860683441162108e-05, 19.8984375) (-2.3512062072753904e-05, 19.900390625) (-3.445648193359375e-05, 19.90234375) (-4.6477508544921874e-05, 19.904296875) (-5.270719146728515e-05, 19.90625) (-5.4476379394531245e-05, 19.908203125) (-5.4222213745117184e-05, 19.91015625) (-5.220372772216797e-05, 19.912109375) (-5.044401550292968e-05, 19.9140625) (-4.8194564819335935e-05, 19.916015625) (-4.4431915283203126e-05, 19.91796875) (-3.9949634552001954e-05, 19.919921875) (-3.531391525268554e-05, 19.921875) (-3.1500690460205076e-05, 19.923828125) (-2.9262733459472653e-05, 19.92578125) (-2.8548318862915037e-05, 19.927734375) (-2.9153926849365232e-05, 19.9296875) (-3.0827465057373045e-05, 19.931640625) (-3.335068893432617e-05, 19.93359375) (-3.6541015625e-05, 19.935546875) (-4.0123291015625e-05, 19.9375) (-4.384156036376953e-05, 19.939453125) (-4.7480010986328125e-05, 19.94140625) (-5.0852279663085936e-05, 19.943359375) (-5.387542724609375e-05, 19.9453125) (-5.647749328613281e-05, 19.947265625) (-5.856710815429687e-05, 19.94921875) (-6.009143829345703e-05, 19.951171875) (-6.100813293457031e-05, 19.953125) (-6.128164672851563e-05, 19.955078125) (-6.091738891601562e-05, 19.95703125) (-5.993911743164062e-05, 19.958984375) (-5.836714935302734e-05, 19.9609375) (-5.624340438842773e-05, 19.962890625) (-5.3607543945312495e-05, 19.96484375) (-5.049140930175781e-05, 19.966796875) (-4.694834899902344e-05, 19.96875) (-4.303327178955078e-05, 19.970703125) (-3.8810535430908204e-05, 19.97265625) (-3.436013793945312e-05, 19.974609375) (-2.974005889892578e-05, 19.9765625) (-2.4991344451904294e-05, 19.978515625) (-2.015029716491699e-05, 19.98046875) (-1.5240417480468749e-05, 19.982421875) (-1.028097629547119e-05, 19.984375) (-5.291224956512451e-06, 19.986328125) (-2.742892503738403e-07, 19.98828125) (4.779385566711425e-06, 19.990234375) (9.873462677001953e-06, 19.9921875) (1.501083755493164e-05, 19.994140625) (2.0189479827880858e-05, 19.99609375) (2.5399780273437498e-05, 19.998046875) (3.0638446807861326e-05, 20.0) (3.590558624267578e-05, 20.001953125) (4.120199203491211e-05, 20.00390625) (4.653104782104492e-05, 20.005859375) (5.18919563293457e-05, 20.0078125) (5.7279022216796875e-05, 20.009765625) (6.26871452331543e-05, 20.01171875) (6.811097717285156e-05, 20.013671875) (7.354318237304688e-05, 20.015625) (7.897588348388671e-05, 20.017578125) (8.439712524414062e-05, 20.01953125) (8.979085540771484e-05, 20.021484375) (9.514415740966796e-05, 20.0234375) (0.00010044671630859375, 20.025390625) (0.0001056891632080078, 20.02734375) (0.00011086343383789062, 20.029296875) (0.00011596040344238281, 20.03125) (0.00012096967315673828, 20.033203125) (0.0001258819580078125, 20.03515625) (0.0001306888427734375, 20.037109375) (0.00013538059997558592, 20.0390625) (0.0001399464111328125, 20.041015625) (0.00014437445068359375, 20.04296875) (0.00014865179443359375, 20.044921875) (0.00015276622009277344, 20.046875) (0.0001567061767578125, 20.048828125) (0.0001604602813720703, 20.05078125) (0.0001640174560546875, 20.052734375) (0.00016736688232421874, 20.0546875) (0.000170498046875, 20.056640625) (0.00017340118408203125, 20.05859375) (0.00017606732177734375, 20.060546875) (0.00017848783874511718, 20.0625) (0.0001806544189453125, 20.064453125) (0.00018255880737304687, 20.06640625) (0.00018419297790527343, 20.068359375) (0.00018554945373535156, 20.0703125) (0.00018662176513671875, 20.072265625) (0.00018740386962890623, 20.07421875) (0.00018789036560058593, 20.076171875) (0.00018807664489746092, 20.078125) (0.00018795870971679687, 20.080078125) (0.00018753384399414062, 20.08203125) (0.00018680047607421874, 20.083984375) (0.00018575784301757813, 20.0859375) (0.0001844059600830078, 20.087890625) (0.00018274581909179686, 20.08984375) (0.00018077954101562498, 20.091796875) (0.00017851034545898436, 20.09375) (0.00017594267272949218, 20.095703125) (0.00017308218383789062, 20.09765625) (0.00016993569946289062, 20.099609375) (0.0001665116729736328, 20.1015625) (0.0001628201904296875, 20.103515625) (0.00015887284851074217, 20.10546875) (0.00015468263244628906, 20.107421875) (0.0001502637023925781, 20.109375) (0.0001456312561035156, 20.111328125) (0.00014080133056640625, 20.11328125) (0.00013579083251953123, 20.115234375) (0.00013061708068847654, 20.1171875) (0.00012529788208007813, 20.119140625) (0.00011985140228271483, 20.12109375) (0.00011429602813720702, 20.123046875) (0.00010865049743652343, 20.125) (0.00010293380737304688, 20.126953125) (9.716517639160156e-05, 20.12890625) (9.136398315429686e-05, 20.130859375) (8.5549560546875e-05, 20.1328125) (7.974107360839844e-05, 20.134765625) (7.395742797851562e-05, 20.13671875) (6.82171630859375e-05, 20.138671875) (6.253825759887695e-05, 20.140625) (5.6938129425048826e-05, 20.142578125) (5.1433490753173823e-05, 20.14453125) (4.604028701782226e-05, 20.146484375) (4.077376556396484e-05, 20.1484375) (3.564837265014648e-05, 20.150390625) (3.067774581909179e-05, 20.15234375) (2.5874656677246092e-05, 20.154296875) (2.1250925064086914e-05, 20.15625) (1.681728935241699e-05, 20.158203125) (1.2583313941955567e-05, 20.16015625) (8.55727195739746e-06, 20.162109375) (4.7460136413574214e-06, 20.1640625) (1.154951810836792e-06, 20.166015625) (-2.2119452953338623e-06, 20.16796875) (-5.352149963378906e-06, 20.169921875) (-8.264494895935058e-06, 20.171875) (-1.0949087142944336e-05, 20.173828125) (-1.3407205581665038e-05, 20.17578125) (-1.56411657333374e-05, 20.177734375) (-1.765424346923828e-05, 20.1796875) (-1.945062255859375e-05, 20.181640625) (-2.103536796569824e-05, 20.18359375) (-2.241440963745117e-05, 20.185546875) (-2.3594499588012694e-05, 20.1875) (-2.4583147048950194e-05, 20.189453125) (-2.538855743408203e-05, 20.19140625) (-2.6019559860229492e-05, 20.193359375) (-2.648548889160156e-05, 20.1953125) (-2.6796058654785156e-05, 20.197265625) (-2.696124267578125e-05, 20.19921875) (-2.6991119384765623e-05, 20.201171875) (-2.689579391479492e-05, 20.203125) (-2.668537139892578e-05, 20.205078125) (-2.636994171142578e-05, 20.20703125) (-2.5959564208984373e-05, 20.208984375) (-2.546428298950195e-05, 20.2109375) (-2.489411926269531e-05, 20.212890625) (-2.425905990600586e-05, 20.21484375) (-2.3569057464599608e-05, 20.216796875) (-2.2833963394165038e-05, 20.21875) (-2.206344223022461e-05, 20.220703125) (-2.1266847610473633e-05, 20.22265625) (-2.0453126907348632e-05, 20.224609375) (-1.96307315826416e-05, 20.2265625) (-1.8807601928710937e-05, 20.228515625) (-1.7991132736206054e-05, 20.23046875) (-1.7188188552856446e-05, 20.232421875) (-1.6405097961425782e-05, 20.234375) (-1.5647689819335938e-05, 20.236328125) (-1.4921335220336913e-05, 20.23828125) (-1.4230984687805176e-05, 20.240234375) (-1.3581169128417969e-05, 20.2421875) (-1.2975961685180664e-05, 20.244140625) (-1.241893196105957e-05, 20.24609375) (-1.1913087844848633e-05, 20.248046875) (-1.1460869789123535e-05, 20.25) (-1.1064189910888672e-05, 20.251953125) (-1.0724468231201171e-05, 20.25390625) (-1.0442696571350098e-05, 20.255859375) (-1.0219520568847657e-05, 20.2578125) (-1.0055328369140624e-05, 20.259765625) (-9.950353622436524e-06, 20.26171875) (-9.904775619506835e-06, 20.263671875) (-9.91874885559082e-06, 20.265625) (-9.992396354675292e-06, 20.267578125) (-1.0125755310058593e-05, 20.26953125) (-1.0318711280822754e-05, 20.271484375) (-1.0570951461791992e-05, 20.2734375) (-1.0881929397583007e-05, 20.275390625) (-1.125082778930664e-05, 20.27734375) (-1.167653465270996e-05, 20.279296875) (-1.2157647132873534e-05, 20.28125) (-1.2692501068115234e-05, 20.283203125) (-1.3279228210449218e-05, 20.28515625) (-1.3915813446044921e-05, 20.287109375) (-1.4600099563598632e-05, 20.2890625) (-1.5329782485961912e-05, 20.291015625) (-1.610237693786621e-05, 20.29296875) (-1.691519546508789e-05, 20.294921875) (-1.776534271240234e-05, 20.296875) (-1.864971160888672e-05, 20.298828125) (-1.9564990997314454e-05, 20.30078125) (-2.0507692337036133e-05, 20.302734375) (-2.1474214553833008e-05, 20.3046875) (-2.2460927963256836e-05, 20.306640625) (-2.3464282989501953e-05, 20.30859375) (-2.448092460632324e-05, 20.310546875) (-2.5507715225219726e-05, 20.3125) (-2.6541757583618162e-05, 20.314453125) (-2.758033752441406e-05, 20.31640625) (-2.8620887756347655e-05, 20.318359375) (-2.9660907745361328e-05, 20.3203125) (-3.0697914123535156e-05, 20.322265625) (-3.172936248779297e-05, 20.32421875) (-3.27525520324707e-05, 20.326171875) (-3.376463317871094e-05, 20.328125) (-3.4762611389160155e-05, 20.330078125) (-3.574341583251953e-05, 20.33203125) (-3.67039794921875e-05, 20.333984375) (-3.764129257202148e-05, 20.3359375) (-3.8552421569824215e-05, 20.337890625) (-3.943452453613281e-05, 20.33984375) (-4.028492355346679e-05, 20.341796875) (-4.110107040405273e-05, 20.34375) (-4.188058471679687e-05, 20.345703125) (-4.2621261596679686e-05, 20.34765625) (-4.332104873657227e-05, 20.349609375) (-4.3978103637695314e-05, 20.3515625) (-4.459087371826172e-05, 20.353515625) (-4.515814208984375e-05, 20.35546875) (-4.5679130554199214e-05, 20.357421875) (-4.615351104736328e-05, 20.359375) (-4.658141326904297e-05, 20.361328125) (-4.696339416503906e-05, 20.36328125) (-4.7300392150878906e-05, 20.365234375) (-4.759366989135742e-05, 20.3671875) (-4.784467315673828e-05, 20.369140625) (-4.805493927001953e-05, 20.37109375) (-4.82259521484375e-05, 20.373046875) (-4.8359115600585937e-05, 20.375) (-4.845571136474609e-05, 20.376953125) (-4.851696014404297e-05, 20.37890625) (-4.854404067993164e-05, 20.380859375) (-4.8538162231445314e-05, 20.3828125) (-4.8500602722167965e-05, 20.384765625) (-4.8432762145996094e-05, 20.38671875) (-4.833625793457031e-05, 20.388671875) (-4.8212909698486325e-05, 20.390625) (-4.8064769744873045e-05, 20.392578125) (-4.789406967163086e-05, 20.39453125) (-4.770316314697266e-05, 20.396484375) (-4.749449920654297e-05, 20.3984375) (-4.727068710327148e-05, 20.400390625) (-4.703443527221679e-05, 20.40234375) (-4.678859329223632e-05, 20.404296875) (-4.6536136627197264e-05, 20.40625) (-4.628012466430664e-05, 20.408203125) (-4.6023704528808594e-05, 20.41015625) (-4.577004241943359e-05, 20.412109375) (-4.5522323608398435e-05, 20.4140625) (-4.528359985351562e-05, 20.416015625) (-4.505669784545898e-05, 20.41796875) (-4.4844074249267575e-05, 20.419921875) (-4.464776611328125e-05, 20.421875) (-4.4469379425048825e-05, 20.423828125) (-4.431009292602539e-05, 20.42578125) (-4.417068099975586e-05, 20.427734375) (-4.4051567077636716e-05, 20.4296875) (-4.3952926635742186e-05, 20.431640625) (-4.38747444152832e-05, 20.43359375) (-4.3816993713378905e-05, 20.435546875) (-4.377968597412109e-05, 20.4375) (-4.3762874603271484e-05, 20.439453125) (-4.376664733886718e-05, 20.44140625) (-4.3791076660156245e-05, 20.443359375) (-4.383615875244141e-05, 20.4453125) (-4.390184783935547e-05, 20.447265625) (-4.398800659179687e-05, 20.44921875) (-4.4094337463378905e-05, 20.451171875) (-4.422036743164062e-05, 20.453125) (-4.436542892456054e-05, 20.455078125) (-4.452869415283203e-05, 20.45703125) (-4.470923995971679e-05, 20.458984375) (-4.490607070922851e-05, 20.4609375) (-4.5118068695068355e-05, 20.462890625) (-4.534391403198242e-05, 20.46484375) (-4.558207321166992e-05, 20.466796875) (-4.583075332641601e-05, 20.46875) (-4.608799362182617e-05, 20.470703125) (-4.63516731262207e-05, 20.47265625) (-4.6619441986083985e-05, 20.474609375) (-4.688882827758789e-05, 20.4765625) (-4.7157295227050776e-05, 20.478515625) (-4.7422348022460935e-05, 20.48046875) (-4.768181991577148e-05, 20.482421875) (-4.79339599609375e-05, 20.484375) (-4.817740249633789e-05, 20.486328125) (-4.8411205291748046e-05, 20.48828125) (-4.863484954833984e-05, 20.490234375) (-4.8848197937011715e-05, 20.4921875) (-4.905152893066406e-05, 20.494140625) (-4.924549865722656e-05, 20.49609375) (-4.943087005615234e-05, 20.498046875) (-4.9608417510986324e-05, 20.5) (-4.977886199951172e-05, 20.501953125) (-4.9942932128906244e-05, 20.50390625) (-5.0101512908935546e-05, 20.505859375) (-5.025563049316406e-05, 20.5078125) (-5.0406417846679686e-05, 20.509765625) (-5.055500793457031e-05, 20.51171875) (-5.070258331298828e-05, 20.513671875) (-5.085037231445312e-05, 20.515625) (-5.099983978271484e-05, 20.517578125) (-5.115248489379883e-05, 20.51953125) (-5.130966567993164e-05, 20.521484375) (-5.1472564697265624e-05, 20.5234375) (-5.164219665527344e-05, 20.525390625) (-5.1819484710693356e-05, 20.52734375) (-5.2005558013916013e-05, 20.529296875) (-5.220175170898437e-05, 20.53125) (-5.240934371948242e-05, 20.533203125) (-5.2629638671874996e-05, 20.53515625) (-5.2864101409912105e-05, 20.537109375) (-5.311428833007812e-05, 20.5390625) (-5.338198852539062e-05, 20.541015625) (-5.366908264160156e-05, 20.54296875) (-5.3977024078369136e-05, 20.544921875) (-5.430656433105468e-05, 20.546875) (-5.46579360961914e-05, 20.548828125) (-5.503085327148437e-05, 20.55078125) (-5.5424468994140625e-05, 20.552734375) (-5.583750915527344e-05, 20.5546875) (-5.62679328918457e-05, 20.556640625) (-5.6712711334228515e-05, 20.55859375) (-5.7168510437011715e-05, 20.560546875) (-5.763200378417968e-05, 20.5625) (-5.809989166259765e-05, 20.564453125) (-5.856887817382812e-05, 20.56640625) (-5.9035224914550776e-05, 20.568359375) (-5.949460983276367e-05, 20.5703125) (-5.9942451477050775e-05, 20.572265625) (-6.0374244689941406e-05, 20.57421875) (-6.078561401367187e-05, 20.576171875) (-6.117219924926757e-05, 20.578125) (-6.152919769287109e-05, 20.580078125) (-6.185170364379883e-05, 20.58203125) (-6.21352424621582e-05, 20.583984375) (-6.23758316040039e-05, 20.5859375) (-6.257012557983399e-05, 20.587890625) (-6.271515655517578e-05, 20.58984375) (-6.280767059326172e-05, 20.591796875) (-6.284423446655274e-05, 20.59375) (-6.282197189331054e-05, 20.595703125) (-6.273841857910156e-05, 20.59765625) (-6.259123611450194e-05, 20.599609375) (-6.23782501220703e-05, 20.6015625) (-6.209695053100586e-05, 20.603515625) (-6.174457168579102e-05, 20.60546875) (-6.131931304931641e-05, 20.607421875) (-6.0820739746093744e-05, 20.609375) (-6.024921417236328e-05, 20.611328125) (-5.960554504394531e-05, 20.61328125) (-5.889156341552734e-05, 20.615234375) (-5.81102066040039e-05, 20.6171875) (-5.726651763916016e-05, 20.619140625) (-5.636864471435546e-05, 20.62109375) (-5.5425819396972656e-05, 20.623046875) (-5.444691467285156e-05, 20.625) (-5.3441032409667966e-05, 20.626953125) (-5.241798400878906e-05, 20.62890625) (-5.138766479492187e-05, 20.630859375) (-5.036072158813476e-05, 20.6328125) (-4.9346908569335935e-05, 20.634765625) (-4.8352539062499995e-05, 20.63671875) (-4.73834114074707e-05, 20.638671875) (-4.644691467285156e-05, 20.640625) (-4.555217361450195e-05, 20.642578125) (-4.471070098876953e-05, 20.64453125) (-4.3934547424316404e-05, 20.646484375) (-4.323308181762695e-05, 20.6484375) (-4.261488723754883e-05, 20.650390625) (-4.208934783935547e-05, 20.65234375) (-4.1664848327636714e-05, 20.654296875) (-4.1349899291992185e-05, 20.65625) (-4.114795303344726e-05, 20.658203125) (-4.105546569824219e-05, 20.66015625) (-4.10732421875e-05, 20.662109375) (-4.12066650390625e-05, 20.6640625) (-4.146717071533203e-05, 20.666015625) (-4.1878105163574214e-05, 20.66796875) (-4.245851898193359e-05, 20.669921875) (-4.3214717864990233e-05, 20.671875) (-4.415161895751953e-05, 20.673828125) (-4.526688003540039e-05, 20.67578125) (-4.6543190002441404e-05, 20.677734375) (-4.796105194091797e-05, 20.6796875) (-4.9484996795654294e-05, 20.681640625) (-5.105683898925781e-05, 20.68359375) (-5.2626609802246094e-05, 20.685546875) (-5.415163421630859e-05, 20.6875) (-5.559951019287109e-05, 20.689453125) (-5.6956310272216795e-05, 20.69140625) (-5.8193542480468746e-05, 20.693359375) (-5.9265773773193355e-05, 20.6953125) (-6.012641143798828e-05, 20.697265625) (-6.0717773437499994e-05, 20.69921875) (-6.09971694946289e-05, 20.701171875) (-6.09490966796875e-05, 20.703125) (-6.054786682128906e-05, 20.705078125) (-5.9788818359375e-05, 20.70703125) (-5.872479629516601e-05, 20.708984375) (-5.742701721191406e-05, 20.7109375) (-5.6012939453125e-05, 20.712890625) (-5.462908172607421e-05, 20.71484375) (-5.3359489440917965e-05, 20.716796875) (-5.228554534912109e-05, 20.71875) (-5.150672912597656e-05, 20.720703125) (-5.110023880004883e-05, 20.72265625) (-5.119403839111328e-05, 20.724609375) (-5.192206192016601e-05, 20.7265625) (-5.3333988189697266e-05, 20.728515625) (-5.553952026367187e-05, 20.73046875) (-5.8682769775390625e-05, 20.732421875) (-6.273224639892578e-05, 20.734375) (-6.758271026611328e-05, 20.736328125) (-7.291734313964843e-05, 20.73828125) (-7.80626983642578e-05, 20.740234375) (-8.241876983642578e-05, 20.7421875) (-8.55130386352539e-05, 20.744140625) (-8.675230407714843e-05, 20.74609375) (-8.576512908935546e-05, 20.748046875) (-8.263313293457031e-05, 20.75) (-7.76342315673828e-05, 20.751953125) (-7.170314025878905e-05, 20.75390625) (-6.635894775390624e-05, 20.755859375) (-6.271852493286133e-05, 20.7578125) (-6.167284393310546e-05, 20.759765625) (-6.396437072753905e-05, 20.76171875) (-6.942951202392578e-05, 20.763671875) (-7.705455017089843e-05, 20.765625) (-8.527516174316405e-05, 20.767578125) (-9.123818969726562e-05, 20.76953125) (-9.134452056884766e-05, 20.771484375) (-8.252279663085938e-05, 20.7734375) (-6.174491500854492e-05, 20.775390625) (-2.6510334014892576e-05, 20.77734375) (2.386502456665039e-05, 20.779296875) (8.86815185546875e-05, 20.78125) (0.00016613165283203124, 20.783203125) (0.00025243544006347656, 20.78515625) (0.0003423730773925781, 20.787109375) (0.00043010052490234375, 20.7890625) (0.000508680908203125, 20.791015625) (0.0005712302856445312, 20.79296875) (0.0006140983276367187, 20.794921875) (0.000636639404296875, 20.796875) (0.0006386240234375, 20.798828125) (0.0006196688232421875, 20.80078125) (0.00057633251953125, 20.802734375) (0.000503746826171875, 20.8046875) (0.00040322299194335933, 20.806640625) (0.00028609140014648434, 20.80859375) (0.00017269097900390624, 20.810546875) (8.400747680664062e-05, 20.8125) (3.30496711730957e-05, 20.814453125) (1.6559198379516602e-05, 20.81640625) (1.739364433288574e-05, 20.818359375) (2.0801721572875977e-05, 20.8203125) (1.6941394805908204e-05, 20.822265625) (7.2157359123229974e-06, 20.82421875) (2.6397645473480225e-06, 20.826171875) (4.010137557983398e-06, 20.828125) (8.63805866241455e-06, 20.830078125) (9.947731018066406e-06, 20.83203125) (-2.4342107772827146e-06, 20.833984375) (-2.4580751419067382e-05, 20.8359375) (-5.013648986816406e-05, 20.837890625) (-7.350284576416015e-05, 20.83984375) (-8.694248962402344e-05, 20.841796875) (-9.3029296875e-05, 20.84375) (-9.530049133300781e-05, 20.845703125) (-9.451732635498046e-05, 20.84765625) (-9.318881225585938e-05, 20.849609375) (-9.030062103271484e-05, 20.8515625) (-8.476304626464843e-05, 20.853515625) (-7.789269256591796e-05, 20.85546875) (-7.049230194091796e-05, 20.857421875) (-6.338506698608399e-05, 20.859375) (-5.73373908996582e-05, 20.861328125) (-5.23110237121582e-05, 20.86328125) (-4.815546417236328e-05, 20.865234375) (-4.4986488342285154e-05, 20.8671875) (-4.2850753784179685e-05, 20.869140625) (-4.1682121276855466e-05, 20.87109375) (-4.13823127746582e-05, 20.873046875) (-4.183683395385742e-05, 20.875) (-4.293782806396484e-05, 20.876953125) (-4.462893676757812e-05, 20.87890625) (-4.68826904296875e-05, 20.880859375) (-4.958402633666992e-05, 20.8828125) (-5.2572433471679684e-05, 20.884765625) (-5.566387939453125e-05, 20.88671875) (-5.86225357055664e-05, 20.888671875) (-6.125758361816406e-05, 20.890625) (-6.345111846923828e-05, 20.892578125) (-6.511955261230468e-05, 20.89453125) (-6.621395874023438e-05, 20.896484375) (-6.669485473632812e-05, 20.8984375) (-6.652110290527344e-05, 20.900390625) (-6.567926788330078e-05, 20.90234375) (-6.419966125488281e-05, 20.904296875) (-6.213322830200195e-05, 20.90625) (-5.953007888793945e-05, 20.908203125) (-5.643413925170898e-05, 20.91015625) (-5.28804931640625e-05, 20.912109375) (-4.891949462890625e-05, 20.9140625) (-4.462342071533203e-05, 20.916015625) (-4.008123779296875e-05, 20.91796875) (-3.539177322387695e-05, 20.919921875) (-3.062748336791992e-05, 20.921875) (-2.5833683013916016e-05, 20.923828125) (-2.1043563842773437e-05, 20.92578125) (-1.6278453826904295e-05, 20.927734375) (-1.155769157409668e-05, 20.9296875) (-6.897908210754394e-06, 20.931640625) (-2.300096035003662e-06, 20.93359375) (2.249751091003418e-06, 20.935546875) (6.7626018524169916e-06, 20.9375) (1.1242645263671874e-05, 20.939453125) (1.5688541412353514e-05, 20.94140625) (2.0093307495117187e-05, 20.943359375) (2.4457088470458982e-05, 20.9453125) (2.8786834716796875e-05, 20.947265625) (3.309007263183593e-05, 20.94921875) (3.737399673461914e-05, 20.951171875) (4.164038467407227e-05, 20.953125) (4.588758850097656e-05, 20.955078125) (5.0114799499511715e-05, 20.95703125) (5.432100677490234e-05, 20.958984375) (5.850330352783203e-05, 20.9609375) (6.265711212158203e-05, 20.962890625) (6.677505493164063e-05, 20.96484375) (7.084783935546875e-05, 20.966796875) (7.486997985839843e-05, 20.96875) (7.883868408203125e-05, 20.970703125) (8.275199890136719e-05, 20.97265625) (8.660945892333984e-05, 20.974609375) (9.041021728515624e-05, 20.9765625) (9.415309143066406e-05, 20.978515625) (9.783814239501953e-05, 20.98046875) (0.00010146591949462891, 20.982421875) (0.00010503558349609374, 20.984375) (0.00010854528045654297, 20.986328125) (0.0001119923858642578, 20.98828125) (0.00011537339782714843, 20.990234375) (0.00011868518066406249, 20.9921875) (0.00012192471313476562, 20.994140625) (0.00012508827209472656, 20.99609375) (0.00012817175292968749, 20.998046875) (0.00013117092895507812, 21.0) (0.00013408151245117186, 21.001953125) (0.0001368994140625, 21.00390625) (0.00013962039184570312, 21.005859375) (0.00014223950195312498, 21.0078125) (0.00014475143432617188, 21.009765625) (0.0001471507873535156, 21.01171875) (0.00014943243408203124, 21.013671875) (0.00015159143066406248, 21.015625) (0.00015362277221679687, 21.017578125) (0.00015552108764648438, 21.01953125) (0.0001572809295654297, 21.021484375) (0.00015889694213867188, 21.0234375) (0.00016036398315429686, 21.025390625) (0.00016167706298828125, 21.02734375) (0.0001628311309814453, 21.029296875) (0.00016382090759277344, 21.03125) (0.0001646410675048828, 21.033203125) (0.00016528663635253905, 21.03515625) (0.0001657529296875, 21.037109375) (0.00016603558349609373, 21.0390625) (0.00016613041687011719, 21.041015625) (0.0001660335693359375, 21.04296875) (0.0001657414093017578, 21.044921875) (0.00016525106811523437, 21.046875) (0.0001645604553222656, 21.048828125) (0.00016366802978515625, 21.05078125) (0.00016257292175292967, 21.052734375) (0.00016127468872070312, 21.0546875) (0.0001597734680175781, 21.056640625) (0.0001580701446533203, 21.05859375) (0.0001561663818359375, 21.060546875) (0.00015406445312499999, 21.0625) (0.00015176725769042968, 21.064453125) (0.0001492783966064453, 21.06640625) (0.00014660205078125, 21.068359375) (0.00014374328613281248, 21.0703125) (0.00014070794677734373, 21.072265625) (0.00013750253295898436, 21.07421875) (0.0001341340789794922, 21.076171875) (0.00013061021423339843, 21.078125) (0.00012693922424316406, 21.080078125) (0.00012312991333007813, 21.08203125) (0.00011919171905517577, 21.083984375) (0.00011513465881347656, 21.0859375) (0.00011096920776367187, 21.087890625) (0.00010670631408691406, 21.08984375) (0.00010235732269287109, 21.091796875) (9.793398284912109e-05, 21.09375) (9.344829559326172e-05, 21.095703125) (8.891240692138671e-05, 21.09765625) (8.433856201171874e-05, 21.099609375) (7.973899841308593e-05, 21.1015625) (7.512596893310547e-05, 21.103515625) (7.05116958618164e-05, 21.10546875) (6.590838623046874e-05, 21.107421875) (6.132818222045898e-05, 21.109375) (5.6783142089843745e-05, 21.111328125) (5.228525161743164e-05, 21.11328125) (4.784633636474609e-05, 21.115234375) (4.3478012084960934e-05, 21.1171875) (3.9191604614257814e-05, 21.119140625) (3.499800872802734e-05, 21.12109375) (3.090763664245605e-05, 21.123046875) (2.6930362701416015e-05, 21.125) (2.3075435638427735e-05, 21.126953125) (1.9351436614990234e-05, 21.12890625) (1.576628017425537e-05, 21.130859375) (1.2327180862426758e-05, 21.1328125) (9.040679931640624e-06, 21.134765625) (5.9126186370849605e-06, 21.13671875) (2.948114156723022e-06, 21.138671875) (1.5151208639144898e-07, 21.140625) (-2.4736633300781247e-06, 21.142578125) (-4.924744606018066e-06, 21.14453125) (-7.199934005737304e-06, 21.146484375) (-9.298317909240723e-06, 21.1484375) (-1.1219860076904296e-05, 21.150390625) (-1.2965371131896972e-05, 21.15234375) (-1.4536428451538086e-05, 21.154296875) (-1.5935293197631835e-05, 21.15625) (-1.716482162475586e-05, 21.158203125) (-1.8228399276733396e-05, 21.16015625) (-1.912992477416992e-05, 21.162109375) (-1.9873805999755857e-05, 21.1640625) (-2.0464971542358397e-05, 21.166015625) (-2.0908885955810546e-05, 21.16796875) (-2.121157646179199e-05, 21.169921875) (-2.137965965270996e-05, 21.171875) (-2.1420364379882812e-05, 21.173828125) (-2.1341495513916016e-05, 21.17578125) (-2.1151382446289062e-05, 21.177734375) (-2.0858774185180664e-05, 21.1796875) (-2.0472740173339842e-05, 21.181640625) (-2.0002593994140623e-05, 21.18359375) (-1.9457843780517577e-05, 21.185546875) (-1.88481388092041e-05, 21.1875) (-1.8183223724365235e-05, 21.189453125) (-1.7472906112670896e-05, 21.19140625) (-1.6727035522460937e-05, 21.193359375) (-1.5955507278442382e-05, 21.1953125) (-1.516824436187744e-05, 21.197265625) (-1.4375150680541992e-05, 21.19921875) (-1.3586031913757324e-05, 21.201171875) (-1.2810491561889649e-05, 21.203125) (-1.2057834625244141e-05, 21.205078125) (-1.1337018013000488e-05, 21.20703125) (-1.0656607627868652e-05, 21.208984375) (-1.0024736404418944e-05, 21.2109375) (-9.449089050292968e-06, 21.212890625) (-8.936903953552245e-06, 21.21484375) (-8.4949893951416e-06, 21.216796875) (-8.129769325256347e-06, 21.21875) (-7.847307205200195e-06, 21.220703125) (-7.653283596038818e-06, 21.22265625) (-7.552945613861084e-06, 21.224609375) (-7.551028251647949e-06, 21.2265625) (-7.651675224304199e-06, 21.228515625) (-7.85837984085083e-06, 21.23046875) (-8.173932075500487e-06, 21.232421875) (-8.600358009338379e-06, 21.234375) (-9.138895034790038e-06, 21.236328125) (-9.7899808883667e-06, 21.23828125) (-1.0553287506103515e-05, 21.240234375) (-1.142778491973877e-05, 21.2421875) (-1.2411802291870117e-05, 21.244140625) (-1.3503046035766602e-05, 21.24609375) (-1.4698609352111816e-05, 21.248046875) (-1.599495792388916e-05, 21.25) (-1.73879451751709e-05, 21.251953125) (-1.8872814178466798e-05, 21.25390625) (-2.04442081451416e-05, 21.255859375) (-2.2096168518066404e-05, 21.2578125) (-2.382214546203613e-05, 21.259765625) (-2.5615055084228514e-05, 21.26171875) (-2.7467357635498046e-05, 21.263671875) (-2.937116241455078e-05, 21.265625) (-3.131830596923828e-05, 21.267578125) (-3.3300392150878904e-05, 21.26953125) (-3.530885696411133e-05, 21.271484375) (-3.733498001098633e-05, 21.2734375) (-3.936991500854492e-05, 21.275390625) (-4.140475082397461e-05, 21.27734375) (-4.343050003051758e-05, 21.279296875) (-4.5438156127929684e-05, 21.28125) (-4.741870880126953e-05, 21.283203125) (-4.9363246917724604e-05, 21.28515625) (-5.126302337646484e-05, 21.287109375) (-5.3109619140624995e-05, 21.2890625) (-5.489502334594726e-05, 21.291015625) (-5.661172866821289e-05, 21.29296875) (-5.825278091430664e-05, 21.294921875) (-5.981181335449218e-05, 21.296875) (-6.128312301635742e-05, 21.298828125) (-6.266167449951172e-05, 21.30078125) (-6.394309997558594e-05, 21.302734375) (-6.51236572265625e-05, 21.3046875) (-6.620027160644531e-05, 21.306640625) (-6.717043304443359e-05, 21.30859375) (-6.80323486328125e-05, 21.310546875) (-6.878485870361327e-05, 21.3125) (-6.942756652832031e-05, 21.314453125) (-6.996074676513672e-05, 21.31640625) (-7.038536834716796e-05, 21.318359375) (-7.070308685302734e-05, 21.3203125) (-7.091626739501953e-05, 21.322265625) (-7.102792358398437e-05, 21.32421875) (-7.104165649414062e-05, 21.326171875) (-7.096163940429687e-05, 21.328125) (-7.079251098632812e-05, 21.330078125) (-7.053939819335937e-05, 21.33203125) (-7.020784759521484e-05, 21.333984375) (-6.980386352539062e-05, 21.3359375) (-6.933384704589844e-05, 21.337890625) (-6.880451202392578e-05, 21.33984375) (-6.822289276123046e-05, 21.341796875) (-6.759626007080077e-05, 21.34375) (-6.693204498291015e-05, 21.345703125) (-6.623779296875e-05, 21.34765625) (-6.552101135253906e-05, 21.349609375) (-6.478907775878906e-05, 21.3515625) (-6.404913330078124e-05, 21.353515625) (-6.330807495117187e-05, 21.35546875) (-6.257244110107422e-05, 21.357421875) (-6.184843826293946e-05, 21.359375) (-6.114189910888671e-05, 21.361328125) (-6.0458236694335934e-05, 21.36328125) (-5.980242919921875e-05, 21.365234375) (-5.9179046630859375e-05, 21.3671875) (-5.8592262268066406e-05, 21.369140625) (-5.804584503173828e-05, 21.37109375) (-5.7543102264404296e-05, 21.373046875) (-5.708687591552734e-05, 21.375) (-5.6679504394531246e-05, 21.376953125) (-5.632286834716797e-05, 21.37890625) (-5.601840209960937e-05, 21.380859375) (-5.5767059326171874e-05, 21.3828125) (-5.556935119628906e-05, 21.384765625) (-5.5425277709960936e-05, 21.38671875) (-5.5334381103515623e-05, 21.388671875) (-5.5295745849609374e-05, 21.390625) (-5.53080940246582e-05, 21.392578125) (-5.5369670867919917e-05, 21.39453125) (-5.5478290557861327e-05, 21.396484375) (-5.563137054443359e-05, 21.3984375) (-5.5825901031494135e-05, 21.400390625) (-5.6058570861816407e-05, 21.40234375) (-5.6325801849365234e-05, 21.404296875) (-5.662374114990234e-05, 21.40625) (-5.694835662841796e-05, 21.408203125) (-5.7295475006103515e-05, 21.41015625) (-5.766085052490234e-05, 21.412109375) (-5.8040290832519526e-05, 21.4140625) (-5.8429679870605464e-05, 21.416015625) (-5.882497406005859e-05, 21.41796875) (-5.922221374511718e-05, 21.419921875) (-5.961754608154296e-05, 21.421875) (-6.00072021484375e-05, 21.423828125) (-6.038763046264648e-05, 21.42578125) (-6.0755531311035156e-05, 21.427734375) (-6.110774230957031e-05, 21.4296875) (-6.144124221801757e-05, 21.431640625) (-6.17531967163086e-05, 21.43359375) (-6.204100036621094e-05, 21.435546875) (-6.230234909057616e-05, 21.4375) (-6.253533172607422e-05, 21.439453125) (-6.273817825317383e-05, 21.44140625) (-6.290926742553711e-05, 21.443359375) (-6.304727172851562e-05, 21.4453125) (-6.315116119384765e-05, 21.447265625) (-6.322032165527343e-05, 21.44921875) (-6.32546157836914e-05, 21.451171875) (-6.325417709350586e-05, 21.453125) (-6.321947479248047e-05, 21.455078125) (-6.315145111083984e-05, 21.45703125) (-6.305155181884766e-05, 21.458984375) (-6.292161178588868e-05, 21.4609375) (-6.276393127441407e-05, 21.462890625) (-6.258099365234374e-05, 21.46484375) (-6.237550354003906e-05, 21.466796875) (-6.215045928955077e-05, 21.46875) (-6.190903091430664e-05, 21.470703125) (-6.165464782714843e-05, 21.47265625) (-6.139089202880859e-05, 21.474609375) (-6.112137603759765e-05, 21.4765625) (-6.084965896606445e-05, 21.478515625) (-6.057948303222656e-05, 21.48046875) (-6.031473541259765e-05, 21.482421875) (-6.005946350097656e-05, 21.484375) (-5.981796646118164e-05, 21.486328125) (-5.959428024291992e-05, 21.48828125) (-5.9392143249511716e-05, 21.490234375) (-5.921538162231445e-05, 21.4921875) (-5.906788635253906e-05, 21.494140625) (-5.895340728759765e-05, 21.49609375) (-5.887552261352539e-05, 21.498046875) (-5.883714294433593e-05, 21.5) (-5.884041595458984e-05, 21.501953125) (-5.888753509521484e-05, 21.50390625) (-5.898084259033203e-05, 21.505859375) (-5.912220001220703e-05, 21.5078125) (-5.9313007354736326e-05, 21.509765625) (-5.955386352539062e-05, 21.51171875) (-5.9844566345214844e-05, 21.513671875) (-6.0184677124023435e-05, 21.515625) (-6.0573554992675776e-05, 21.517578125) (-6.100965118408203e-05, 21.51953125) (-6.14905776977539e-05, 21.521484375) (-6.201317596435546e-05, 21.5234375) (-6.257358932495117e-05, 21.525390625) (-6.316783905029296e-05, 21.52734375) (-6.379179763793945e-05, 21.529296875) (-6.444076538085937e-05, 21.53125) (-6.510973358154297e-05, 21.533203125) (-6.579324340820312e-05, 21.53515625) (-6.648551940917969e-05, 21.537109375) (-6.718107604980468e-05, 21.5390625) (-6.787474822998046e-05, 21.541015625) (-6.856108093261719e-05, 21.54296875) (-6.923434448242187e-05, 21.544921875) (-6.988841247558593e-05, 21.546875) (-7.05166778564453e-05, 21.548828125) (-7.111338043212891e-05, 21.55078125) (-7.167378234863281e-05, 21.552734375) (-7.219274139404296e-05, 21.5546875) (-7.266445922851563e-05, 21.556640625) (-7.308372497558593e-05, 21.55859375) (-7.344636535644531e-05, 21.560546875) (-7.375057983398438e-05, 21.5625) (-7.399740600585937e-05, 21.564453125) (-7.418782806396484e-05, 21.56640625) (-7.432184600830078e-05, 21.568359375) (-7.440086364746094e-05, 21.5703125) (-7.442814636230468e-05, 21.572265625) (-7.440737915039062e-05, 21.57421875) (-7.434290313720703e-05, 21.576171875) (-7.423731231689453e-05, 21.578125) (-7.408964538574218e-05, 21.580078125) (-7.390068817138672e-05, 21.58203125) (-7.367445373535156e-05, 21.583984375) (-7.341592407226562e-05, 21.5859375) (-7.313300323486328e-05, 21.587890625) (-7.283448791503906e-05, 21.58984375) (-7.252755737304688e-05, 21.591796875) (-7.22216567993164e-05, 21.59375) (-7.192819976806641e-05, 21.595703125) (-7.165596771240234e-05, 21.59765625) (-7.141337585449218e-05, 21.599609375) (-7.120494079589844e-05, 21.6015625) (-7.102750396728515e-05, 21.603515625) (-7.088359069824218e-05, 21.60546875) (-7.078028869628905e-05, 21.607421875) (-7.072779846191406e-05, 21.609375) (-7.074821472167968e-05, 21.611328125) (-7.085992431640624e-05, 21.61328125) (-7.107046508789063e-05, 21.615234375) (-7.138885498046875e-05, 21.6171875) (-7.181922912597656e-05, 21.619140625) (-7.235006713867187e-05, 21.62109375) (-7.296531677246094e-05, 21.623046875) (-7.363275909423828e-05, 21.625) (-7.429728698730469e-05, 21.626953125) (-7.491757202148437e-05, 21.62890625) (-7.546027374267578e-05, 21.630859375) (-7.589401245117188e-05, 21.6328125) (-7.620457458496093e-05, 21.634765625) (-7.636297607421875e-05, 21.63671875) (-7.633082580566405e-05, 21.638671875) (-7.608155822753906e-05, 21.640625) (-7.557696533203125e-05, 21.642578125) (-7.477880096435546e-05, 21.64453125) (-7.366476440429688e-05, 21.646484375) (-7.2211669921875e-05, 21.6484375) (-7.041947937011719e-05, 21.650390625) (-6.834847259521484e-05, 21.65234375) (-6.60755615234375e-05, 21.654296875) (-6.370206451416015e-05, 21.65625) (-6.135868835449219e-05, 21.658203125) (-5.9127059936523435e-05, 21.66015625) (-5.709645843505859e-05, 21.662109375) (-5.537457275390625e-05, 21.6640625) (-5.4033630371093746e-05, 21.666015625) (-5.318315124511719e-05, 21.66796875) (-5.2920463562011715e-05, 21.669921875) (-5.3263839721679684e-05, 21.671875) (-5.4304061889648436e-05, 21.673828125) (-5.617291259765625e-05, 21.67578125) (-5.885800170898437e-05, 21.677734375) (-6.226631164550781e-05, 21.6796875) (-6.60882339477539e-05, 21.681640625) (-6.968465423583984e-05, 21.68359375) (-7.248220062255859e-05, 21.685546875) (-7.398928070068359e-05, 21.6875) (-7.356531524658203e-05, 21.689453125) (-7.078900146484375e-05, 21.69140625) (-6.561573028564453e-05, 21.693359375) (-5.819521331787109e-05, 21.6953125) (-4.938196182250976e-05, 21.697265625) (-4.056842041015625e-05, 21.69921875) (-3.2875141143798824e-05, 21.701171875) (-2.7451030731201172e-05, 21.703125) (-2.536103057861328e-05, 21.705078125) (-2.6691654205322265e-05, 21.70703125) (-3.064498519897461e-05, 21.708984375) (-3.593617630004883e-05, 21.7109375) (-4.0109344482421875e-05, 21.712890625) (-3.9846801757812496e-05, 21.71484375) (-3.208170318603516e-05, 21.716796875) (-1.331618309020996e-05, 21.71875) (2.009400177001953e-05, 21.720703125) (6.829210662841797e-05, 21.72265625) (0.00012832595825195312, 21.724609375) (0.00019766714477539063, 21.7265625) (0.0002722134399414062, 21.728515625) (0.00035167071533203124, 21.73046875) (0.0004410812377929687, 21.732421875) (0.0005381187744140625, 21.734375) (0.00063490283203125, 21.736328125) (0.0007161542358398437, 21.73828125) (0.0007577174682617187, 21.740234375) (0.0007467667236328125, 21.7421875) (0.0006839209594726562, 21.744140625) (0.0005822264404296874, 21.74609375) (0.00046685409545898436, 21.748046875) (0.00035560870361328123, 21.75) (0.00025711785888671876, 21.751953125) (0.00017292338562011718, 21.75390625) (9.782832336425781e-05, 21.755859375) (3.215303802490234e-05, 21.7578125) (-2.0612903594970703e-05, 21.759765625) (-5.801168823242187e-05, 21.76171875) (-7.716365051269531e-05, 21.763671875) (-7.944962310791015e-05, 21.765625) (-6.951126098632812e-05, 21.767578125) (-5.118154144287109e-05, 21.76953125) (-2.8962116241455075e-05, 21.771484375) (-7.847509860992432e-06, 21.7734375) (9.260902404785155e-06, 21.775390625) (2.0709564208984374e-05, 21.77734375) (2.5627708435058592e-05, 21.779296875) (2.480376052856445e-05, 21.78125) (1.966847229003906e-05, 21.783203125) (1.1372953414916991e-05, 21.78515625) (1.5987319946289061e-06, 21.787109375) (-7.4947433471679686e-06, 21.7890625) (-1.4704744338989257e-05, 21.791015625) (-1.9507734298706053e-05, 21.79296875) (-2.1723251342773436e-05, 21.794921875) (-2.194425010681152e-05, 21.796875) (-2.08991584777832e-05, 21.798828125) (-1.908798027038574e-05, 21.80078125) (-1.7242557525634765e-05, 21.802734375) (-1.6170169830322266e-05, 21.8046875) (-1.624151611328125e-05, 21.806640625) (-1.7604732513427732e-05, 21.80859375) (-2.0250024795532226e-05, 21.810546875) (-2.3889659881591797e-05, 21.8125) (-2.8284648895263672e-05, 21.814453125) (-3.3276508331298825e-05, 21.81640625) (-3.859815597534179e-05, 21.818359375) (-4.399720764160156e-05, 21.8203125) (-4.929913330078125e-05, 21.822265625) (-5.432235717773437e-05, 21.82421875) (-5.8970947265624996e-05, 21.826171875) (-6.321531677246093e-05, 21.828125) (-6.697515869140625e-05, 21.830078125) (-7.018568420410156e-05, 21.83203125) (-7.28140640258789e-05, 21.833984375) (-7.482535552978515e-05, 21.8359375) (-7.622083282470702e-05, 21.837890625) (-7.702919769287109e-05, 21.83984375) (-7.72634048461914e-05, 21.841796875) (-7.694901275634765e-05, 21.84375) (-7.613050842285155e-05, 21.845703125) (-7.484463500976563e-05, 21.84765625) (-7.314445495605468e-05, 21.849609375) (-7.10881118774414e-05, 21.8515625) (-6.873057556152344e-05, 21.853515625) (-6.614113616943359e-05, 21.85546875) (-6.337342834472656e-05, 21.857421875) (-6.046261978149414e-05, 21.859375) (-5.7441642761230465e-05, 21.861328125) (-5.433124923706055e-05, 21.86328125) (-5.114352035522461e-05, 21.865234375) (-4.78903694152832e-05, 21.8671875) (-4.4570968627929684e-05, 21.869140625) (-4.117081069946289e-05, 21.87109375) (-3.768228149414062e-05, 21.873046875) (-3.409896087646484e-05, 21.875) (-3.041276168823242e-05, 21.876953125) (-2.662259292602539e-05, 21.87890625) (-2.272331619262695e-05, 21.880859375) (-1.8705566406249998e-05, 21.8828125) (-1.4560760498046874e-05, 21.884765625) (-1.0278472900390624e-05, 21.88671875) (-5.850518226623535e-06, 21.888671875) (-1.273822784423828e-06, 21.890625) (3.4523949623107907e-06, 21.892578125) (8.32817268371582e-06, 21.89453125) (1.3351154327392577e-05, 21.896484375) (1.851729583740234e-05, 21.8984375) (2.3818950653076172e-05, 21.900390625) (2.9243820190429687e-05, 21.90234375) (3.4780868530273433e-05, 21.904296875) (4.042081832885742e-05, 21.90625) (4.615442657470703e-05, 21.908203125) (5.1972518920898435e-05, 21.91015625) (5.786387634277343e-05, 21.912109375) (6.381484985351563e-05, 21.9140625) (6.981140136718749e-05, 21.916015625) (7.583914184570311e-05, 21.91796875) (8.188147735595703e-05, 21.919921875) (8.791957092285155e-05, 21.921875) (9.393264770507812e-05, 21.923828125) (9.989814758300781e-05, 21.92578125) (0.0001057932357788086, 21.927734375) (0.00011159513854980468, 21.9296875) (0.00011728080749511719, 21.931640625) (0.00012282692718505858, 21.93359375) (0.00012821014404296874, 21.935546875) (0.0001334071044921875, 21.9375) (0.00013839476013183594, 21.939453125) (0.00014315080261230467, 21.94140625) (0.0001476535186767578, 21.943359375) (0.0001518817443847656, 21.9453125) (0.00015581463623046875, 21.947265625) (0.00015943215942382813, 21.94921875) (0.00016271540832519531, 21.951171875) (0.00016564718627929686, 21.953125) (0.00016821212768554686, 21.955078125) (0.00017039636230468749, 21.95703125) (0.00017218746948242188, 21.958984375) (0.00017357489013671874, 21.9609375) (0.00017454998779296873, 21.962890625) (0.00017510633850097656, 21.96484375) (0.00017523954772949218, 21.966796875) (0.00017494686889648437, 21.96875) (0.0001742275848388672, 21.970703125) (0.00017308309936523437, 21.97265625) (0.00017151710510253905, 21.974609375) (0.00016953579711914061, 21.9765625) (0.00016714770507812499, 21.978515625) (0.000164363525390625, 21.98046875) (0.00016119641113281248, 21.982421875) (0.00015766195678710936, 21.984375) (0.00015377799987792968, 21.986328125) (0.00014956428527832031, 21.98828125) (0.00014504229736328125, 21.990234375) (0.0001402347412109375, 21.9921875) (0.00013516546630859373, 21.994140625) (0.00012985919189453124, 21.99609375) (0.00012434127044677734, 21.998046875) (0.00011863760375976562, 22.0) (0.0001127743682861328, 22.001953125) (0.00010677777099609375, 22.00390625) (0.00010067390441894531, 22.005859375) (9.448866271972656e-05, 22.0078125) (8.824768066406249e-05, 22.009765625) (8.19761962890625e-05, 22.01171875) (7.569872283935546e-05, 22.013671875) (6.94387969970703e-05, 22.015625) (6.321874618530273e-05, 22.017578125) (5.705975723266601e-05, 22.01953125) (5.0981796264648434e-05, 22.021484375) (4.500361633300781e-05, 22.0234375) (3.914262390136719e-05, 22.025390625) (3.341469955444336e-05, 22.02734375) (2.783420372009277e-05, 22.029296875) (2.2414098739624024e-05, 22.03125) (1.7165996551513672e-05, 22.033203125) (1.2100069046020508e-05, 22.03515625) (7.224952697753906e-06, 22.037109375) (2.5475480556488036e-06, 22.0390625) (-1.9271109104156494e-06, 22.041015625) (-6.195730209350586e-06, 22.04296875) (-1.0256585121154785e-05, 22.044921875) (-1.4109487533569335e-05, 22.046875) (-1.775586128234863e-05, 22.048828125) (-2.119868469238281e-05, 22.05078125) (-2.444243812561035e-05, 22.052734375) (-2.749287414550781e-05, 22.0546875) (-3.035653495788574e-05, 22.056640625) (-3.30405387878418e-05, 22.05859375) (-3.5552715301513673e-05, 22.060546875) (-3.790170288085937e-05, 22.0625) (-4.009663391113281e-05, 22.064453125) (-4.2146919250488276e-05, 22.06640625) (-4.4061866760253906e-05, 22.068359375) (-4.585033416748047e-05, 22.0703125) (-4.752127838134765e-05, 22.072265625) (-4.9083858489990235e-05, 22.07421875) (-5.054719543457031e-05, 22.076171875) (-5.191989517211914e-05, 22.078125) (-5.320979690551757e-05, 22.080078125) (-5.442395782470703e-05, 22.08203125) (-5.5568954467773434e-05, 22.083984375) (-5.6651275634765626e-05, 22.0859375) (-5.7677032470703125e-05, 22.087890625) (-5.865152740478515e-05, 22.08984375) (-5.9579086303710936e-05, 22.091796875) (-6.046333312988281e-05, 22.09375) (-6.130765533447266e-05, 22.095703125) (-6.211531448364258e-05, 22.09765625) (-6.288935852050781e-05, 22.099609375) (-6.363213729858398e-05, 22.1015625) (-6.434489440917969e-05, 22.103515625) (-6.502818298339844e-05, 22.10546875) (-6.568255615234374e-05, 22.107421875) (-6.630880737304687e-05, 22.109375) (-6.690737152099608e-05, 22.111328125) (-6.747798156738281e-05, 22.11328125) (-6.801931762695313e-05, 22.115234375) (-6.85292510986328e-05, 22.1171875) (-6.900598144531249e-05, 22.119140625) (-6.944828796386718e-05, 22.12109375) (-6.985475158691406e-05, 22.123046875) (-7.022274780273437e-05, 22.125) (-7.054958343505858e-05, 22.126953125) (-7.083323669433593e-05, 22.12890625) (-7.107334899902344e-05, 22.130859375) (-7.127227020263672e-05, 22.1328125) (-7.143301391601562e-05, 22.134765625) (-7.155754089355468e-05, 22.13671875) (-7.164796447753905e-05, 22.138671875) (-7.170787048339844e-05, 22.140625) (-7.174097442626953e-05, 22.142578125) (-7.175140380859375e-05, 22.14453125) (-7.174219512939453e-05, 22.146484375) (-7.171214294433594e-05, 22.1484375) (-7.165946197509765e-05, 22.150390625) (-7.158484649658203e-05, 22.15234375) (-7.149080657958984e-05, 22.154296875) (-7.138249969482422e-05, 22.15625) (-7.12665786743164e-05, 22.158203125) (-7.114750671386718e-05, 22.16015625) (-7.102964782714844e-05, 22.162109375) (-7.09197998046875e-05, 22.1640625) (-7.082418060302734e-05, 22.166015625) (-7.074899291992187e-05, 22.16796875) (-7.069627380371093e-05, 22.169921875) (-7.066033172607421e-05, 22.171875) (-7.063917541503906e-05, 22.173828125) (-7.063600921630859e-05, 22.17578125) (-7.065975952148438e-05, 22.177734375) (-7.073135375976562e-05, 22.1796875) (-7.086994934082031e-05, 22.181640625) (-7.108487701416016e-05, 22.18359375) (-7.138646697998047e-05, 22.185546875) (-7.178141784667968e-05, 22.1875) (-7.226220703124999e-05, 22.189453125) (-7.281733703613281e-05, 22.19140625) (-7.34203643798828e-05, 22.193359375) (-7.402194213867188e-05, 22.1953125) (-7.458036804199218e-05, 22.197265625) (-7.506115722656249e-05, 22.19921875) (-7.543534851074218e-05, 22.201171875) (-7.56876449584961e-05, 22.203125) (-7.579005432128906e-05, 22.205078125) (-7.570435333251953e-05, 22.20703125) (-7.539710235595703e-05, 22.208984375) (-7.482666015625e-05, 22.2109375) (-7.396061706542968e-05, 22.212890625) (-7.278305053710937e-05, 22.21484375) (-7.12668228149414e-05, 22.216796875) (-6.94134292602539e-05, 22.21875) (-6.728861999511719e-05, 22.220703125) (-6.497512054443359e-05, 22.22265625) (-6.25937614440918e-05, 22.224609375) (-6.029025268554687e-05, 22.2265625) (-5.8148666381835935e-05, 22.228515625) (-5.6268058776855464e-05, 22.23046875) (-5.4789337158203124e-05, 22.232421875) (-5.381195831298828e-05, 22.234375) (-5.346052551269531e-05, 22.236328125) (-5.386342239379883e-05, 22.23828125) (-5.506080627441406e-05, 22.240234375) (-5.717554473876953e-05, 22.2421875) (-6.0404342651367186e-05, 22.244140625) (-6.475909423828125e-05, 22.24609375) (-7.013334655761719e-05, 22.248046875) (-7.62596435546875e-05, 22.25) (-8.256521606445312e-05, 22.251953125) (-8.848641967773437e-05, 22.25390625) (-9.354078674316405e-05, 22.255859375) (-9.706725311279297e-05, 22.2578125) (-9.855294036865233e-05, 22.259765625) (-9.795765686035156e-05, 22.26171875) (-9.554119873046874e-05, 22.263671875) (-9.201126861572265e-05, 22.265625) (-8.831658935546875e-05, 22.267578125) (-8.556500244140625e-05, 22.26953125) (-8.522129821777344e-05, 22.271484375) (-8.831166076660155e-05, 22.2734375) (-9.521247863769531e-05, 22.275390625) (-0.00010412059020996093, 22.27734375) (-0.00011072221374511719, 22.279296875) (-0.00011267027282714844, 22.28125) (-0.000109160400390625, 22.283203125) (-0.00010125405120849609, 22.28515625) (-9.280967712402344e-05, 22.287109375) (-8.110937499999999e-05, 22.2890625) (-5.885005187988281e-05, 22.291015625) (-1.836530113220215e-05, 22.29296875) (5.037086486816406e-05, 22.294921875) (0.00014907247924804686, 22.296875) (0.0002710809936523437, 22.298828125) (0.000404585205078125, 22.30078125) (0.0005310284423828125, 22.302734375) (0.000630814697265625, 22.3046875) (0.000687858642578125, 22.306640625) (0.000696893310546875, 22.30859375) (0.000659234619140625, 22.310546875) (0.0005840387573242187, 22.3125) (0.0004872015991210937, 22.314453125) (0.0003744094848632812, 22.31640625) (0.00025540579223632813, 22.318359375) (0.00014299482727050781, 22.3203125) (4.2455333709716794e-05, 22.322265625) (-3.2319374084472654e-05, 22.32421875) (-7.605265808105468e-05, 22.326171875) (-9.724386596679688e-05, 22.328125) (-0.00010067916870117188, 22.330078125) (-9.57494888305664e-05, 22.33203125) (-8.86572494506836e-05, 22.333984375) (-7.591670227050782e-05, 22.3359375) (-5.7775081634521485e-05, 22.337890625) (-3.657279586791992e-05, 22.33984375) (-1.485961627960205e-05, 22.341796875) (2.1285438537597654e-06, 22.34375) (1.1564554214477538e-05, 22.345703125) (1.375220489501953e-05, 22.34765625) (9.944644927978516e-06, 22.349609375) (2.1517722606658933e-06, 22.3515625) (-7.405905246734618e-06, 22.353515625) (-1.663205337524414e-05, 22.35546875) (-2.429216194152832e-05, 22.357421875) (-2.9713836669921873e-05, 22.359375) (-3.2590236663818356e-05, 22.361328125) (-3.333047866821289e-05, 22.36328125) (-3.2458438873291014e-05, 22.365234375) (-3.0497123718261716e-05, 22.3671875) (-2.8291263580322266e-05, 22.369140625) (-2.6712764739990234e-05, 22.37109375) (-2.620140266418457e-05, 22.373046875) (-2.693593978881836e-05, 22.375) (-2.8878829956054685e-05, 22.376953125) (-3.175995826721191e-05, 22.37890625) (-3.540304565429687e-05, 22.380859375) (-3.9640705108642575e-05, 22.3828125) (-4.419834136962891e-05, 22.384765625) (-4.877946090698242e-05, 22.38671875) (-5.311409378051758e-05, 22.388671875) (-5.705031967163086e-05, 22.390625) (-6.054550170898437e-05, 22.392578125) (-6.360322189331055e-05, 22.39453125) (-6.620655822753906e-05, 22.396484375) (-6.828943634033203e-05, 22.3984375) (-6.978405761718749e-05, 22.400390625) (-7.066415405273437e-05, 22.40234375) (-7.094998168945312e-05, 22.404296875) (-7.065972900390625e-05, 22.40625) (-6.980316162109374e-05, 22.408203125) (-6.837985992431641e-05, 22.41015625) (-6.638246154785156e-05, 22.412109375) (-6.384989929199218e-05, 22.4140625) (-6.084286880493164e-05, 22.416015625) (-5.742452239990234e-05, 22.41796875) (-5.36684341430664e-05, 22.419921875) (-4.961760330200195e-05, 22.421875) (-4.529361343383789e-05, 22.423828125) (-4.0722145080566403e-05, 22.42578125) (-3.592485809326172e-05, 22.427734375) (-3.091966247558594e-05, 22.4296875) (-2.5724411010742188e-05, 22.431640625) (-2.0342025756835937e-05, 22.43359375) (-1.4759209632873535e-05, 22.435546875) (-8.974441528320311e-06, 22.4375) (-2.993403673171997e-06, 22.439453125) (3.1769876480102537e-06, 22.44140625) (9.52412986755371e-06, 22.443359375) (1.604560661315918e-05, 22.4453125) (2.2744617462158204e-05, 22.447265625) (2.9620153427124024e-05, 22.44921875) (3.667048645019531e-05, 22.451171875) (4.389072036743164e-05, 22.453125) (5.127196884155273e-05, 22.455078125) (5.880558395385742e-05, 22.45703125) (6.648123168945312e-05, 22.458984375) (7.428224945068358e-05, 22.4609375) (8.218922424316406e-05, 22.462890625) (9.017970275878906e-05, 22.46484375) (9.822679138183594e-05, 22.466796875) (0.00010630540466308594, 22.46875) (0.00011439126586914062, 22.470703125) (0.00012245844268798828, 22.47265625) (0.0001304813232421875, 22.474609375) (0.00013843371582031248, 22.4765625) (0.00014628790283203124, 22.478515625) (0.00015401644897460937, 22.48046875) (0.00016159193420410155, 22.482421875) (0.00016898513793945312, 22.484375) (0.00017616598510742187, 22.486328125) (0.00018310423278808594, 22.48828125) (0.00018976937866210938, 22.490234375) (0.0001961314697265625, 22.4921875) (0.0002021614990234375, 22.494140625) (0.00020783091735839844, 22.49609375) (0.00021311209106445313, 22.498046875) (0.00021797908020019532, 22.5) (0.00022240728759765623, 22.501953125) (0.00022637350463867187, 22.50390625) (0.0002298560333251953, 22.505859375) (0.00023283453369140624, 22.5078125) (0.00023529052734375, 22.509765625) (0.00023720782470703123, 22.51171875) (0.00023857237243652343, 22.513671875) (0.00023937205505371092, 22.515625) (0.00023959698486328125, 22.517578125) (0.00023923983764648435, 22.51953125) (0.00023829598999023437, 22.521484375) (0.00023676422119140624, 22.5234375) (0.00023464637756347655, 22.525390625) (0.00023194700622558592, 22.52734375) (0.00022867367553710936, 22.529296875) (0.00022483694458007812, 22.53125) (0.00022045033264160157, 22.533203125) (0.00021553057861328125, 22.53515625) (0.00021009730529785155, 22.537109375) (0.00020417257690429687, 22.5390625) (0.00019778100585937498, 22.541015625) (0.00019094952392578125, 22.54296875) (0.00018370713806152342, 22.544921875) (0.00017608535766601563, 22.546875) (0.00016811767578124999, 22.548828125) (0.00015983909606933594, 22.55078125) (0.00015128591918945312, 22.552734375) (0.00014249549865722656, 22.5546875) (0.00013350604248046875, 22.556640625) (0.00012435645294189452, 22.55859375) (0.00011508612823486328, 22.560546875) (0.000105734375, 22.5625) (9.634027862548827e-05, 22.564453125) (8.694252777099609e-05, 22.56640625) (7.757921600341796e-05, 22.568359375) (6.828776550292969e-05, 22.5703125) (5.910465240478515e-05, 22.572265625) (5.0065032958984374e-05, 22.57421875) (4.120263671875e-05, 22.576171875) (3.25495376586914e-05, 22.578125) (2.4136011123657226e-05, 22.580078125) (1.599035835266113e-05, 22.58203125) (8.138707160949707e-06, 22.583984375) (6.047310829162598e-07, 22.5859375) (-6.590441226959228e-06, 22.587890625) (-1.3428344726562499e-05, 22.58984375) (-1.9893295288085935e-05, 22.591796875) (-2.5972412109374998e-05, 22.59375) (-3.1655693054199216e-05, 22.595703125) (-3.693611145019531e-05, 22.59765625) (-4.180953216552734e-05, 22.599609375) (-4.627466964721679e-05, 22.6015625) (-5.033296966552734e-05, 22.603515625) (-5.398844146728515e-05, 22.60546875) (-5.724758148193359e-05, 22.607421875) (-6.01192512512207e-05, 22.609375) (-6.261453247070312e-05, 22.611328125) (-6.474650573730469e-05, 22.61328125) (-6.653011322021483e-05, 22.615234375) (-6.798189544677734e-05, 22.6171875) (-6.911991882324218e-05, 22.619140625) (-6.996360778808594e-05, 22.62109375) (-7.05335693359375e-05, 22.623046875) (-7.085140991210937e-05, 22.625) (-7.093951416015624e-05, 22.626953125) (-7.082085418701172e-05, 22.62890625) (-7.051887512207031e-05, 22.630859375) (-7.005728149414062e-05, 22.6328125) (-6.945993041992187e-05, 22.634765625) (-6.875057983398437e-05, 22.63671875) (-6.79527587890625e-05, 22.638671875) (-6.708958435058594e-05, 22.640625) (-6.618357849121093e-05, 22.642578125) (-6.525656127929687e-05, 22.64453125) (-6.432944488525391e-05, 22.646484375) (-6.342210388183593e-05, 22.6484375) (-6.255318450927735e-05, 22.650390625) (-6.173993682861327e-05, 22.65234375) (-6.0998123168945306e-05, 22.654296875) (-6.0341918945312494e-05, 22.65625) (-5.978386688232422e-05, 22.658203125) (-5.933474731445312e-05, 22.66015625) (-5.900360870361328e-05, 22.662109375) (-5.879775238037109e-05, 22.6640625) (-5.872273254394531e-05, 22.666015625) (-5.878247833251953e-05, 22.66796875) (-5.897931671142578e-05, 22.669921875) (-5.931404876708984e-05, 22.671875) (-5.9785987854003904e-05, 22.673828125) (-6.0393043518066405e-05, 22.67578125) (-6.113186264038086e-05, 22.677734375) (-6.199787139892578e-05, 22.6796875) (-6.298542022705078e-05, 22.681640625) (-6.408780670166015e-05, 22.68359375) (-6.529736328125e-05, 22.685546875) (-6.660559844970703e-05, 22.6875) (-6.800324249267578e-05, 22.689453125) (-6.948038482666015e-05, 22.69140625) (-7.102658081054687e-05, 22.693359375) (-7.2630859375e-05, 22.6953125) (-7.428186798095702e-05, 22.697265625) (-7.596792602539062e-05, 22.69921875) (-7.767714691162109e-05, 22.701171875) (-7.939759063720703e-05, 22.703125) (-8.111732482910155e-05, 22.705078125) (-8.282454681396484e-05, 22.70703125) (-8.450772094726563e-05, 22.708984375) (-8.615563964843749e-05, 22.7109375) (-8.775760650634765e-05, 22.712890625) (-8.930349731445312e-05, 22.71484375) (-9.078392791748047e-05, 22.716796875) (-9.219024658203125e-05, 22.71875) (-9.351470947265624e-05, 22.720703125) (-9.47503433227539e-05, 22.72265625) (-9.589112854003905e-05, 22.724609375) (-9.693197631835937e-05, 22.7265625) (-9.786875915527343e-05, 22.728515625) (-9.869831085205077e-05, 22.73046875) (-9.94183120727539e-05, 22.732421875) (-0.00010002733612060547, 22.734375) (-0.00010052479553222656, 22.736328125) (-0.00010091085052490233, 22.73828125) (-0.0001011864776611328, 22.740234375) (-0.00010135325622558593, 22.7421875) (-0.00010141338348388671, 22.744140625) (-0.00010136962890624999, 22.74609375) (-0.00010122538757324218, 22.748046875) (-0.00010098457336425781, 22.75) (-0.00010065159606933593, 22.751953125) (-0.0001002314224243164, 22.75390625) (-9.972952270507812e-05, 22.755859375) (-9.915185546875e-05, 22.7578125) (-9.850491333007812e-05, 22.759765625) (-9.779557800292968e-05, 22.76171875) (-9.703109741210937e-05, 22.763671875) (-9.62190933227539e-05, 22.765625) (-9.536739349365235e-05, 22.767578125) (-9.448392486572265e-05, 22.76953125) (-9.357670593261719e-05, 22.771484375) (-9.265380096435546e-05, 22.7734375) (-9.172329711914063e-05, 22.775390625) (-9.079322814941406e-05, 22.77734375) (-8.987139892578125e-05, 22.779296875) (-8.896527099609374e-05, 22.78125) (-8.808200073242187e-05, 22.783203125) (-8.72284698486328e-05, 22.78515625) (-8.641117858886719e-05, 22.787109375) (-8.563616180419922e-05, 22.7890625) (-8.490875244140624e-05, 22.791015625) (-8.423361206054688e-05, 22.79296875) (-8.3614990234375e-05, 22.794921875) (-8.305654907226563e-05, 22.796875) (-8.256156158447265e-05, 22.798828125) (-8.213295745849609e-05, 22.80078125) (-8.177326965332031e-05, 22.802734375) (-8.148464965820312e-05, 22.8046875) (-8.126907348632812e-05, 22.806640625) (-8.112812805175781e-05, 22.80859375) (-8.106301116943359e-05, 22.810546875) (-8.107469940185547e-05, 22.8125) (-8.11636962890625e-05, 22.814453125) (-8.132962036132812e-05, 22.81640625) (-8.157142639160156e-05, 22.818359375) (-8.188735961914062e-05, 22.8203125) (-8.227484130859375e-05, 22.822265625) (-8.273104095458984e-05, 22.82421875) (-8.325238037109375e-05, 22.826171875) (-8.383451080322265e-05, 22.828125) (-8.44726333618164e-05, 22.830078125) (-8.51617431640625e-05, 22.83203125) (-8.589665222167968e-05, 22.833984375) (-8.66717529296875e-05, 22.8359375) (-8.74808578491211e-05, 22.837890625) (-8.831710815429687e-05, 22.83984375) (-8.917348480224609e-05, 22.841796875) (-9.004302215576171e-05, 22.84375) (-9.09186782836914e-05, 22.845703125) (-9.179324340820312e-05, 22.84765625) (-9.265929412841796e-05, 22.849609375) (-9.350958251953124e-05, 22.8515625) (-9.4337646484375e-05, 22.853515625) (-9.513790130615235e-05, 22.85546875) (-9.590529632568359e-05, 22.857421875) (-9.663542175292968e-05, 22.859375) (-9.732421875e-05, 22.861328125) (-9.796735382080078e-05, 22.86328125) (-9.856103515625e-05, 22.865234375) (-9.910192108154296e-05, 22.8671875) (-9.958667755126953e-05, 22.869140625) (-0.00010001254272460937, 22.87109375) (-0.00010037700653076171, 22.873046875) (-0.00010067706298828124, 22.875) (-0.00010091046142578125, 22.876953125) (-0.00010107737731933593, 22.87890625) (-0.00010117987060546874, 22.880859375) (-0.00010122225189208984, 22.8828125) (-0.00010121074676513671, 22.884765625) (-0.00010115135192871094, 22.88671875) (-0.00010105095672607421, 22.888671875) (-0.00010091817474365234, 22.890625) (-0.00010076225280761719, 22.892578125) (-0.00010059151458740234, 22.89453125) (-0.00010041238403320312, 22.896484375) (-0.00010022886657714844, 22.8984375) (-0.00010004405212402343, 22.900390625) (-9.986289978027343e-05, 22.90234375) (-9.969253540039061e-05, 22.904296875) (-9.95418930053711e-05, 22.90625) (-9.942030334472656e-05, 22.908203125) (-9.933730316162109e-05, 22.91015625) (-9.930268096923828e-05, 22.912109375) (-9.932518005371093e-05, 22.9140625) (-9.94120635986328e-05, 22.916015625) (-9.956864929199218e-05, 22.91796875) (-9.979817962646483e-05, 22.919921875) (-0.0001001004638671875, 22.921875) (-0.00010047213745117187, 22.923828125) (-0.00010091148376464843, 22.92578125) (-0.00010142152404785156, 22.927734375) (-0.00010201576232910156, 22.9296875) (-0.00010271749877929688, 22.931640625) (-0.00010354618835449219, 22.93359375) (-0.00010450988006591797, 22.935546875) (-0.00010560696411132812, 22.9375) (-0.0001068311309814453, 22.939453125) (-0.00010816835021972656, 22.94140625) (-0.00010959841918945312, 22.943359375) (-0.00011109121704101562, 22.9453125) (-0.00011259820556640625, 22.947265625) (-0.00011406808471679687, 22.94921875) (-0.00011545427703857422, 22.951171875) (-0.00011671337890625, 22.953125) (-0.00011781583404541015, 22.955078125) (-0.00011874476623535156, 22.95703125) (-0.00011947402954101562, 22.958984375) (-0.00011995433044433593, 22.9609375) (-0.00012012164306640625, 22.962890625) (-0.00011992054748535156, 22.96484375) (-0.00011933647155761718, 22.966796875) (-0.00011839857482910156, 22.96875) (-0.00011713870239257812, 22.970703125) (-0.00011558464050292968, 22.97265625) (-0.0001137631378173828, 22.974609375) (-0.00011171416473388671, 22.9765625) (-0.00010953789520263672, 22.978515625) (-0.00010736087036132812, 22.98046875) (-0.00010530221557617187, 22.982421875) (-0.00010350048828125, 22.984375) (-0.00010207231903076171, 22.986328125) (-0.00010108705139160156, 22.98828125) (-0.00010066802215576171, 22.990234375) (-0.00010096757507324218, 22.9921875) (-0.0001020828399658203, 22.994140625) (-0.00010406295776367187, 22.99609375) (-0.00010666574096679687, 22.998046875) (-0.00010930341339111327, 23.0) (-0.00011141737365722656, 23.001953125) (-0.00011251494598388671, 23.00390625) (-0.00011211924743652343, 23.005859375) (-0.00011006631469726561, 23.0078125) (-0.0001062467803955078, 23.009765625) (-0.00010041822814941406, 23.01171875) (-9.347162628173828e-05, 23.013671875) (-8.719074249267578e-05, 23.015625) (-8.288175964355468e-05, 23.017578125) (-8.22493667602539e-05, 23.01953125) (-8.524131774902343e-05, 23.021484375) (-8.882809448242187e-05, 23.0234375) (-9.26307144165039e-05, 23.025390625) (-9.753895568847656e-05, 23.02734375) (-0.00010484821319580077, 23.029296875) (-0.00011879931640625, 23.03125) (-0.00013509455871582032, 23.033203125) (-0.00014182965087890625, 23.03515625) (-0.00012768784332275391, 23.037109375) (-8.014056396484375e-05, 23.0390625) (4.950809478759765e-07, 23.041015625) (0.00010112615966796874, 23.04296875) (0.00020878677368164062, 23.044921875) (0.0003084864807128906, 23.046875) (0.0003928422546386719, 23.048828125) (0.00046276794433593746, 23.05078125) (0.0005161196899414062, 23.052734375) (0.0005515247192382812, 23.0546875) (0.0005664685668945312, 23.056640625) (0.0005558699951171875, 23.05859375) (0.0005196046142578125, 23.060546875) (0.00046084835815429683, 23.0625) (0.00038377484130859373, 23.064453125) (0.0002955403137207031, 23.06640625) (0.00020366722106933592, 23.068359375) (0.00011412292480468749, 23.0703125) (3.306061553955078e-05, 23.072265625) (-3.432656478881836e-05, 23.07421875) (-8.559466552734375e-05, 23.076171875) (-0.00011976290130615233, 23.078125) (-0.00013722254943847656, 23.080078125) (-0.00014069644165039063, 23.08203125) (-0.0001338106689453125, 23.083984375) (-0.00012023608398437499, 23.0859375) (-0.00010438639068603515, 23.087890625) (-9.000515747070312e-05, 23.08984375) (-7.916728210449219e-05, 23.091796875) (-7.320452880859374e-05, 23.09375) (-7.247748565673827e-05, 23.095703125) (-7.603871154785156e-05, 23.09765625) (-8.259245300292968e-05, 23.099609375) (-9.055946350097656e-05, 23.1015625) (-9.784364318847656e-05, 23.103515625) (-0.00010301441955566406, 23.10546875) (-0.00010548104858398437, 23.107421875) (-0.00010495986938476562, 23.109375) (-0.00010173165893554687, 23.111328125) (-9.647864532470702e-05, 23.11328125) (-8.987071228027344e-05, 23.115234375) (-8.276612091064453e-05, 23.1171875) (-7.616537475585937e-05, 23.119140625) (-7.063622283935547e-05, 23.12109375) (-6.642857360839843e-05, 23.123046875) (-6.365833282470702e-05, 23.125) (-6.220418548583984e-05, 23.126953125) (-6.194207000732422e-05, 23.12890625) (-6.278003311157226e-05, 23.130859375) (-6.450725555419922e-05, 23.1328125) (-6.687440490722656e-05, 23.134765625) (-6.970539093017577e-05, 23.13671875) (-7.285914611816407e-05, 23.138671875) (-7.622723388671875e-05, 23.140625) (-7.971475219726562e-05, 23.142578125) (-8.31478271484375e-05, 23.14453125) (-8.634603881835936e-05, 23.146484375) (-8.917751312255859e-05, 23.1484375) (-9.154252624511718e-05, 23.150390625) (-9.339949798583984e-05, 23.15234375) (-9.472116088867187e-05, 23.154296875) (-9.547049713134765e-05, 23.15625) (-9.563372039794922e-05, 23.158203125) (-9.522506713867187e-05, 23.16015625) (-9.427661895751953e-05, 23.162109375) (-9.283274841308593e-05, 23.1640625) (-9.093032836914062e-05, 23.166015625) (-8.8590576171875e-05, 23.16796875) (-8.584650421142578e-05, 23.169921875) (-8.274429321289062e-05, 23.171875) (-7.934382629394531e-05, 23.173828125) (-7.572174072265624e-05, 23.17578125) (-7.193456268310547e-05, 23.177734375) (-6.801705932617187e-05, 23.1796875) (-6.399606704711913e-05, 23.181640625) (-5.9882873535156244e-05, 23.18359375) (-5.5684196472167966e-05, 23.185546875) (-5.140601348876953e-05, 23.1875) (-4.703951263427734e-05, 23.189453125) (-4.25640754699707e-05, 23.19140625) (-3.796412658691406e-05, 23.193359375) (-3.3228820800781246e-05, 23.1953125) (-2.835319900512695e-05, 23.197265625) (-2.3340385437011718e-05, 23.19921875) (-1.818790054321289e-05, 23.201171875) (-1.2888458251953124e-05, 23.203125) (-7.43574857711792e-06, 23.205078125) (-1.8236594200134276e-06, 23.20703125) (3.948166370391845e-06, 23.208984375) (9.875268936157226e-06, 23.2109375) (1.595316505432129e-05, 23.212890625) (2.217578315734863e-05, 23.21484375) (2.8533340454101562e-05, 23.216796875) (3.5013099670410155e-05, 23.21875) (4.1598041534423826e-05, 23.220703125) (4.826814651489258e-05, 23.22265625) (5.5006191253662106e-05, 23.224609375) (6.179672241210937e-05, 23.2265625) (6.862377929687499e-05, 23.228515625) (7.547151184082031e-05, 23.23046875) (8.232276153564452e-05, 23.232421875) (8.91592025756836e-05, 23.234375) (9.596315002441406e-05, 23.236328125) (0.00010271692657470703, 23.23828125) (0.00010940068054199219, 23.240234375) (0.00011599290466308594, 23.2421875) (0.00012247103881835936, 23.244140625) (0.00012881161499023438, 23.24609375) (0.00013499160766601562, 23.248046875) (0.00014098843383789062, 23.25) (0.00014677915954589842, 23.251953125) (0.00015234080505371092, 23.25390625) (0.0001576509246826172, 23.255859375) (0.00016268789672851562, 23.2578125) (0.00016743133544921875, 23.259765625) (0.00017186209106445313, 23.26171875) (0.00017596156311035157, 23.263671875) (0.00017971194458007812, 23.265625) (0.0001830968475341797, 23.267578125) (0.00018610140991210937, 23.26953125) (0.00018871270751953125, 23.271484375) (0.00019091944885253905, 23.2734375) (0.00019271153259277344, 23.275390625) (0.00019408026123046875, 23.27734375) (0.00019501875305175781, 23.279296875) (0.00019552197265625, 23.28125) (0.0001955868682861328, 23.283203125) (0.00019521212768554687, 23.28515625) (0.00019439788818359375, 23.287109375) (0.00019314585876464843, 23.2890625) (0.00019145970153808592, 23.291015625) (0.0001893451690673828, 23.29296875) (0.00018680987548828123, 23.294921875) (0.00018386344909667967, 23.296875) (0.00018051710510253905, 23.298828125) (0.00017678399658203125, 23.30078125) (0.00017267941284179687, 23.302734375) (0.0001682208709716797, 23.3046875) (0.0001634280090332031, 23.306640625) (0.0001583223419189453, 23.30859375) (0.00015292692565917968, 23.310546875) (0.0001472663116455078, 23.3125) (0.0001413664855957031, 23.314453125) (0.00013525469970703124, 23.31640625) (0.00012895907592773437, 23.318359375) (0.00012250816345214842, 23.3203125) (0.00011593085479736327, 23.322265625) (0.00010925598907470702, 23.32421875) (0.00010251251220703125, 23.326171875) (9.572920989990234e-05, 23.328125) (8.893457794189452e-05, 23.330078125) (8.215653991699218e-05, 23.33203125) (7.54222640991211e-05, 23.333984375) (6.875822448730469e-05, 23.3359375) (6.219013214111328e-05, 23.337890625) (5.574283981323242e-05, 23.33984375) (4.944023895263672e-05, 23.341796875) (4.330493927001953e-05, 23.34375) (3.735816955566406e-05, 23.345703125) (3.161970901489258e-05, 23.34765625) (2.6107921600341796e-05, 23.349609375) (2.0839555740356445e-05, 23.3515625) (1.582965850830078e-05, 23.353515625) (1.1091360092163086e-05, 23.35546875) (6.6357603073120115e-06, 23.357421875) (2.472069501876831e-06, 23.359375) (-1.3923783302307129e-06, 23.361328125) (-4.95224380493164e-06, 23.36328125) (-8.204339981079101e-06, 23.365234375) (-1.1147814750671386e-05, 23.3671875) (-1.3784167289733887e-05, 23.369140625) (-1.6117145538330077e-05, 23.37109375) (-1.8152637481689454e-05, 23.373046875) (-1.989862060546875e-05, 23.375) (-2.136513519287109e-05, 23.376953125) (-2.25642147064209e-05, 23.37890625) (-2.3509548187255858e-05, 23.380859375) (-2.4216060638427734e-05, 23.3828125) (-2.4699710845947265e-05, 23.384765625) (-2.4977249145507812e-05, 23.38671875) (-2.5066133499145505e-05, 23.388671875) (-2.4984588623046873e-05, 23.390625) (-2.4751354217529295e-05, 23.392578125) (-2.4385311126708982e-05, 23.39453125) (-2.3905466079711913e-05, 23.396484375) (-2.3331018447875976e-05, 23.3984375) (-2.2681280136108397e-05, 23.400390625) (-2.1975746154785154e-05, 23.40234375) (-2.123394203186035e-05, 23.404296875) (-2.047473907470703e-05, 23.40625) (-1.9716171264648438e-05, 23.408203125) (-1.8975574493408202e-05, 23.41015625) (-1.8269550323486326e-05, 23.412109375) (-1.7613767623901366e-05, 23.4140625) (-1.7022832870483397e-05, 23.416015625) (-1.6509761810302735e-05, 23.41796875) (-1.608570861816406e-05, 23.419921875) (-1.5760652542114258e-05, 23.421875) (-1.5543560028076173e-05, 23.423828125) (-1.5442188262939454e-05, 23.42578125) (-1.5462775230407716e-05, 23.427734375) (-1.5609482765197755e-05, 23.4296875) (-1.5884376525878905e-05, 23.431640625) (-1.6287744522094727e-05, 23.43359375) (-1.6818376541137694e-05, 23.435546875) (-1.747341537475586e-05, 23.4375) (-1.8248035430908203e-05, 23.439453125) (-1.9135223388671875e-05, 23.44140625) (-2.0126335144042967e-05, 23.443359375) (-2.1211872100830076e-05, 23.4453125) (-2.2381637573242185e-05, 23.447265625) (-2.3624969482421872e-05, 23.44921875) (-2.4930566787719724e-05, 23.451171875) (-2.628597259521484e-05, 23.453125) (-2.7678146362304687e-05, 23.455078125) (-2.9094390869140622e-05, 23.45703125) (-3.052214431762695e-05, 23.458984375) (-3.1948543548583983e-05, 23.4609375) (-3.336051559448242e-05, 23.462890625) (-3.4744266510009765e-05, 23.46484375) (-3.6085380554199214e-05, 23.466796875) (-3.737056732177734e-05, 23.46875) (-3.8587875366210936e-05, 23.470703125) (-3.972563171386719e-05, 23.47265625) (-4.077263641357422e-05, 23.474609375) (-4.171913146972656e-05, 23.4765625) (-4.255672454833984e-05, 23.478515625) (-4.3280105590820313e-05, 23.48046875) (-4.388797760009766e-05, 23.482421875) (-4.4379711151123046e-05, 23.484375) (-4.475457763671875e-05, 23.486328125) (-4.501312255859375e-05, 23.48828125) (-4.5156974792480465e-05, 23.490234375) (-4.518919372558594e-05, 23.4921875) (-4.5114105224609376e-05, 23.494140625) (-4.4934265136718746e-05, 23.49609375) (-4.465007019042968e-05, 23.498046875) (-4.42638931274414e-05, 23.5) (-4.378173828125e-05, 23.501953125) (-4.3214313507080075e-05, 23.50390625) (-4.257472229003906e-05, 23.505859375) (-4.1874305725097655e-05, 23.5078125) (-4.112374114990234e-05, 23.509765625) (-4.0334945678710935e-05, 23.51171875) (-3.9520492553710933e-05, 23.513671875) (-3.869499588012695e-05, 23.515625) (-3.78724365234375e-05, 23.517578125) (-3.705802536010742e-05, 23.51953125) (-3.625477600097656e-05, 23.521484375) (-3.547284317016601e-05, 23.5234375) (-3.4727428436279294e-05, 23.525390625) (-3.4046913146972654e-05, 23.52734375) (-3.346978759765625e-05, 23.529296875) (-3.3023178100585934e-05, 23.53125) (-3.2723136901855464e-05, 23.533203125) (-3.2582218170166016e-05, 23.53515625) (-3.2607395172119136e-05, 23.537109375) (-3.2800769805908205e-05, 23.5390625) (-3.31568603515625e-05, 23.541015625) (-3.364471435546875e-05, 23.54296875) (-3.421325302124023e-05, 23.544921875) (-3.481516647338867e-05, 23.546875) (-3.541190338134766e-05, 23.548828125) (-3.598542785644531e-05, 23.55078125) (-3.65211067199707e-05, 23.552734375) (-3.6981597900390626e-05, 23.5546875) (-3.731865692138672e-05, 23.556640625) (-3.747114944458008e-05, 23.55859375) (-3.737541961669922e-05, 23.560546875) (-3.699671936035156e-05, 23.5625) (-3.6322067260742185e-05, 23.564453125) (-3.5340301513671876e-05, 23.56640625) (-3.405547332763672e-05, 23.568359375) (-3.250362396240234e-05, 23.5703125) (-3.0742084503173825e-05, 23.572265625) (-2.88704833984375e-05, 23.57421875) (-2.7036590576171872e-05, 23.576171875) (-2.5387245178222654e-05, 23.578125) (-2.405487823486328e-05, 23.580078125) (-2.3167205810546875e-05, 23.58203125) (-2.286160659790039e-05, 23.583984375) (-2.326102066040039e-05, 23.5859375) (-2.4539955139160157e-05, 23.587890625) (-2.6943540573120117e-05, 23.58984375) (-3.055080413818359e-05, 23.591796875) (-3.527935028076172e-05, 23.59375) (-4.0910602569580075e-05, 23.595703125) (-4.697950363159179e-05, 23.59765625) (-5.301799011230468e-05, 23.599609375) (-5.8700031280517575e-05, 23.6015625) (-6.347621154785156e-05, 23.603515625) (-6.663481140136718e-05, 23.60546875) (-6.797877502441406e-05, 23.607421875) (-6.764585876464843e-05, 23.609375) (-6.626431274414062e-05, 23.611328125) (-6.52877197265625e-05, 23.61328125) (-6.580990600585937e-05, 23.615234375) (-6.841086578369141e-05, 23.6171875) (-7.399372100830077e-05, 23.619140625) (-8.319839477539063e-05, 23.62109375) (-9.555020141601563e-05, 23.623046875) (-0.00010994522094726562, 23.625) (-0.0001240296859741211, 23.626953125) (-0.00013390164184570312, 23.62890625) (-0.00013635540771484374, 23.630859375) (-0.00012866195678710936, 23.6328125) (-0.00010763906860351563, 23.634765625) (-7.09747314453125e-05, 23.63671875) (-1.7743152618408203e-05, 23.638671875) (5.1760124206542965e-05, 23.640625) (0.00013502169799804687, 23.642578125) (0.00022747396850585937, 23.64453125) (0.00032448471069335935, 23.646484375) (0.0004206993408203125, 23.6484375) (0.0005096475219726562, 23.650390625) (0.000585155517578125, 23.65234375) (0.000641573486328125, 23.654296875) (0.00067461474609375, 23.65625) (0.0006821483154296875, 23.658203125) (0.000663805419921875, 23.66015625) (0.0006206914062499999, 23.662109375) (0.0005559473876953125, 23.6640625) (0.0004745886840820312, 23.666015625) (0.0003829128723144531, 23.66796875) (0.0002880427856445312, 23.669921875) (0.00019651956176757813, 23.671875) (0.00011415612030029296, 23.673828125) (4.584230041503906e-05, 23.67578125) (-5.575962066650391e-06, 23.677734375) (-3.9025272369384764e-05, 23.6796875) (-5.5122779846191406e-05, 23.681640625) (-5.680097198486328e-05, 23.68359375) (-4.798170089721679e-05, 23.685546875) (-3.259875869750977e-05, 23.6875) (-1.550348663330078e-05, 23.689453125) (6.80765151977539e-07, 23.69140625) (1.4896814346313475e-05, 23.693359375) (2.4032394409179686e-05, 23.6953125) (2.7285959243774412e-05, 23.697265625) (2.236502456665039e-05, 23.69921875) (6.774797439575195e-06, 23.701171875) (-1.3329466819763183e-05, 23.703125) (-3.2831291198730464e-05, 23.705078125) (-4.5727745056152344e-05, 23.70703125) (-4.532115936279297e-05, 23.708984375) (-3.6726776123046873e-05, 23.7109375) (-2.4790201187133788e-05, 23.712890625) (-1.3392740249633788e-05, 23.71484375) (-8.411993026733398e-06, 23.716796875) (-7.024585723876953e-06, 23.71875) (-6.50462532043457e-06, 23.720703125) (-6.59111213684082e-06, 23.72265625) (-5.227872848510742e-06, 23.724609375) (-3.8298282623291015e-06, 23.7265625) (-3.9474723339080805e-06, 23.728515625) (-5.092976570129394e-06, 23.73046875) (-7.391839981079101e-06, 23.732421875) (-1.0527193069458007e-05, 23.734375) (-1.392270565032959e-05, 23.736328125) (-1.766197967529297e-05, 23.73828125) (-2.178391647338867e-05, 23.740234375) (-2.6120494842529295e-05, 23.7421875) (-3.058050727844238e-05, 23.744140625) (-3.501997756958008e-05, 23.74609375) (-3.926470565795898e-05, 23.748046875) (-4.318203353881836e-05, 23.75) (-4.666260528564453e-05, 23.751953125) (-4.9629577636718746e-05, 23.75390625) (-5.203302001953125e-05, 23.755859375) (-5.3863029479980464e-05, 23.7578125) (-5.512815856933594e-05, 23.759765625) (-5.5843139648437495e-05, 23.76171875) (-5.603364181518554e-05, 23.763671875) (-5.573565292358398e-05, 23.765625) (-5.497798156738281e-05, 23.767578125) (-5.377671432495117e-05, 23.76953125) (-5.2162704467773436e-05, 23.771484375) (-5.017224884033203e-05, 23.7734375) (-4.7852157592773434e-05, 23.775390625) (-4.527106857299804e-05, 23.77734375) (-4.248044586181641e-05, 23.779296875) (-3.951070404052734e-05, 23.78125) (-3.638700866699219e-05, 23.783203125) (-3.311886596679687e-05, 23.78515625) (-2.9706119537353513e-05, 23.787109375) (-2.614897537231445e-05, 23.7890625) (-2.2435089111328123e-05, 23.791015625) (-1.8539148330688474e-05, 23.79296875) (-1.4441967964172362e-05, 23.794921875) (-1.0129718780517577e-05, 23.796875) (-5.593152523040771e-06, 23.798828125) (-8.319664001464843e-07, 23.80078125) (4.157081604003906e-06, 23.802734375) (9.381904602050782e-06, 23.8046875) (1.4849445343017578e-05, 23.806640625) (2.0565881729125975e-05, 23.80859375) (2.653225326538086e-05, 23.810546875) (3.27442626953125e-05, 23.8125) (3.919642639160156e-05, 23.814453125) (4.588125228881836e-05, 23.81640625) (5.27869758605957e-05, 23.818359375) (5.98979377746582e-05, 23.8203125) (6.71932373046875e-05, 23.822265625) (7.464749145507812e-05, 23.82421875) (8.22366714477539e-05, 23.826171875) (8.99376220703125e-05, 23.828125) (9.772584533691405e-05, 23.830078125) (0.00010557618713378906, 23.83203125) (0.00011346158599853515, 23.833984375) (0.00012135317993164062, 23.8359375) (0.00012922224426269532, 23.837890625) (0.00013703997802734375, 23.83984375) (0.00014477542114257812, 23.841796875) (0.0001523957824707031, 23.84375) (0.00015986709594726563, 23.845703125) (0.00016715446472167968, 23.84765625) (0.00017422323608398435, 23.849609375) (0.00018103929138183592, 23.8515625) (0.00018756858825683592, 23.853515625) (0.00019377719116210937, 23.85546875) (0.00019963192749023435, 23.857421875) (0.00020510089111328125, 23.859375) (0.00021015382385253906, 23.861328125) (0.00021476217651367186, 23.86328125) (0.00021889901733398437, 23.865234375) (0.0002225389709472656, 23.8671875) (0.0002256585235595703, 23.869140625) (0.00022823661804199217, 23.87109375) (0.00023025502014160156, 23.873046875) (0.00023169805908203125, 23.875) (0.00023255265808105468, 23.876953125) (0.00023280845642089843, 23.87890625) (0.00023245797729492187, 23.880859375) (0.00023149710083007812, 23.8828125) (0.00022992498779296873, 23.884765625) (0.00022774398803710935, 23.88671875) (0.00022495933532714843, 23.888671875) (0.00022157908630371094, 23.890625) (0.0002176143341064453, 23.892578125) (0.0002130792236328125, 23.89453125) (0.00020799078369140625, 23.896484375) (0.00020236874389648437, 23.8984375) (0.00019623545837402342, 23.900390625) (0.00018961572265625, 23.90234375) (0.00018253713989257813, 23.904296875) (0.00017503012084960936, 23.90625) (0.0001671272735595703, 23.908203125) (0.00015886361694335936, 23.91015625) (0.00015027597045898437, 23.912109375) (0.00014140264892578125, 23.9140625) (0.00013228335571289061, 23.916015625) (0.00012295896911621094, 23.91796875) (0.0001134709243774414, 23.919921875) (0.00010386106872558593, 23.921875) (9.417127227783203e-05, 23.923828125) (8.444320678710937e-05, 23.92578125) (7.471818542480469e-05, 23.927734375) (6.503705596923828e-05, 23.9296875) (5.543982696533203e-05, 23.931640625) (4.596549224853515e-05, 23.93359375) (3.6651725769042966e-05, 23.935546875) (2.7534687042236326e-05, 23.9375) (1.864885139465332e-05, 23.939453125) (1.0026790618896484e-05, 23.94140625) (1.6989755630493163e-06, 23.943359375) (-6.306363105773925e-06, 23.9453125) (-1.3963363647460937e-05, 23.947265625) (-2.1248601913452146e-05, 23.94921875) (-2.8141090393066405e-05, 23.951171875) (-3.462232971191406e-05, 23.953125) (-4.0676361083984376e-05, 23.955078125) (-4.6289806365966794e-05, 23.95703125) (-5.1451904296875e-05, 23.958984375) (-5.615455627441406e-05, 23.9609375) (-6.039241790771484e-05, 23.962890625) (-6.416289520263671e-05, 23.96484375) (-6.746622467041016e-05, 23.966796875) (-7.030546569824219e-05, 23.96875) (-7.268643951416015e-05, 23.970703125) (-7.461759948730468e-05, 23.97265625) (-7.61099853515625e-05, 23.974609375) (-7.717706298828124e-05, 23.9765625) (-7.783448791503906e-05, 23.978515625) (-7.809996032714844e-05, 23.98046875) (-7.799299621582031e-05, 23.982421875) (-7.753470611572265e-05, 23.984375) (-7.674770355224609e-05, 23.986328125) (-7.565586853027344e-05, 23.98828125) (-7.428416442871093e-05, 23.990234375) (-7.265840148925781e-05, 23.9921875) (-7.080512237548828e-05, 23.994140625) (-6.875136566162109e-05, 23.99609375) (-6.652449035644531e-05, 23.998046875) (-6.415202331542968e-05, 24.0) (-6.1661376953125e-05, 24.001953125) (-5.907968521118164e-05, 24.00390625) (-5.6433658599853514e-05, 24.005859375) (-5.3749443054199214e-05, 24.0078125) (-5.105254745483398e-05, 24.009765625) (-4.836769104003906e-05, 24.01171875) (-4.5718715667724605e-05, 24.013671875) (-4.3128421783447264e-05, 24.015625) (-4.06185188293457e-05, 24.017578125) (-3.820951843261719e-05, 24.01953125) (-3.5920680999755856e-05, 24.021484375) (-3.3769920349121094e-05, 24.0234375) (-3.177357673645019e-05, 24.025390625) (-2.9946313858032226e-05, 24.02734375) (-2.8301101684570312e-05, 24.029296875) (-2.6849117279052734e-05, 24.03125) (-2.559978103637695e-05, 24.033203125) (-2.456076622009277e-05, 24.03515625) (-2.3737773895263672e-05, 24.037109375) (-2.313454818725586e-05, 24.0390625) (-2.275305938720703e-05, 24.041015625) (-2.25934944152832e-05, 24.04296875) (-2.2654382705688477e-05, 24.044921875) (-2.2932670593261716e-05, 24.046875) (-2.3423635482788085e-05, 24.048828125) (-2.4121034622192383e-05, 24.05078125) (-2.5017335891723633e-05, 24.052734375) (-2.6103816986083983e-05, 24.0546875) (-2.7370630264282225e-05, 24.056640625) (-2.880689811706543e-05, 24.05859375) (-3.040069580078125e-05, 24.060546875) (-3.213917541503906e-05, 24.0625) (-3.40087890625e-05, 24.064453125) (-3.5995338439941406e-05, 24.06640625) (-3.808405303955078e-05, 24.068359375) (-4.0259727478027344e-05, 24.0703125) (-4.250666427612304e-05, 24.072265625) (-4.480884552001953e-05, 24.07421875) (-4.715025329589844e-05, 24.076171875) (-4.951492309570312e-05, 24.078125) (-5.1887084960937496e-05, 24.080078125) (-5.425132369995117e-05, 24.08203125) (-5.659230804443359e-05, 24.083984375) (-5.889488220214843e-05, 24.0859375) (-6.114462280273438e-05, 24.087890625) (-6.332780838012696e-05, 24.08984375) (-6.543126678466797e-05, 24.091796875) (-6.74425048828125e-05, 24.09375) (-6.934947967529296e-05, 24.095703125) (-7.114064025878906e-05, 24.09765625) (-7.280587005615235e-05, 24.099609375) (-7.433646392822265e-05, 24.1015625) (-7.572467803955078e-05, 24.103515625) (-7.696395874023437e-05, 24.10546875) (-7.804883575439453e-05, 24.107421875) (-7.897492980957031e-05, 24.109375) (-7.973960876464844e-05, 24.111328125) (-8.03416519165039e-05, 24.11328125) (-8.078067016601563e-05, 24.115234375) (-8.10572052001953e-05, 24.1171875) (-8.117276000976563e-05, 24.119140625) (-8.112989807128906e-05, 24.12109375) (-8.093268585205077e-05, 24.123046875) (-8.058651733398437e-05, 24.125) (-8.009764099121093e-05, 24.126953125) (-7.947364807128906e-05, 24.12890625) (-7.872323608398438e-05, 24.130859375) (-7.785631561279296e-05, 24.1328125) (-7.68843994140625e-05, 24.134765625) (-7.582013702392578e-05, 24.13671875) (-7.467658233642577e-05, 24.138671875) (-7.346725463867188e-05, 24.140625) (-7.220578002929687e-05, 24.142578125) (-7.090577697753906e-05, 24.14453125) (-6.9581787109375e-05, 24.146484375) (-6.824902343749999e-05, 24.1484375) (-6.692228698730468e-05, 24.150390625) (-6.56163101196289e-05, 24.15234375) (-6.434669494628906e-05, 24.154296875) (-6.312991333007812e-05, 24.15625) (-6.198423767089843e-05, 24.158203125) (-6.092945861816406e-05, 24.16015625) (-5.998410034179687e-05, 24.162109375) (-5.916500473022461e-05, 24.1640625) (-5.848895263671875e-05, 24.166015625) (-5.7972229003906245e-05, 24.16796875) (-5.762929916381836e-05, 24.169921875) (-5.74725112915039e-05, 24.171875) (-5.751044082641601e-05, 24.173828125) (-5.774779891967773e-05, 24.17578125) (-5.819007492065429e-05, 24.177734375) (-5.884424591064453e-05, 24.1796875) (-5.971558380126953e-05, 24.181640625) (-6.080764007568359e-05, 24.18359375) (-6.212162780761718e-05, 24.185546875) (-6.365606689453124e-05, 24.1875) (-6.540868377685547e-05, 24.189453125) (-6.737667083740234e-05, 24.19140625) (-6.955271911621093e-05, 24.193359375) (-7.192577362060547e-05, 24.1953125) (-7.448246765136718e-05, 24.197265625) (-7.720606994628906e-05, 24.19921875) (-8.008487701416015e-05, 24.201171875) (-8.311145019531249e-05, 24.203125) (-8.62810821533203e-05, 24.205078125) (-8.959622192382812e-05, 24.20703125) (-9.305335998535156e-05, 24.208984375) (-9.663919067382812e-05, 24.2109375) (-0.00010034141540527343, 24.212890625) (-0.00010414691925048827, 24.21484375) (-0.00010803170776367187, 24.216796875) (-0.00011196534729003906, 24.21875) (-0.00011590548706054687, 24.220703125) (-0.00011978898620605469, 24.22265625) (-0.00012356182861328124, 24.224609375) (-0.0001271771774291992, 24.2265625) (-0.00013057769775390624, 24.228515625) (-0.00013370996093749999, 24.23046875) (-0.00013651187133789061, 24.232421875) (-0.00013891664123535154, 24.234375) (-0.00014086582946777344, 24.236328125) (-0.00014229806518554686, 24.23828125) (-0.00014316082763671874, 24.240234375) (-0.00014342361450195312, 24.2421875) (-0.00014306741333007812, 24.244140625) (-0.00014208261108398436, 24.24609375) (-0.00014048362731933594, 24.248046875) (-0.00013828659057617187, 24.25) (-0.0001355409240722656, 24.251953125) (-0.00013237150573730468, 24.25390625) (-0.00012890634155273437, 24.255859375) (-0.0001252847442626953, 24.2578125) (-0.0001216761016845703, 24.259765625) (-0.00011821183013916016, 24.26171875) (-0.00011508502960205078, 24.263671875) (-0.00011256504821777343, 24.265625) (-0.00011076358032226562, 24.267578125) (-0.00010963143920898438, 24.26953125) (-0.00010898163604736328, 24.271484375) (-0.00010843098449707031, 24.2734375) (-0.00010764027404785156, 24.275390625) (-0.00010645706176757811, 24.27734375) (-0.00010450804138183593, 24.279296875) (-0.00010122796630859374, 24.28125) (-9.651418304443359e-05, 24.283203125) (-9.0635498046875e-05, 24.28515625) (-8.44004898071289e-05, 24.287109375) (-7.917082214355468e-05, 24.2890625) (-7.581481170654297e-05, 24.291015625) (-7.463587951660156e-05, 24.29296875) (-7.623592376708984e-05, 24.294921875) (-8.140897369384765e-05, 24.296875) (-9.0071044921875e-05, 24.298828125) (-0.00010118399047851562, 24.30078125) (-0.00011225430297851562, 24.302734375) (-0.00011975848388671874, 24.3046875) (-0.00012126029968261718, 24.306640625) (-0.00011464056396484375, 24.30859375) (-9.708534240722655e-05, 24.310546875) (-6.58833999633789e-05, 24.3125) (-1.884442138671875e-05, 24.314453125) (4.3143497467041014e-05, 24.31640625) (0.00011486380004882812, 24.318359375) (0.0001928182373046875, 24.3203125) (0.0002756473693847656, 24.322265625) (0.0003633394775390625, 24.32421875) (0.0004589337463378906, 24.326171875) (0.0005556185302734375, 24.328125) (0.0006382891845703125, 24.330078125) (0.0006936668090820312, 24.33203125) (0.0007069241943359375, 24.333984375) (0.000676038818359375, 24.3359375) (0.00061324462890625, 24.337890625) (0.0005300594482421874, 24.33984375) (0.00044037265014648436, 24.341796875) (0.00035227655029296874, 24.34375) (0.00026458197021484375, 24.345703125) (0.00017842002868652344, 24.34765625) (9.609039306640624e-05, 24.349609375) (2.2176591873168944e-05, 24.3515625) (-3.6209644317626954e-05, 24.353515625) (-7.605583190917969e-05, 24.35546875) (-9.767504119873046e-05, 24.357421875) (-0.00010340608978271484, 24.359375) (-9.767726135253906e-05, 24.361328125) (-8.418212127685546e-05, 24.36328125) (-6.65274658203125e-05, 24.365234375) (-4.9278255462646484e-05, 24.3671875) (-3.556226348876953e-05, 24.369140625) (-2.6995805740356442e-05, 24.37109375) (-2.4299526214599607e-05, 24.373046875) (-2.6715465545654294e-05, 24.375) (-3.285848999023437e-05, 24.376953125) (-4.160303115844726e-05, 24.37890625) (-5.133604049682617e-05, 24.380859375) (-6.001266479492187e-05, 24.3828125) (-6.645654296875e-05, 24.384765625) (-7.018187713623047e-05, 24.38671875) (-7.115956115722656e-05, 24.388671875) (-7.004010772705078e-05, 24.390625) (-6.75637435913086e-05, 24.392578125) (-6.427975463867188e-05, 24.39453125) (-6.090406799316406e-05, 24.396484375) (-5.8215644836425776e-05, 24.3984375) (-5.661986923217773e-05, 24.400390625) (-5.6293945312499995e-05, 24.40234375) (-5.7241245269775386e-05, 24.404296875) (-5.921818542480468e-05, 24.40625) (-6.19996109008789e-05, 24.408203125) (-6.542591857910155e-05, 24.41015625) (-6.927546691894531e-05, 24.412109375) (-7.331048583984375e-05, 24.4140625) (-7.736790466308593e-05, 24.416015625) (-8.128765869140625e-05, 24.41796875) (-8.491806030273437e-05, 24.419921875) (-8.818072509765625e-05, 24.421875) (-9.098116302490234e-05, 24.423828125) (-9.322491455078124e-05, 24.42578125) (-9.48718490600586e-05, 24.427734375) (-9.589448547363281e-05, 24.4296875) (-9.627372741699218e-05, 24.431640625) (-9.602153015136718e-05, 24.43359375) (-9.51640396118164e-05, 24.435546875) (-9.372878265380859e-05, 24.4375) (-9.176831054687499e-05, 24.439453125) (-8.93374786376953e-05, 24.44140625) (-8.647792053222655e-05, 24.443359375) (-8.324394226074219e-05, 24.4453125) (-7.969262695312499e-05, 24.447265625) (-7.588980102539062e-05, 24.44921875) (-7.191719818115234e-05, 24.451171875) (-6.783917236328125e-05, 24.453125) (-6.370111846923828e-05, 24.455078125) (-5.954002380371094e-05, 24.45703125) (-5.5379505157470704e-05, 24.458984375) (-5.123656463623047e-05, 24.4609375) (-4.7126548767089844e-05, 24.462890625) (-4.305056381225586e-05, 24.46484375) (-3.8996173858642575e-05, 24.466796875) (-3.495452880859375e-05, 24.46875) (-3.091729354858398e-05, 24.470703125) (-2.6878618240356444e-05, 24.47265625) (-2.2839904785156247e-05, 24.474609375) (-1.8797454833984373e-05, 24.4765625) (-1.4741748809814453e-05, 24.478515625) (-1.0662191390991211e-05, 24.48046875) (-6.546110153198242e-06, 24.482421875) (-2.3837976455688476e-06, 24.484375) (1.8292996883392332e-06, 24.486328125) (6.097725868225098e-06, 24.48828125) (1.0426651000976562e-05, 24.490234375) (1.4819283485412597e-05, 24.4921875) (1.9277137756347655e-05, 24.494140625) (2.3798038482666013e-05, 24.49609375) (2.837590980529785e-05, 24.498046875) (3.3006778717041014e-05, 24.5) (3.7689098358154295e-05, 24.501953125) (4.242129898071289e-05, 24.50390625) (4.720184326171875e-05, 24.505859375) (5.202742767333984e-05, 24.5078125) (5.689274597167969e-05, 24.509765625) (6.179254150390624e-05, 24.51171875) (6.672138977050781e-05, 24.513671875) (7.16717529296875e-05, 24.515625) (7.663372802734374e-05, 24.517578125) (8.159542083740234e-05, 24.51953125) (8.654290771484375e-05, 24.521484375) (9.146163177490234e-05, 24.5234375) (9.633673858642578e-05, 24.525390625) (0.00010115238952636719, 24.52734375) (0.00010589167785644531, 24.529296875) (0.00011053686523437499, 24.53125) (0.000115069580078125, 24.533203125) (0.00011947135925292969, 24.53515625) (0.0001237238082885742, 24.537109375) (0.0001278083953857422, 24.5390625) (0.0001317058410644531, 24.541015625) (0.00013539657592773438, 24.54296875) (0.0001388609161376953, 24.544921875) (0.0001420792999267578, 24.546875) (0.00014503277587890625, 24.548828125) (0.00014770263671875, 24.55078125) (0.00015007044982910154, 24.552734375) (0.0001521184844970703, 24.5546875) (0.000153829833984375, 24.556640625) (0.00015518887329101562, 24.55859375) (0.000156181640625, 24.560546875) (0.0001567957763671875, 24.5625) (0.00015702047729492186, 24.564453125) (0.00015684693908691406, 24.56640625) (0.0001562680206298828, 24.568359375) (0.00015527850341796876, 24.5703125) (0.00015387538146972656, 24.572265625) (0.00015205783081054686, 24.57421875) (0.00014982699584960936, 24.576171875) (0.00014718627929687499, 24.578125) (0.00014414144897460936, 24.580078125) (0.00014070083618164062, 24.58203125) (0.0001368754425048828, 24.583984375) (0.00013267877197265624, 24.5859375) (0.00012812635803222656, 24.587890625) (0.0001232356185913086, 24.58984375) (0.00011802559661865233, 24.591796875) (0.00011251717376708984, 24.59375) (0.00010673256683349608, 24.595703125) (0.00010069488525390624, 24.59765625) (9.44280548095703e-05, 24.599609375) (8.795625305175781e-05, 24.6015625) (8.13042755126953e-05, 24.603515625) (7.449752807617188e-05, 24.60546875) (6.756245422363282e-05, 24.607421875) (6.052633666992187e-05, 24.609375) (5.3417011260986325e-05, 24.611328125) (4.626273345947265e-05, 24.61328125) (3.909153747558594e-05, 24.615234375) (3.1931335449218746e-05, 24.6171875) (2.4810348510742185e-05, 24.619140625) (1.775672149658203e-05, 24.62109375) (1.0796694755554198e-05, 24.623046875) (3.95412015914917e-06, 24.625) (-2.749868869781494e-06, 24.626953125) (-9.29709243774414e-06, 24.62890625) (-1.5669909477233885e-05, 24.630859375) (-2.1851295471191406e-05, 24.6328125) (-2.7826595306396484e-05, 24.634765625) (-3.358307647705078e-05, 24.63671875) (-3.910872268676758e-05, 24.638671875) (-4.4392086029052735e-05, 24.640625) (-4.9420654296875e-05, 24.642578125) (-5.4180850982666014e-05, 24.64453125) (-5.866325759887695e-05, 24.646484375) (-6.286205291748047e-05, 24.6484375) (-6.677462768554687e-05, 24.650390625) (-7.040283966064453e-05, 24.65234375) (-7.374937438964844e-05, 24.654296875) (-7.68184814453125e-05, 24.65625) (-7.96170196533203e-05, 24.658203125) (-8.215204620361328e-05, 24.66015625) (-8.442945861816406e-05, 24.662109375) (-8.645635986328125e-05, 24.6640625) (-8.823693084716797e-05, 24.666015625) (-8.977213287353515e-05, 24.66796875) (-9.106961059570313e-05, 24.669921875) (-9.213760375976561e-05, 24.671875) (-9.299354553222655e-05, 24.673828125) (-9.367057800292969e-05, 24.67578125) (-9.419583129882812e-05, 24.677734375) (-9.459137725830077e-05, 24.6796875) (-9.48764877319336e-05, 24.681640625) (-9.505726623535156e-05, 24.68359375) (-9.513111114501953e-05, 24.685546875) (-9.509416198730468e-05, 24.6875) (-9.492516326904297e-05, 24.689453125) (-9.45882568359375e-05, 24.69140625) (-9.405748748779297e-05, 24.693359375) (-9.329838562011718e-05, 24.6953125) (-9.228193664550781e-05, 24.697265625) (-9.099728393554686e-05, 24.69921875) (-8.942555236816406e-05, 24.701171875) (-8.756425476074218e-05, 24.703125) (-8.540705871582031e-05, 24.705078125) (-8.291664123535156e-05, 24.70703125) (-8.006680297851562e-05, 24.708984375) (-7.685017395019531e-05, 24.7109375) (-7.327803802490234e-05, 24.712890625) (-6.940624237060547e-05, 24.71484375) (-6.531546020507813e-05, 24.716796875) (-6.107108306884766e-05, 24.71875) (-5.6764022827148436e-05, 24.720703125) (-5.2511348724365234e-05, 24.72265625) (-4.8427604675292966e-05, 24.724609375) (-4.467568969726562e-05, 24.7265625) (-4.141946411132812e-05, 24.728515625) (-3.879376602172851e-05, 24.73046875) (-3.693461608886719e-05, 24.732421875) (-3.5896770477294924e-05, 24.734375) (-3.574582672119141e-05, 24.736328125) (-3.662334442138672e-05, 24.73828125) (-3.8534835815429685e-05, 24.740234375) (-4.136187744140625e-05, 24.7421875) (-4.483255767822265e-05, 24.744140625) (-4.8405147552490234e-05, 24.74609375) (-5.1506687164306635e-05, 24.748046875) (-5.373617172241211e-05, 24.75) (-5.469223022460937e-05, 24.751953125) (-5.4041301727294916e-05, 24.75390625) (-5.186722946166992e-05, 24.755859375) (-4.8352657318115235e-05, 24.7578125) (-4.399324417114258e-05, 24.759765625) (-3.9813812255859374e-05, 24.76171875) (-3.6822505950927734e-05, 24.763671875) (-3.603498458862304e-05, 24.765625) (-3.8108211517333984e-05, 24.767578125) (-4.280780792236328e-05, 24.76953125) (-4.897245025634765e-05, 24.771484375) (-5.510737609863281e-05, 24.7734375) (-5.933501052856445e-05, 24.775390625) (-5.9162292480468746e-05, 24.77734375) (-5.168436050415039e-05, 24.779296875) (-3.327185821533203e-05, 24.78125) (-1.0716266632080077e-06, 24.783203125) (4.4362960815429686e-05, 24.78515625) (9.952188873291015e-05, 24.787109375) (0.0001609334259033203, 24.7890625) (0.00022626011657714843, 24.791015625) (0.00029755364990234374, 24.79296875) (0.00037843331909179684, 24.794921875) (0.00046506384277343745, 24.796875) (0.0005461289672851563, 24.798828125) (0.0006041225585937499, 24.80078125) (0.000622482177734375, 24.802734375) (0.0005951299438476562, 24.8046875) (0.0005290289916992187, 24.806640625) (0.0004379424133300781, 24.80859375) (0.0003318307800292969, 24.810546875) (0.00021962619018554686, 24.8125) (0.00010668859100341796, 24.814453125) (-1.2887287139892577e-06, 24.81640625) (-8.715959167480469e-05, 24.818359375) (-0.0001378974609375, 24.8203125) (-0.0001505262756347656, 24.822265625) (-0.0001281328125, 24.82421875) (-8.808682250976562e-05, 24.826171875) (-5.0652248382568354e-05, 24.828125) (-2.4341640472412108e-05, 24.830078125) (-1.3883918762207031e-05, 24.83203125) (-1.790522003173828e-05, 24.833984375) (-2.621382713317871e-05, 24.8359375) (-3.5000293731689454e-05, 24.837890625) (-4.253784561157226e-05, 24.83984375) (-4.553882217407226e-05, 24.841796875) (-4.7876861572265626e-05, 24.84375) (-5.128237915039062e-05, 24.845703125) (-5.4452167510986324e-05, 24.84765625) (-5.8364807128906244e-05, 24.849609375) (-6.121271514892578e-05, 24.8515625) (-6.13406753540039e-05, 24.853515625) (-5.942946624755859e-05, 24.85546875) (-5.5797428131103514e-05, 24.857421875) (-5.119174575805664e-05, 24.859375) (-4.674140930175781e-05, 24.861328125) (-4.305714035034179e-05, 24.86328125) (-4.0372611999511716e-05, 24.865234375) (-3.8846771240234376e-05, 24.8671875) (-3.8493682861328124e-05, 24.869140625) (-3.913147735595703e-05, 24.87109375) (-4.062735366821289e-05, 24.873046875) (-4.289832687377929e-05, 24.875) (-4.575664520263672e-05, 24.876953125) (-4.8980648040771485e-05, 24.87890625) (-5.241542434692382e-05, 24.880859375) (-5.58832778930664e-05, 24.8828125) (-5.922269821166992e-05, 24.884765625) (-6.23749122619629e-05, 24.88671875) (-6.526405334472656e-05, 24.888671875) (-6.778750610351562e-05, 24.890625) (-6.98808135986328e-05, 24.892578125) (-7.148657989501952e-05, 24.89453125) (-7.257332611083984e-05, 24.896484375) (-7.315254211425782e-05, 24.8984375) (-7.324393463134765e-05, 24.900390625) (-7.285337066650391e-05, 24.90234375) (-7.199130249023437e-05, 24.904296875) (-7.067931365966796e-05, 24.90625) (-6.894046020507812e-05, 24.908203125) (-6.681877136230469e-05, 24.91015625) (-6.436544799804687e-05, 24.912109375) (-6.163158416748047e-05, 24.9140625) (-5.867969512939453e-05, 24.916015625) (-5.5556930541992184e-05, 24.91796875) (-5.229703903198242e-05, 24.919921875) (-4.893040466308593e-05, 24.921875) (-4.547618865966797e-05, 24.923828125) (-4.194504928588867e-05, 24.92578125) (-3.8340301513671874e-05, 24.927734375) (-3.465370941162109e-05, 24.9296875) (-3.0866960525512696e-05, 24.931640625) (-2.696818923950195e-05, 24.93359375) (-2.2950042724609375e-05, 24.935546875) (-1.880478286743164e-05, 24.9375) (-1.452908420562744e-05, 24.939453125) (-1.011575698852539e-05, 24.94140625) (-5.5548315048217775e-06, 24.943359375) (-8.370543122291565e-07, 24.9453125) (4.047598361968994e-06, 24.947265625) (9.10599422454834e-06, 24.94921875) (1.4340653419494629e-05, 24.951171875) (1.97509765625e-05, 24.953125) (2.5333927154541014e-05, 24.955078125) (3.10828857421875e-05, 24.95703125) (3.698799133300781e-05, 24.958984375) (4.303504180908203e-05, 24.9609375) (4.9204948425292964e-05, 24.962890625) (5.547895812988281e-05, 24.96484375) (6.1839111328125e-05, 24.966796875) (6.826708984375e-05, 24.96875) (7.474436950683594e-05, 24.970703125) (8.125053405761718e-05, 24.97265625) (8.7762939453125e-05, 24.974609375) (9.425834655761719e-05, 24.9765625) (0.00010071344757080077, 24.978515625) (0.00010710331726074218, 24.98046875) (0.00011340153503417969, 24.982421875) (0.00011958042907714844, 24.984375) (0.00012561097717285154, 24.986328125) (0.00013146405029296874, 24.98828125) (0.0001371107940673828, 24.990234375) (0.00014252249145507812, 24.9921875) (0.00014767037963867187, 24.994140625) (0.00015252592468261719, 24.99609375) (0.00015706089782714842, 24.998046875) (0.00016124780273437498, 25.0) (0.00016506027221679687, 25.001953125) (0.00016847337341308592, 25.00390625) (0.0001714636535644531, 25.005859375) (0.00017400895690917968, 25.0078125) (0.00017608892822265623, 25.009765625) (0.00017768536376953125, 25.01171875) (0.00017878256225585935, 25.013671875) (0.00017936770629882812, 25.015625) (0.00017943055725097655, 25.017578125) (0.0001789635467529297, 25.01953125) (0.00017796182250976562, 25.021484375) (0.00017642364501953124, 25.0234375) (0.00017435047912597656, 25.025390625) (0.00017174685668945312, 25.02734375) (0.00016862016296386717, 25.029296875) (0.00016498046874999998, 25.03125) (0.0001608406066894531, 25.033203125) (0.00015621615600585936, 25.03515625) (0.00015112521362304688, 25.037109375) (0.0001455882568359375, 25.0390625) (0.00013962774658203125, 25.041015625) (0.00013326840209960936, 25.04296875) (0.0001265369873046875, 25.044921875) (0.00011946216583251953, 25.046875) (0.00011207439422607421, 25.048828125) (0.00010440574645996093, 25.05078125) (9.648956298828124e-05, 25.052734375) (8.83603744506836e-05, 25.0546875) (8.005376434326171e-05, 25.056640625) (7.160598754882812e-05, 25.05859375) (6.305370712280273e-05, 25.060546875) (5.4433807373046876e-05, 25.0625) (4.5782943725585935e-05, 25.064453125) (3.713739013671875e-05, 25.06640625) (2.8532852172851562e-05, 25.068359375) (2.0004257202148438e-05, 25.0703125) (1.1585524559020996e-05, 25.072265625) (3.3093373775482177e-06, 25.07421875) (-4.793115615844726e-06, 25.076171875) (-1.2692314147949217e-05, 25.078125) (-2.0360492706298827e-05, 25.080078125) (-2.7771808624267577e-05, 25.08203125) (-3.490252304077148e-05, 25.083984375) (-4.173115539550781e-05, 25.0859375) (-4.823863983154297e-05, 25.087890625) (-5.4408302307128906e-05, 25.08984375) (-6.022579193115234e-05, 25.091796875) (-6.567904663085938e-05, 25.09375) (-7.075827026367188e-05, 25.095703125) (-7.545584106445312e-05, 25.09765625) (-7.97663116455078e-05, 25.099609375) (-8.368621826171874e-05, 25.1015625) (-8.721401977539062e-05, 25.103515625) (-9.035009765624999e-05, 25.10546875) (-9.309675598144531e-05, 25.107421875) (-9.545824432373047e-05, 25.109375) (-9.744071960449218e-05, 25.111328125) (-9.905224609374999e-05, 25.11328125) (-0.00010030264282226562, 25.115234375) (-0.0001012034454345703, 25.1171875) (-0.00010176774597167968, 25.119140625) (-0.00010201017761230469, 25.12109375) (-0.00010194666290283202, 25.123046875) (-0.00010159425354003906, 25.125) (-0.00010097096252441406, 25.126953125) (-0.00010009561157226562, 25.12890625) (-9.898775482177734e-05, 25.130859375) (-9.766754150390625e-05, 25.1328125) (-9.615559387207031e-05, 25.134765625) (-9.447282409667968e-05, 25.13671875) (-9.264031982421875e-05, 25.138671875) (-9.067912292480468e-05, 25.140625) (-8.861015319824219e-05, 25.142578125) (-8.645399475097656e-05, 25.14453125) (-8.423078155517577e-05, 25.146484375) (-8.195999908447266e-05, 25.1484375) (-7.966039276123046e-05, 25.150390625) (-7.734991455078125e-05, 25.15234375) (-7.50457534790039e-05, 25.154296875) (-7.276434326171874e-05, 25.15625) (-7.05213394165039e-05, 25.158203125) (-6.83316650390625e-05, 25.16015625) (-6.620947265625e-05, 25.162109375) (-6.416813659667969e-05, 25.1640625) (-6.222023010253906e-05, 25.166015625) (-6.037742233276367e-05, 25.16796875) (-5.865038299560547e-05, 25.169921875) (-5.704862213134765e-05, 25.171875) (-5.558042526245117e-05, 25.173828125) (-5.425276184082031e-05, 25.17578125) (-5.3071258544921875e-05, 25.177734375) (-5.204021835327148e-05, 25.1796875) (-5.116259002685547e-05, 25.181640625) (-5.04399528503418e-05, 25.18359375) (-4.9872581481933594e-05, 25.185546875) (-4.9459465026855465e-05, 25.1875) (-4.9198356628417965e-05, 25.189453125) (-4.90858154296875e-05, 25.19140625) (-4.911724472045898e-05, 25.193359375) (-4.9286865234375e-05, 25.1953125) (-4.958782577514648e-05, 25.197265625) (-5.00123062133789e-05, 25.19921875) (-5.0551666259765624e-05, 25.201171875) (-5.119658660888672e-05, 25.203125) (-5.193721008300781e-05, 25.205078125) (-5.2763301849365235e-05, 25.20703125) (-5.366440963745117e-05, 25.208984375) (-5.462997055053711e-05, 25.2109375) (-5.5649444580078123e-05, 25.212890625) (-5.671234893798828e-05, 25.21484375) (-5.780826950073242e-05, 25.216796875) (-5.8926826477050776e-05, 25.21875) (-6.005770874023437e-05, 25.220703125) (-6.119067764282227e-05, 25.22265625) (-6.23156280517578e-05, 25.224609375) (-6.3422607421875e-05, 25.2265625) (-6.450194549560547e-05, 25.228515625) (-6.554431915283203e-05, 25.23046875) (-6.654090118408203e-05, 25.232421875) (-6.748346710205078e-05, 25.234375) (-6.836456298828125e-05, 25.236328125) (-6.917749786376953e-05, 25.23828125) (-6.99164810180664e-05, 25.240234375) (-7.057656860351563e-05, 25.2421875) (-7.115377044677734e-05, 25.244140625) (-7.164501953125e-05, 25.24609375) (-7.204825592041015e-05, 25.248046875) (-7.23624038696289e-05, 25.25) (-7.258740234374999e-05, 25.251953125) (-7.272416687011719e-05, 25.25390625) (-7.277467346191406e-05, 25.255859375) (-7.274186706542968e-05, 25.2578125) (-7.26296157836914e-05, 25.259765625) (-7.244261169433594e-05, 25.26171875) (-7.218623352050781e-05, 25.263671875) (-7.186636352539062e-05, 25.265625) (-7.148921966552734e-05, 25.267578125) (-7.106119537353516e-05, 25.26953125) (-7.058876800537109e-05, 25.271484375) (-7.007835388183593e-05, 25.2734375) (-6.953617095947266e-05, 25.275390625) (-6.896830749511719e-05, 25.27734375) (-6.838062286376953e-05, 25.279296875) (-6.777879333496093e-05, 25.28125) (-6.71683120727539e-05, 25.283203125) (-6.655447387695313e-05, 25.28515625) (-6.594239807128907e-05, 25.287109375) (-6.533695983886719e-05, 25.2890625) (-6.474272155761719e-05, 25.291015625) (-6.416392517089843e-05, 25.29296875) (-6.360444641113281e-05, 25.294921875) (-6.30677261352539e-05, 25.296875) (-6.255672836303711e-05, 25.298828125) (-6.207398986816405e-05, 25.30078125) (-6.162153244018554e-05, 25.302734375) (-6.120094680786133e-05, 25.3046875) (-6.08133544921875e-05, 25.306640625) (-6.045941162109375e-05, 25.30859375) (-6.013930130004882e-05, 25.310546875) (-5.985267639160156e-05, 25.3125) (-5.959864807128906e-05, 25.314453125) (-5.937577438354492e-05, 25.31640625) (-5.918205642700195e-05, 25.318359375) (-5.901499938964844e-05, 25.3203125) (-5.887163543701172e-05, 25.322265625) (-5.87486343383789e-05, 25.32421875) (-5.864242553710937e-05, 25.326171875) (-5.854934692382812e-05, 25.328125) (-5.8465805053710934e-05, 25.330078125) (-5.838835906982422e-05, 25.33203125) (-5.831385040283203e-05, 25.333984375) (-5.8239444732666014e-05, 25.3359375) (-5.816267776489257e-05, 25.337890625) (-5.8081474304199217e-05, 25.33984375) (-5.7994117736816404e-05, 25.341796875) (-5.789929580688476e-05, 25.34375) (-5.7795986175537104e-05, 25.345703125) (-5.768347930908203e-05, 25.34765625) (-5.756132507324218e-05, 25.349609375) (-5.7429321289062495e-05, 25.3515625) (-5.7287506103515625e-05, 25.353515625) (-5.713615417480469e-05, 25.35546875) (-5.697573089599609e-05, 25.357421875) (-5.680677795410156e-05, 25.359375) (-5.662993621826172e-05, 25.361328125) (-5.644581222534179e-05, 25.36328125) (-5.62549934387207e-05, 25.365234375) (-5.60579719543457e-05, 25.3671875) (-5.585512924194336e-05, 25.369140625) (-5.564670944213867e-05, 25.37109375) (-5.5432846069335937e-05, 25.373046875) (-5.521364593505859e-05, 25.375) (-5.4989200592041016e-05, 25.376953125) (-5.4759643554687495e-05, 25.37890625) (-5.4525177001953124e-05, 25.380859375) (-5.4286037445068356e-05, 25.3828125) (-5.404248809814453e-05, 25.384765625) (-5.37947998046875e-05, 25.38671875) (-5.3543159484863276e-05, 25.388671875) (-5.328763580322265e-05, 25.390625) (-5.302806091308594e-05, 25.392578125) (-5.276401901245117e-05, 25.39453125) (-5.249480438232422e-05, 25.396484375) (-5.2219413757324215e-05, 25.3984375) (-5.19366340637207e-05, 25.400390625) (-5.164501190185547e-05, 25.40234375) (-5.13428840637207e-05, 25.404296875) (-5.1028411865234375e-05, 25.40625) (-5.069961547851562e-05, 25.408203125) (-5.0354461669921875e-05, 25.41015625) (-4.99908447265625e-05, 25.412109375) (-4.960668182373047e-05, 25.4140625) (-4.919992065429687e-05, 25.416015625) (-4.876856994628906e-05, 25.41796875) (-4.831084823608398e-05, 25.419921875) (-4.782524108886718e-05, 25.421875) (-4.731066131591797e-05, 25.423828125) (-4.6766498565673825e-05, 25.42578125) (-4.619269561767578e-05, 25.427734375) (-4.558976364135742e-05, 25.4296875) (-4.495883178710937e-05, 25.431640625) (-4.430162811279297e-05, 25.43359375) (-4.362045288085937e-05, 25.435546875) (-4.29180908203125e-05, 25.4375) (-4.219769287109375e-05, 25.439453125) (-4.1462730407714844e-05, 25.44140625) (-4.0716888427734376e-05, 25.443359375) (-3.9964088439941404e-05, 25.4453125) (-3.920844650268555e-05, 25.447265625) (-3.8454261779785154e-05, 25.44921875) (-3.770597839355468e-05, 25.451171875) (-3.696818161010742e-05, 25.453125) (-3.62455940246582e-05, 25.455078125) (-3.554307174682617e-05, 25.45703125) (-3.486558532714844e-05, 25.458984375) (-3.421811294555664e-05, 25.4609375) (-3.360558700561523e-05, 25.462890625) (-3.30328369140625e-05, 25.46484375) (-3.250459289550781e-05, 25.466796875) (-3.202545928955078e-05, 25.46875) (-3.159994125366211e-05, 25.470703125) (-3.123238182067871e-05, 25.47265625) (-3.092693710327148e-05, 25.474609375) (-3.0687578201293945e-05, 25.4765625) (-3.05180549621582e-05, 25.478515625) (-3.0421867370605467e-05, 25.48046875) (-3.0402166366577146e-05, 25.482421875) (-3.0461605072021484e-05, 25.484375) (-3.060222625732422e-05, 25.486328125) (-3.082535171508789e-05, 25.48828125) (-3.113154602050781e-05, 25.490234375) (-3.1520572662353515e-05, 25.4921875) (-3.1991397857666015e-05, 25.494140625) (-3.254217529296875e-05, 25.49609375) (-3.3170276641845705e-05, 25.498046875) (-3.387239074707031e-05, 25.5) (-3.464461517333984e-05, 25.501953125) (-3.5482543945312495e-05, 25.50390625) (-3.638134384155273e-05, 25.505859375) (-3.733572769165039e-05, 25.5078125) (-3.8340003967285155e-05, 25.509765625) (-3.9388084411621095e-05, 25.51171875) (-4.047355270385742e-05, 25.513671875) (-4.158970642089843e-05, 25.515625) (-4.27296142578125e-05, 25.517578125) (-4.388614654541015e-05, 25.51953125) (-4.505202484130859e-05, 25.521484375) (-4.621991729736328e-05, 25.5234375) (-4.738253402709961e-05, 25.525390625) (-4.8532649993896484e-05, 25.52734375) (-4.966313934326172e-05, 25.529296875) (-5.076686096191406e-05, 25.53125) (-5.183668136596679e-05, 25.533203125) (-5.2865428924560545e-05, 25.53515625) (-5.384587478637695e-05, 25.537109375) (-5.477076721191406e-05, 25.5390625) (-5.5632804870605466e-05, 25.541015625) (-5.642470169067383e-05, 25.54296875) (-5.713924407958984e-05, 25.544921875) (-5.776948547363281e-05, 25.546875) (-5.830884552001953e-05, 25.548828125) (-5.8751266479492187e-05, 25.55078125) (-5.909127807617187e-05, 25.552734375) (-5.932404708862304e-05, 25.5546875) (-5.9445396423339844e-05, 25.556640625) (-5.945183563232422e-05, 25.55859375) (-5.934060668945312e-05, 25.560546875) (-5.9109634399414057e-05, 25.5625) (-5.875751495361328e-05, 25.564453125) (-5.828347015380859e-05, 25.56640625) (-5.7687370300292964e-05, 25.568359375) (-5.696977233886719e-05, 25.5703125) (-5.613197326660156e-05, 25.572265625) (-5.5176025390624995e-05, 25.57421875) (-5.410469818115234e-05, 25.576171875) (-5.2921440124511716e-05, 25.578125) (-5.1630294799804683e-05, 25.580078125) (-5.023588562011719e-05, 25.58203125) (-4.8743339538574215e-05, 25.583984375) (-4.715824508666992e-05, 25.5859375) (-4.548654556274414e-05, 25.587890625) (-4.373452377319336e-05, 25.58984375) (-4.1908836364746095e-05, 25.591796875) (-4.001655197143554e-05, 25.59375) (-3.806528854370117e-05, 25.595703125) (-3.606324005126953e-05, 25.59765625) (-3.401921081542969e-05, 25.599609375) (-3.194259262084961e-05, 25.6015625) (-2.9843355178833005e-05, 25.603515625) (-2.7731979370117186e-05, 25.60546875) (-2.5619375228881834e-05, 25.607421875) (-2.3516727447509765e-05, 25.609375) (-2.1435338973999024e-05, 25.611328125) (-1.9386474609374998e-05, 25.61328125) (-1.738124656677246e-05, 25.615234375) (-1.543057632446289e-05, 25.6171875) (-1.354512882232666e-05, 25.619140625) (-1.1735249519348145e-05, 25.62109375) (-1.0010896682739257e-05, 25.623046875) (-8.381568908691407e-06, 25.625) (-6.856245517730713e-06, 25.626953125) (-5.443337917327881e-06, 25.62890625) (-4.1506156921386714e-06, 25.630859375) (-2.98508882522583e-06, 25.6328125) (-1.952908396720886e-06, 25.634765625) (-1.0593056678771971e-06, 25.63671875) (-3.0857855081558225e-07, 25.638671875) (2.9585450887680053e-07, 25.640625) (7.514054775238037e-07, 25.642578125) (1.0562832355499266e-06, 25.64453125) (1.2094408273696899e-06, 25.646484375) (1.2105273008346557e-06, 25.6484375) (1.059869647026062e-06, 25.650390625) (7.58444845676422e-07, 25.65234375) (3.079224824905395e-07, 25.654296875) (-2.8922051191329956e-07, 25.65625) (-1.0296308994293212e-06, 25.658203125) (-1.909001111984253e-06, 25.66015625) (-2.9220199584960936e-06, 25.662109375) (-4.062422752380371e-06, 25.6640625) (-5.323036670684814e-06, 25.666015625) (-6.695802211761474e-06, 25.66796875) (-8.171873092651367e-06, 25.669921875) (-9.741744995117187e-06, 25.671875) (-1.1395358085632323e-05, 25.673828125) (-1.312226676940918e-05, 25.67578125) (-1.4911731719970702e-05, 25.677734375) (-1.675270652770996e-05, 25.6796875) (-1.8633886337280273e-05, 25.681640625) (-2.0543804168701173e-05, 25.68359375) (-2.2470886230468748e-05, 25.685546875) (-2.440359878540039e-05, 25.6875) (-2.633053970336914e-05, 25.689453125) (-2.8240447998046874e-05, 25.69140625) (-3.012234878540039e-05, 25.693359375) (-3.196568298339844e-05, 25.6953125) (-3.3760353088378904e-05, 25.697265625) (-3.549685668945312e-05, 25.69921875) (-3.716625595092773e-05, 