(0.00012242147827148437, 0.0) (0.00013614857482910155, 0.001953125) (0.0001500845489501953, 0.00390625) (0.00016397154235839843, 0.005859375) (0.00017755752563476562, 0.0078125) (0.0001905746612548828, 0.009765625) (0.0002027173156738281, 0.01171875) (0.00021370257568359375, 0.013671875) (0.00022330226135253904, 0.015625) (0.00023133224487304686, 0.017578125) (0.0002376719970703125, 0.01953125) (0.0002422418518066406, 0.021484375) (0.0002449728546142578, 0.0234375) (0.0002458421936035156, 0.025390625) (0.0002448712005615234, 0.02734375) (0.00024212901306152343, 0.029296875) (0.00023774571228027343, 0.03125) (0.00023185337829589842, 0.033203125) (0.00022457679748535156, 0.03515625) (0.00021606948852539063, 0.037109375) (0.00020650140380859373, 0.0390625) (0.00019607330322265624, 0.041015625) (0.00018503186035156248, 0.04296875) (0.00017360325622558593, 0.044921875) (0.00016196255493164063, 0.046875) (0.00015025933837890625, 0.048828125) (0.00013860728454589844, 0.05078125) (0.00012709932708740234, 0.052734375) (0.00011582872009277343, 0.0546875) (0.0001048572998046875, 0.056640625) (9.420963287353515e-05, 0.05859375) (8.388536834716797e-05, 0.060546875) (7.386127471923827e-05, 0.0625) (6.411997985839844e-05, 0.064453125) (5.465763473510742e-05, 0.06640625) (4.5454284667968745e-05, 0.068359375) (3.6472728729248046e-05, 0.0703125) (2.7655378341674805e-05, 0.072265625) (1.891948127746582e-05, 0.07421875) (1.020289897918701e-05, 0.076171875) (1.478044033050537e-06, 0.078125) (-7.271584510803223e-06, 0.080078125) (-1.604798889160156e-05, 0.08203125) (-2.4845561981201172e-05, 0.083984375) (-3.3659229278564454e-05, 0.0859375) (-4.246556091308594e-05, 0.087890625) (-5.1219268798828125e-05, 0.08984375) (-5.987162017822266e-05, 0.091796875) (-6.837516021728515e-05, 0.09375) (-7.668882751464843e-05, 0.095703125) (-8.478152465820313e-05, 0.09765625) (-9.261587524414063e-05, 0.099609375) (-0.00010014642333984374, 0.1015625) (-0.0001073235092163086, 0.103515625) (-0.00011409353637695311, 0.10546875) (-0.00012041651916503905, 0.107421875) (-0.0001262680969238281, 0.109375) (-0.00013162908935546874, 0.111328125) (-0.00013648666381835937, 0.11328125) (-0.00014083363342285156, 0.115234375) (-0.0001446671447753906, 0.1171875) (-0.00014799496459960937, 0.119140625) (-0.00015083584594726562, 0.12109375) (-0.00015320796203613282, 0.123046875) (-0.00015512814331054687, 0.125) (-0.00015661428833007812, 0.126953125) (-0.00015768418884277343, 0.12890625) (-0.00015836003112792968, 0.130859375) (-0.00015866893005371093, 0.1328125) (-0.00015863961791992188, 0.134765625) (-0.0001583022766113281, 0.13671875) (-0.00015768872070312499, 0.138671875) (-0.0001568321075439453, 0.140625) (-0.00015576632690429687, 0.142578125) (-0.00015452630615234376, 0.14453125) (-0.00015314685058593749, 0.146484375) (-0.0001516619415283203, 0.1484375) (-0.00015010528564453124, 0.150390625) (-0.00014850982666015625, 0.15234375) (-0.00014690716552734375, 0.154296875) (-0.0001453289794921875, 0.15625) (-0.0001438056640625, 0.158203125) (-0.00014236599731445312, 0.16015625) (-0.00014104098510742187, 0.162109375) (-0.00013986230468749999, 0.1640625) (-0.00013886058044433594, 0.166015625) (-0.00013806736755371093, 0.16796875) (-0.00013750765991210937, 0.169921875) (-0.00013719877624511717, 0.171875) (-0.00013715850830078126, 0.173828125) (-0.0001374013214111328, 0.17578125) (-0.00013793638610839844, 0.177734375) (-0.00013877273559570312, 0.1796875) (-0.00013991432189941407, 0.181640625) (-0.00014136212158203125, 0.18359375) (-0.00014312545776367188, 0.185546875) (-0.00014521380615234374, 0.1875) (-0.0001476344299316406, 0.189453125) (-0.0001503967590332031, 0.19140625) (-0.0001534981689453125, 0.193359375) (-0.00015692547607421874, 0.1953125) (-0.00016065740966796874, 0.197265625) (-0.00016465216064453126, 0.19921875) (-0.00016887016296386717, 0.201171875) (-0.00017328182983398436, 0.203125) (-0.00017785174560546875, 0.205078125) (-0.00018255319213867187, 0.20703125) (-0.00018734274291992188, 0.208984375) (-0.00019214436340332032, 0.2109375) (-0.00019689761352539062, 0.212890625) (-0.00020154887390136717, 0.21484375) (-0.00020603367614746093, 0.216796875) (-0.0002103178253173828, 0.21875) (-0.00021432215881347656, 0.220703125) (-0.00021789170837402343, 0.22265625) (-0.0002210066223144531, 0.224609375) (-0.00022376419067382812, 0.2265625) (-0.00022626791381835936, 0.228515625) (-0.00022871533203124998, 0.23046875) (-0.00023116419982910155, 0.232421875) (-0.00023343063354492187, 0.234375) (-0.00023551112365722656, 0.236328125) (-0.0002375820617675781, 0.23828125) (-0.00023958294677734374, 0.240234375) (-0.00024135275268554685, 0.2421875) (-0.00024269088745117187, 0.244140625) (-0.00024320135498046873, 0.24609375) (-0.00024300399780273436, 0.248046875) (-0.0002428125305175781, 0.25) (-0.00024306039428710936, 0.251953125) (-0.00024396093749999998, 0.25390625) (-0.00024587670898437497, 0.255859375) (-0.0002490447082519531, 0.2578125) (-0.0002536855773925781, 0.259765625) (-0.00026016485595703123, 0.26171875) (-0.00026801239013671876, 0.263671875) (-0.00027594906616210937, 0.265625) (-0.0002829703979492187, 0.267578125) (-0.0002882218017578125, 0.26953125) (-0.00029089950561523437, 0.271484375) (-0.0002906709289550781, 0.2734375) (-0.00028748638916015624, 0.275390625) (-0.0002813668212890625, 0.27734375) (-0.0002731725463867187, 0.279296875) (-0.0002644710998535156, 0.28125) (-0.0002563793029785156, 0.283203125) (-0.0002497323303222656, 0.28515625) (-0.00024541156005859375, 0.287109375) (-0.00024357443237304685, 0.2890625) (-0.00024312039184570312, 0.291015625) (-0.0002426459503173828, 0.29296875) (-0.00023882687377929686, 0.294921875) (-0.00022597642517089843, 0.296875) (-0.00020130255126953124, 0.298828125) (-0.00016356278991699219, 0.30078125) (-0.00011264286804199218, 0.302734375) (-5.4104068756103515e-05, 0.3046875) (9.938337326049804e-06, 0.306640625) (8.303152465820313e-05, 0.30859375) (0.00016766000366210936, 0.310546875) (0.00027147869873046874, 0.3125) (0.0003980163879394531, 0.314453125) (0.0005381912231445312, 0.31640625) (0.000679724365234375, 0.318359375) (0.000802723876953125, 0.3203125) (0.0008859381713867187, 0.322265625) (0.0009163768310546874, 0.32421875) (0.0008854634399414062, 0.326171875) (0.0007943157348632812, 0.328125) (0.0006513839111328125, 0.330078125) (0.0004713707885742187, 0.33203125) (0.0002763213500976562, 0.333984375) (8.790243530273437e-05, 0.3359375) (-7.123576354980469e-05, 0.337890625) (-0.0001855911865234375, 0.33984375) (-0.0002540679931640625, 0.341796875) (-0.00028296643066406246, 0.34375) (-0.0002879202270507812, 0.345703125) (-0.0002857352294921875, 0.34765625) (-0.000282667724609375, 0.349609375) (-0.0002796964111328125, 0.3515625) (-0.00027319012451171873, 0.353515625) (-0.0002578397827148437, 0.35546875) (-0.00023507821655273438, 0.357421875) (-0.00020945158386230468, 0.359375) (-0.00018531231689453124, 0.361328125) (-0.00016701475524902342, 0.36328125) (-0.00015582614135742186, 0.365234375) (-0.00015100680541992186, 0.3671875) (-0.00015172377014160154, 0.369140625) (-0.00015651953125, 0.37109375) (-0.00016361871337890624, 0.373046875) (-0.00017140264892578124, 0.375) (-0.0001784163055419922, 0.376953125) (-0.00018343000793457032, 0.37890625) (-0.0001857765197753906, 0.380859375) (-0.0001851051025390625, 0.3828125) (-0.00018131568908691406, 0.384765625) (-0.0001747062530517578, 0.38671875) (-0.00016592759704589844, 0.388671875) (-0.00015581253051757813, 0.390625) (-0.0001452147674560547, 0.392578125) (-0.00013498930358886717, 0.39453125) (-0.00012567161560058594, 0.396484375) (-0.00011756202697753906, 0.3984375) (-0.00011081509399414063, 0.400390625) (-0.0001053547134399414, 0.40234375) (-0.00010100045776367187, 0.404296875) (-9.751457214355469e-05, 0.40625) (-9.457756042480468e-05, 0.408203125) (-9.180718231201172e-05, 0.41015625) (-8.894867706298828e-05, 0.412109375) (-8.585829925537108e-05, 0.4140625) (-8.245867919921875e-05, 0.416015625) (-7.879112243652343e-05, 0.41796875) (-7.49015121459961e-05, 0.419921875) (-7.082220458984374e-05, 0.421875) (-6.662451171874999e-05, 0.423828125) (-6.238766479492187e-05, 0.42578125) (-5.8160739898681635e-05, 0.427734375) (-5.398395919799804e-05, 0.4296875) (-4.9885551452636716e-05, 0.431640625) (-4.5848651885986325e-05, 0.43359375) (-4.185513687133789e-05, 0.435546875) (-3.7881332397460934e-05, 0.4375) (-3.3880588531494136e-05, 0.439453125) (-2.9831844329833984e-05, 0.44140625) (-2.5723514556884766e-05, 0.443359375) (-2.152824020385742e-05, 0.4453125) (-1.7214731216430665e-05, 0.447265625) (-1.2745802879333496e-05, 0.44921875) (-8.081144332885742e-06, 0.451171875) (-3.1928420066833496e-06, 0.453125) (1.9359405040740967e-06, 0.455078125) (7.324029922485351e-06, 0.45703125) (1.2985007286071777e-05, 0.458984375) (1.8929418563842773e-05, 0.4609375) (2.516526412963867e-05, 0.462890625) (3.167658424377441e-05, 0.46484375) (3.8432327270507814e-05, 0.466796875) (4.538767242431641e-05, 0.46875) (5.248170089721679e-05, 0.470703125) (5.9668922424316406e-05, 0.47265625) (6.691676330566406e-05, 0.474609375) (7.418910217285156e-05, 0.4765625) (8.145161437988281e-05, 0.478515625) (8.867503356933594e-05, 0.48046875) (9.583438110351563e-05, 0.482421875) (0.00010291844177246093, 0.484375) (0.00010992975616455077, 0.486328125) (0.00011686715698242187, 0.48828125) (0.0001237283477783203, 0.490234375) (0.00013051306152343748, 0.4921875) (0.000137221435546875, 0.494140625) (0.00014386378479003907, 0.49609375) (0.00015045741271972656, 0.498046875) (0.0001570240478515625, 0.5) (0.00016359063720703125, 0.501953125) (0.00017017726135253906, 0.50390625) (0.00017679673767089844, 0.505859375) (0.00018346078491210936, 0.5078125) (0.000190177734375, 0.509765625) (0.00019695098876953125, 0.51171875) (0.00020378089904785155, 0.513671875) (0.00021066056823730467, 0.515625) (0.00021757577514648437, 0.517578125) (0.00022451499938964842, 0.51953125) (0.00023146871948242186, 0.521484375) (0.00023842684936523437, 0.5234375) (0.0002453800811767578, 0.525390625) (0.0002523166809082031, 0.52734375) (0.0002592227172851562, 0.529296875) (0.00026608422851562497, 0.53125) (0.00027288671874999996, 0.533203125) (0.0002796162109375, 0.53515625) (0.00028625949096679687, 0.537109375) (0.00029280352783203124, 0.5390625) (0.00029923565673828123, 0.541015625) (0.00030554428100585936, 0.54296875) (0.00031171807861328125, 0.544921875) (0.00031774725341796874, 0.546875) (0.0003236231689453125, 0.548828125) (0.000329336669921875, 0.55078125) (0.00033487765502929683, 0.552734375) (0.00034023602294921875, 0.5546875) (0.0003454013671875, 0.556640625) (0.00035036334228515624, 0.55859375) (0.00035511251831054686, 0.560546875) (0.00035963888549804686, 0.5625) (0.00036393246459960935, 0.564453125) (0.00036798406982421875, 0.56640625) (0.00037178491210937496, 0.568359375) (0.0003753269653320312, 0.5703125) (0.000378602783203125, 0.572265625) (0.00038160540771484374, 0.57421875) (0.0003843282470703125, 0.576171875) (0.0003867652893066406, 0.578125) (0.0003889112243652344, 0.580078125) (0.00039076110839843746, 0.58203125) (0.00039231042480468746, 0.583984375) (0.00039355523681640624, 0.5859375) (0.0003944921569824219, 0.587890625) (0.00039511804199218747, 0.58984375) (0.0003954302978515625, 0.591796875) (0.00039542663574218746, 0.59375) (0.00039510522460937497, 0.595703125) (0.000394464599609375, 0.59765625) (0.00039350360107421874, 0.599609375) (0.00039222149658203124, 0.6015625) (0.00039061773681640623, 0.603515625) (0.00038869195556640626, 0.60546875) (0.00038644403076171875, 0.607421875) (0.0003838740844726562, 0.609375) (0.0003809823303222656, 0.611328125) (0.0003777688598632812, 0.61328125) (0.0003742339172363281, 0.615234375) (0.000370377685546875, 0.6171875) (0.0003662002563476562, 0.619140625) (0.0003617018432617187, 0.62109375) (0.00035688256835937496, 0.623046875) (0.0003517427368164062, 0.625) (0.00034628280639648437, 0.626953125) (0.0003405032958984375, 0.62890625) (0.0003344047241210937, 0.630859375) (0.00032798782348632813, 0.6328125) (0.00032125335693359376, 0.634765625) (0.0003142023315429687, 0.63671875) (0.0003068358764648437, 0.638671875) (0.000299155029296875, 0.640625) (0.0002911609802246094, 0.642578125) (0.0002828551330566406, 0.64453125) (0.00027423898315429685, 0.646484375) (0.0002653140563964844, 0.6484375) (0.0002560820922851562, 0.650390625) (0.00024654492187499997, 0.65234375) (0.0002367044677734375, 0.654296875) (0.00022656286621093748, 0.65625) (0.0002161224365234375, 0.658203125) (0.00020538555908203125, 0.66015625) (0.0001943548583984375, 0.662109375) (0.0001830330810546875, 0.6640625) (0.0001714232177734375, 0.666015625) (0.00015952856445312498, 0.66796875) (0.00014735276794433592, 0.669921875) (0.00013489991760253905, 0.671875) (0.00012217465209960938, 0.673828125) (0.00010918220520019531, 0.67578125) (9.592851257324219e-05, 0.677734375) (8.242034912109374e-05, 0.6796875) (6.8665283203125e-05, 0.681640625) (5.4671669006347654e-05, 0.68359375) (4.0448661804199214e-05, 0.685546875) (2.6006130218505857e-05, 0.6875) (1.135465908050537e-05, 0.689453125) (-3.494481563568115e-06, 0.69140625) (-1.8529407501220703e-05, 0.693359375) (-3.373767852783203e-05, 0.6953125) (-4.910631561279297e-05, 0.697265625) (-6.462181854248046e-05, 0.69921875) (-8.027018737792969e-05, 0.701171875) (-9.603691101074219e-05, 0.703125) (-0.00011190702819824219, 0.705078125) (-0.00012786518859863281, 0.70703125) (-0.0001438957061767578, 0.708984375) (-0.00015998260498046874, 0.7109375) (-0.0001761096496582031, 0.712890625) (-0.00019226040649414063, 0.71484375) (-0.00020841836547851562, 0.716796875) (-0.00022456689453124998, 0.71875) (-0.00024068939208984373, 0.720703125) (-0.0002567691955566406, 0.72265625) (-0.0002727896728515625, 0.724609375) (-0.00028873425292968747, 0.7265625) (-0.0003045864868164062, 0.728515625) (-0.0003203302001953125, 0.73046875) (-0.00033594946289062496, 0.732421875) (-0.0003514288330078125, 0.734375) (-0.0003667535705566406, 0.736328125) (-0.00038190948486328124, 0.73828125) (-0.0003968833618164062, 0.740234375) (-0.00041166302490234374, 0.7421875) (-0.0004262373352050781, 0.744140625) (-0.00044059625244140623, 0.74609375) (-0.0004547308654785156, 0.748046875) (-0.0004686334838867187, 0.75) (-0.0004822975463867187, 0.751953125) (-0.000495717529296875, 0.75390625) (-0.0005088892517089844, 0.755859375) (-0.0005218095092773437, 0.7578125) (-0.000534476318359375, 0.759765625) (-0.0005468889160156249, 0.76171875) (-0.0005590474853515625, 0.763671875) (-0.00057095361328125, 0.765625) (-0.0005826097412109375, 0.767578125) (-0.0005940194091796875, 0.76953125) (-0.0006051873168945312, 0.771484375) (-0.0006161187744140625, 0.7734375) (-0.0006268202514648437, 0.775390625) (-0.0006372986450195312, 0.77734375) (-0.0006475617675781249, 0.779296875) (-0.0006576179809570312, 0.78125) (-0.000667476318359375, 0.783203125) (-0.0006771461791992187, 0.78515625) (-0.0006866379394531249, 0.787109375) (-0.0006959620361328125, 0.7890625) (-0.000705129638671875, 0.791015625) (-0.0007141524658203125, 0.79296875) (-0.0007230419311523437, 0.794921875) (-0.0007318102416992187, 0.796875) (-0.00074046923828125, 0.798828125) (-0.00074903076171875, 0.80078125) (-0.0007575064086914063, 0.802734375) (-0.0007659075317382813, 0.8046875) (-0.0007742448730468749, 0.806640625) (-0.00078252880859375, 0.80859375) (-0.0007907691650390625, 0.810546875) (-0.0007989754028320312, 0.8125) (-0.0008071562499999999, 0.814453125) (-0.00081531982421875, 0.81640625) (-0.0008234736328125, 0.818359375) (-0.0008316246337890625, 0.8203125) (-0.0008397786865234375, 0.822265625) (-0.0008479411621093749, 0.82421875) (-0.0008561163330078125, 0.826171875) (-0.000864307861328125, 0.828125) (-0.0008725184326171875, 0.830078125) (-0.0008807501220703124, 0.83203125) (-0.0008890039062499999, 0.833984375) (-0.0008972806396484375, 0.8359375) (-0.0009055799560546875, 0.837890625) (-0.0009139014892578125, 0.83984375) (-0.0009222440185546874, 0.841796875) (-0.0009306060791015625, 0.84375) (-0.0009389852905273438, 0.845703125) (-0.0009473791503906249, 0.84765625) (-0.0009557844848632812, 0.849609375) (-0.0009641978759765624, 0.8515625) (-0.000972615234375, 0.853515625) (-0.0009810325317382812, 0.85546875) (-0.0009894451904296875, 0.857421875) (-0.0009978485107421874, 0.859375) (-0.0010062380981445311, 0.861328125) (-0.0010146091308593749, 0.86328125) (-0.0010229571533203125, 0.865234375) (-0.0010312779541015624, 0.8671875) (-0.0010395675048828123, 0.869140625) (-0.0010478215332031249, 0.87109375) (-0.0010560367431640624, 0.873046875) (-0.0010642099609375, 0.875) (-0.0010723377685546874, 0.876953125) (-0.0010804177246093749, 0.87890625) (-0.0010884478759765625, 0.880859375) (-0.00109642626953125, 0.8828125) (-0.0011043524169921874, 0.884765625) (-0.0011122264404296875, 0.88671875) (-0.001120048583984375, 0.888671875) (-0.0011278206787109374, 0.890625) (-0.0011355445556640626, 0.892578125) (-0.001143223388671875, 0.89453125) (-0.0011508609619140624, 0.896484375) (-0.0011584616699218749, 0.8984375) (-0.0011660299072265624, 0.900390625) (-0.0011735711669921874, 0.90234375) (-0.0011810916748046874, 0.904296875) (-0.0011885980224609375, 0.90625) (-0.001196097900390625, 0.908203125) (-0.00120359912109375, 0.91015625) (-0.001211110595703125, 0.912109375) (-0.0012186414794921874, 0.9140625) (-0.0012262012939453124, 0.916015625) (-0.0012338001708984375, 0.91796875) (-0.0012414488525390624, 0.919921875) (-0.00124915771484375, 0.921875) (-0.0012569375, 0.923828125) (-0.001264798828125, 0.92578125) (-0.0012727525634765625, 0.927734375) (-0.0012808092041015624, 0.9296875) (-0.0012889802246093748, 0.931640625) (-0.0012972764892578124, 0.93359375) (-0.0013057088623046875, 0.935546875) (-0.0013142880859375, 0.9375) (-0.0013230252685546874, 0.939453125) (-0.0013319306640625, 0.94140625) (-0.0013410148925781249, 0.943359375) (-0.0013502874755859375, 0.9453125) (-0.001359757568359375, 0.947265625) (-0.0013694334716796875, 0.94921875) (-0.0013793232421874999, 0.951171875) (-0.0013894345703124999, 0.953125) (-0.00139977392578125, 0.955078125) (-0.0014103475341796874, 0.95703125) (-0.0014211608886718749, 0.958984375) (-0.0014322199707031249, 0.9609375) (-0.0014435302734375, 0.962890625) (-0.0014550975341796875, 0.96484375) (-0.0014669260253906248, 0.966796875) (-0.001479019287109375, 0.96875) (-0.00149138037109375, 0.970703125) (-0.0015040106201171875, 0.97265625) (-0.001516910888671875, 0.974609375) (-0.001530079833984375, 0.9765625) (-0.0015435137939453125, 0.978515625) (-0.0015572082519531248, 0.98046875) (-0.0015711575927734374, 0.982421875) (-0.0015853557128906249, 0.984375) (-0.0015997967529296875, 0.986328125) (-0.001614474365234375, 0.98828125) (-0.0016293806152343749, 0.990234375) (-0.001644506591796875, 0.9921875) (-0.001659842529296875, 0.994140625) (-0.0016753757324218749, 0.99609375) (-0.0016910943603515624, 0.998046875) (-0.0017069832763671874, 1.0) (-0.0017230223388671874, 1.001953125) (-0.001739190185546875, 1.00390625) (-0.001755466064453125, 1.005859375) (-0.001771831298828125, 1.0078125) (-0.001788273681640625, 1.009765625) (-0.001804779296875, 1.01171875) (-0.0018213289794921873, 1.013671875) (-0.0018379008789062498, 1.015625) (-0.0018544709472656249, 1.017578125) (-0.0018710098876953125, 1.01953125) (-0.001887481689453125, 1.021484375) (-0.0019038430175781248, 1.0234375) (-0.0019200364990234373, 1.025390625) (-0.001936003173828125, 1.02734375) (-0.00195168505859375, 1.029296875) (-0.001967027099609375, 1.03125) (-0.001981983154296875, 1.033203125) (-0.0019965091552734374, 1.03515625) (-0.002010556640625, 1.037109375) (-0.00202407177734375, 1.0390625) (-0.0020369959716796874, 1.041015625) (-0.0020492727050781248, 1.04296875) (-0.00206085986328125, 1.044921875) (-0.00207172900390625, 1.046875) (-0.0020818515624999997, 1.048828125) (-0.00209122119140625, 1.05078125) (-0.002099861328125, 1.052734375) (-0.00210782763671875, 1.0546875) (-0.0021152197265625, 1.056640625) (-0.0021221474609375, 1.05859375) (-0.00212870361328125, 1.060546875) (-0.0021349794921875, 1.0625) (-0.0021410771484375, 1.064453125) (-0.002147106201171875, 1.06640625) (-0.00215318212890625, 1.068359375) (-0.0021594086914062498, 1.0703125) (-0.0021658339843749997, 1.072265625) (-0.00217251953125, 1.07421875) (-0.002179568359375, 1.076171875) (-0.002187043701171875, 1.078125) (-0.00219494873046875, 1.080078125) (-0.00220311279296875, 1.08203125) (-0.00221118359375, 1.083984375) (-0.002218791015625, 1.0859375) (-0.00222561962890625, 1.087890625) (-0.0022313247070312498, 1.08984375) (-0.0022354291992187497, 1.091796875) (-0.002237386474609375, 1.09375) (-0.0022367646484375, 1.095703125) (-0.00223366455078125, 1.09765625) (-0.0022285722656249997, 1.099609375) (-0.00222193701171875, 1.1015625) (-0.0022142333984375, 1.103515625) (-0.00220581591796875, 1.10546875) (-0.0021972998046875, 1.107421875) (-0.00219000537109375, 1.109375) (-0.0021838310546875, 1.111328125) (-0.002176218017578125, 1.11328125) (-0.002164615234375, 1.115234375) (-0.002146507080078125, 1.1171875) (-0.002123288330078125, 1.119140625) (-0.00210178125, 1.12109375) (-0.0020848334960937498, 1.123046875) (-0.0020699543457031247, 1.125) (-0.002047378662109375, 1.126953125) (-0.0020008852539062497, 1.12890625) (-0.00192195068359375, 1.130859375) (-0.00181179443359375, 1.1328125) (-0.0016804589843749998, 1.134765625) (-0.0015430325927734375, 1.13671875) (-0.0014092232666015625, 1.138671875) (-0.0012866265869140624, 1.140625) (-0.0011814061279296875, 1.142578125) (-0.00110207763671875, 1.14453125) (-0.00106411474609375, 1.146484375) (-0.0010765701904296874, 1.1484375) (-0.0011429334716796876, 1.150390625) (-0.0012592503662109374, 1.15234375) (-0.0014057041015625, 1.154296875) (-0.001563126953125, 1.15625) (-0.0017113942871093749, 1.158203125) (-0.0018287651367187498, 1.16015625) (-0.0019094959716796874, 1.162109375) (-0.0019540571289062498, 1.1640625) (-0.0019696064453125, 1.166015625) (-0.0019729846191406247, 1.16796875) (-0.001971791748046875, 1.169921875) (-0.00196757666015625, 1.171875) (-0.0019587982177734376, 1.173828125) (-0.0019381243896484375, 1.17578125) (-0.0019043598632812499, 1.177734375) (-0.001861530517578125, 1.1796875) (-0.0018139847412109375, 1.181640625) (-0.0017672999267578124, 1.18359375) (-0.0017238126220703125, 1.185546875) (-0.001682646240234375, 1.1875) (-0.001642804931640625, 1.189453125) (-0.0016029147949218748, 1.19140625) (-0.001561526123046875, 1.193359375) (-0.0015176002197265625, 1.1953125) (-0.00146999267578125, 1.197265625) (-0.0014177231445312499, 1.19921875) (-0.001360686279296875, 1.201171875) (-0.0012993408203125, 1.203125) (-0.0012343341064453125, 1.205078125) (-0.00116648583984375, 1.20703125) (-0.0010965996093749999, 1.208984375) (-0.001025411865234375, 1.2109375) (-0.0009537035522460937, 1.212890625) (-0.0008821231689453124, 1.21484375) (-0.0008109615478515624, 1.216796875) (-0.0007403009643554687, 1.21875) (-0.00067011669921875, 1.220703125) (-0.000600343994140625, 1.22265625) (-0.000530996826171875, 1.224609375) (-0.000462085205078125, 1.2265625) (-0.00039356396484374997, 1.228515625) (-0.00032538037109374997, 1.23046875) (-0.00025751495361328125, 1.232421875) (-0.00019000740051269531, 1.234375) (-0.0001229340133666992, 1.236328125) (-5.636481094360351e-05, 1.23828125) (9.646564483642577e-06, 1.240234375) (7.506115722656249e-05, 1.2421875) (0.00013982116699218748, 1.244140625) (0.00020379873657226563, 1.24609375) (0.00026684829711914063, 1.248046875) (0.00032885128784179685, 1.25) (0.00038969763183593746, 1.251953125) (0.000449320068359375, 1.25390625) (0.0005076736450195312, 1.255859375) (0.0005646729736328125, 1.2578125) (0.0006202430419921874, 1.259765625) (0.0006743482666015625, 1.26171875) (0.0007269781494140625, 1.263671875) (0.0007781761474609374, 1.265625) (0.0008280114135742187, 1.267578125) (0.0008765433959960937, 1.26953125) (0.0009238549804687499, 1.271484375) (0.0009700556640624999, 1.2734375) (0.0010152858276367188, 1.275390625) (0.0010597427978515624, 1.27734375) (0.0011036224365234375, 1.279296875) (0.001147091064453125, 1.28125) (0.001190325439453125, 1.283203125) (0.001233491943359375, 1.28515625) (0.00127675830078125, 1.287109375) (0.0013203331298828125, 1.2890625) (0.0013643984375, 1.291015625) (0.001409085693359375, 1.29296875) (0.00145450830078125, 1.294921875) (0.0015007419433593749, 1.296875) (0.00154783251953125, 1.298828125) (0.00159582763671875, 1.30078125) (0.0016447454833984374, 1.302734375) (0.0016945687255859375, 1.3046875) (0.0017452655029296874, 1.306640625) (0.0017967762451171873, 1.30859375) (0.001849029541015625, 1.310546875) (0.0019019556884765623, 1.3125) (0.0019554519042968748, 1.314453125) (0.0020093956298828123, 1.31640625) (0.002063654296875, 1.318359375) (0.002118065185546875, 1.3203125) (0.0021724770507812498, 1.322265625) (0.0022267685546875, 1.32421875) (0.002280815673828125, 1.326171875) (0.00233451318359375, 1.328125) (0.0023877900390625, 1.330078125) (0.00244057763671875, 1.33203125) (0.002492819091796875, 1.333984375) (0.002544467041015625, 1.3359375) (0.002595451171875, 1.337890625) (0.0026456918945312498, 1.33984375) (0.002695129638671875, 1.341796875) (0.002743716796875, 1.34375) (0.0027914296875, 1.345703125) (0.0028382458496093747, 1.34765625) (0.0028841230468749997, 1.349609375) (0.0029290180664062497, 1.3515625) (0.0029728798828125, 1.353515625) (0.003015646240234375, 1.35546875) (0.003057250732421875, 1.357421875) (0.00309759228515625, 1.359375) (0.003136512939453125, 1.361328125) (0.00317383056640625, 1.36328125) (0.003209351318359375, 1.365234375) (0.0032428835449218748, 1.3671875) (0.0032742658691406246, 1.369140625) (0.0033033427734374997, 1.37109375) (0.0033299345703125, 1.373046875) (0.0033538459472656247, 1.375) (0.0033748728027343747, 1.376953125) (0.00339284521484375, 1.37890625) (0.0034076445312499998, 1.380859375) (0.00341916650390625, 1.3828125) (0.00342731689453125, 1.384765625) (0.00343200390625, 1.38671875) (0.003433144287109375, 1.388671875) (0.00343071728515625, 1.390625) (0.003424780029296875, 1.392578125) (0.0034154338378906248, 1.39453125) (0.0034028159179687496, 1.396484375) (0.0033870876464843747, 1.3984375) (0.0033684174804687497, 1.400390625) (0.0033470197753906247, 1.40234375) (0.0033231572265625, 1.404296875) (0.003297122802734375, 1.40625) (0.0032692341308593748, 1.408203125) (0.003239776123046875, 1.41015625) (0.003208998291015625, 1.412109375) (0.0031771645507812497, 1.4140625) (0.0031445517578125, 1.416015625) (0.0031114560546875, 1.41796875) (0.003078195556640625, 1.419921875) (0.00304504541015625, 1.421875) (0.0030122285156249998, 1.423828125) (0.00297994921875, 1.42578125) (0.002948385986328125, 1.427734375) (0.002917677734375, 1.4296875) (0.0028879313964843747, 1.431640625) (0.002859189453125, 1.43359375) (0.00283143212890625, 1.435546875) (0.0028046142578125, 1.4375) (0.0027786645507812497, 1.439453125) (0.002753521240234375, 1.44140625) (0.0027291384277343747, 1.443359375) (0.002705439208984375, 1.4453125) (0.0026823203125, 1.447265625) (0.00265965576171875, 1.44921875) (0.0026372900390625, 1.451171875) (0.002615070556640625, 1.453125) (0.00259286328125, 1.455078125) (0.00257051904296875, 1.45703125) (0.00254788818359375, 1.458984375) (0.0025248576660156247, 1.4609375) (0.002501344482421875, 1.462890625) (0.002477313232421875, 1.46484375) (0.00245277685546875, 1.466796875) (0.0024277578125, 1.46875) (0.0024022890624999997, 1.470703125) (0.002376407470703125, 1.47265625) (0.00235014892578125, 1.474609375) (0.0023235629882812497, 1.4765625) (0.0022967119140625, 1.478515625) (0.0022696630859375, 1.48046875) (0.0022424931640625, 1.482421875) (0.0022152871093749998, 1.484375) (0.0021881281738281248, 1.486328125) (0.002161114501953125, 1.48828125) (0.00213435302734375, 1.490234375) (0.0021079228515624997, 1.4921875) (0.002081879638671875, 1.494140625) (0.002056255859375, 1.49609375) (0.0020310556640625, 1.498046875) (0.0020062790527343747, 1.5) (0.0019819228515625, 1.501953125) (0.0019579727783203124, 1.50390625) (0.0019344072265624998, 1.505859375) (0.0019112058105468749, 1.5078125) (0.0018883455810546875, 1.509765625) (0.0018658082275390625, 1.51171875) (0.0018435791015624999, 1.513671875) (0.0018216363525390624, 1.515625) (0.001799954833984375, 1.517578125) (0.0017785056152343748, 1.51953125) (0.001757253173828125, 1.521484375) (0.0017361748046874998, 1.5234375) (0.0017152593994140624, 1.525390625) (0.001694500732421875, 1.52734375) (0.0016739016113281248, 1.529296875) (0.0016534676513671874, 1.53125) (0.0016332052001953124, 1.533203125) (0.0016131279296875, 1.53515625) (0.00159325439453125, 1.537109375) (0.0015735994873046874, 1.5390625) (0.0015541755371093749, 1.541015625) (0.0015349919433593749, 1.54296875) (0.0015160534667968749, 1.544921875) (0.0014973680419921875, 1.546875) (0.001478944580078125, 1.548828125) (0.001460791015625, 1.55078125) (0.00144291552734375, 1.552734375) (0.00142532373046875, 1.5546875) (0.0014080185546875, 1.556640625) (0.0013910029296874999, 1.55859375) (0.0013742786865234375, 1.560546875) (0.001357845458984375, 1.5625) (0.0013417017822265624, 1.564453125) (0.0013258443603515625, 1.56640625) (0.0013102678222656249, 1.568359375) (0.0012949674072265625, 1.5703125) (0.0012799392089843748, 1.572265625) (0.0012651784667968749, 1.57421875) (0.0012506806640625, 1.576171875) (0.0012364405517578125, 1.578125) (0.00122245166015625, 1.580078125) (0.0012087076416015625, 1.58203125) (0.0011952021484375, 1.583984375) (0.0011819278564453124, 1.5859375) (0.0011688763427734374, 1.587890625) (0.001156039306640625, 1.58984375) (0.0011434075927734375, 1.591796875) (0.0011309721679687499, 1.59375) (0.0011187244873046875, 1.595703125) (0.0011066556396484375, 1.59765625) (0.0010947567138671875, 1.599609375) (0.0010830192871093749, 1.6015625) (0.0010714355468749999, 1.603515625) (0.0010599979248046875, 1.60546875) (0.0010486995849609375, 1.607421875) (0.0010375346679687499, 1.609375) (0.0010264979248046874, 1.611328125) (0.0010155848999023438, 1.61328125) (0.0010047925415039062, 1.615234375) (0.000994118408203125, 1.6171875) (0.0009835612182617188, 1.619140625) (0.0009731204833984374, 1.62109375) (0.0009627963867187499, 1.623046875) (0.00095259033203125, 1.625) (0.0009425042724609374, 1.626953125) (0.0009325408325195312, 1.62890625) (0.0009227031249999999, 1.630859375) (0.0009129949951171874, 1.6328125) (0.0009034205322265625, 1.634765625) (0.0008939846801757812, 1.63671875) (0.0008846923217773437, 1.638671875) (0.0008755490112304687, 1.640625) (0.0008665606079101562, 1.642578125) (0.0008577328491210937, 1.64453125) (0.000849071533203125, 1.646484375) (0.0008405828857421875, 1.6484375) (0.000832272705078125, 1.650390625) (0.0008241462402343749, 1.65234375) (0.0008162080078125, 1.654296875) (0.0008084628295898437, 1.65625) (0.0008009142456054687, 1.658203125) (0.0007935651245117187, 1.66015625) (0.0007864178466796875, 1.662109375) (0.0007794736328124999, 1.6640625) (0.0007727325439453124, 1.666015625) (0.00076619482421875, 1.66796875) (0.0007598596191406249, 1.669921875) (0.0007537240600585937, 1.671875) (0.000747784423828125, 1.673828125) (0.0007420356445312499, 1.67578125) (0.0007364705810546875, 1.677734375) (0.0007310814208984375, 1.6796875) (0.0007258587036132813, 1.681640625) (0.0007207900390625, 1.68359375) (0.000715861572265625, 1.685546875) (0.00071105859375, 1.6875) (0.0007063648681640625, 1.689453125) (0.0007017645263671875, 1.69140625) (0.000697240966796875, 1.693359375) (0.0006927760009765625, 1.6953125) (0.000688351318359375, 1.697265625) (0.0006839483642578125, 1.69921875) (0.0006795474243164062, 1.701171875) (0.0006751306762695312, 1.703125) (0.0006706806640625, 1.705078125) (0.0006661745605468749, 1.70703125) (0.0006615914306640625, 1.708984375) (0.0006569089965820312, 1.7109375) (0.0006521043701171875, 1.712890625) (0.000647164306640625, 1.71484375) (0.000642077392578125, 1.716796875) (0.0006368280029296875, 1.71875) (0.0006314030151367187, 1.720703125) (0.0006257916870117187, 1.72265625) (0.0006199820556640625, 1.724609375) (0.00061396923828125, 1.7265625) (0.0006077501220703125, 1.728515625) (0.0006013092041015624, 1.73046875) (0.000594634033203125, 1.732421875) (0.0005877122802734375, 1.734375) (0.0005805303955078125, 1.736328125) (0.000573092041015625, 1.73828125) (0.0005654013671875, 1.740234375) (0.0005574627075195312, 1.7421875) (0.0005492855224609375, 1.744140625) (0.000540866943359375, 1.74609375) (0.0005322034301757813, 1.748046875) (0.0005233067626953125, 1.75) (0.0005141885986328124, 1.751953125) (0.0005048519287109374, 1.75390625) (0.0004953066406249999, 1.755859375) (0.0004855509033203125, 1.7578125) (0.00047558105468749996, 1.759765625) (0.00046543170166015623, 1.76171875) (0.0004551358032226562, 1.763671875) (0.00044472143554687496, 1.765625) (0.000434223876953125, 1.767578125) (0.0004236546020507812, 1.76953125) (0.00041302545166015624, 1.771484375) (0.00040236004638671873, 1.7734375) (0.00039167794799804687, 1.775390625) (0.0003810064697265625, 1.77734375) (0.00037037649536132813, 1.779296875) (0.00035979980468749996, 1.78125) (0.00034928683471679685, 1.783203125) (0.0003388684387207031, 1.78515625) (0.0003285645751953125, 1.787109375) (0.00031840570068359373, 1.7890625) (0.00030842431640625, 1.791015625) (0.000298598388671875, 1.79296875) (0.0002889079895019531, 1.794921875) (0.0002793467102050781, 1.796875) (0.00026990023803710934, 1.798828125) (0.00026057772827148436, 1.80078125) (0.00025138603210449217, 1.802734375) (0.00024230834960937498, 1.8046875) (0.00023332548522949219, 1.806640625) (0.0002244198760986328, 1.80859375) (0.00021556175231933592, 1.810546875) (0.00020672781372070312, 1.8125) (0.00019789421081542967, 1.814453125) (0.00018900971984863282, 1.81640625) (0.00018003749084472654, 1.818359375) (0.00017094557189941407, 1.8203125) (0.0001617061767578125, 1.822265625) (0.00015234176635742187, 1.82421875) (0.00014287322998046874, 1.826171875) (0.000133303955078125, 1.828125) (0.00012363607788085936, 1.830078125) (0.00011385291290283203, 1.83203125) (0.00010393785095214843, 1.833984375) (9.38953857421875e-05, 1.8359375) (8.374086761474609e-05, 1.837890625) (7.34873046875e-05, 1.83984375) (6.317534637451172e-05, 1.841796875) (5.286729049682617e-05, 1.84375) (4.263338470458984e-05, 1.845703125) (3.257099914550781e-05, 1.84765625) (2.275844383239746e-05, 1.849609375) (1.3246711730957031e-05, 1.8515625) (4.068453788757324e-06, 1.853515625) (-4.782034873962402e-06, 1.85546875) (-1.3320194244384765e-05, 1.857421875) (-2.1557601928710936e-05, 1.859375) (-2.949580955505371e-05, 1.861328125) (-3.712631225585938e-05, 1.86328125) (-4.444007110595703e-05, 1.865234375) (-5.143442916870117e-05, 1.8671875) (-5.813317108154297e-05, 1.869140625) (-6.458243560791015e-05, 1.87109375) (-7.087413024902344e-05, 1.873046875) (-7.715757751464843e-05, 1.875) (-8.360135650634765e-05, 1.876953125) (-9.038488006591796e-05, 1.87890625) (-9.768061065673828e-05, 1.880859375) (-0.00010563855743408203, 1.8828125) (-0.0001143846435546875, 1.884765625) (-0.00012402606201171874, 1.88671875) (-0.00013464198303222654, 1.888671875) (-0.00014625936889648436, 1.890625) (-0.0001589342346191406, 1.892578125) (-0.0001727680206298828, 1.89453125) (-0.00018779118347167967, 1.896484375) (-0.00020396752929687499, 1.8984375) (-0.00022111981201171875, 1.900390625) (-0.0002388291015625, 1.90234375) (-0.0002565830078125, 1.904296875) (-0.000273866455078125, 1.90625) (-0.00029005035400390624, 1.908203125) (-0.000304438720703125, 1.91015625) (-0.0003165234985351562, 1.912109375) (-0.0003259642639160156, 1.9140625) (-0.00033278036499023435, 1.916015625) (-0.00033761328124999997, 1.91796875) (-0.00034130172729492184, 1.919921875) (-0.00034464373779296875, 1.921875) (-0.0003485396423339844, 1.923828125) (-0.00035375744628906246, 1.92578125) (-0.00036061801147460934, 1.927734375) (-0.00036913037109375, 1.9296875) (-0.00037862384033203125, 1.931640625) (-0.0003872717895507812, 1.93359375) (-0.00039265615844726563, 1.935546875) (-0.00039222503662109375, 1.9375) (-0.0003832218017578125, 1.939453125) (-0.0003629308471679687, 1.94140625) (-0.00032923785400390624, 1.943359375) (-0.00028034136962890624, 1.9453125) (-0.00021501422119140623, 1.947265625) (-0.00013525390624999998, 1.94921875) (-4.590988540649414e-05, 1.951171875) (4.819784545898437e-05, 1.953125) (0.0001412384796142578, 1.955078125) (0.00023106185913085935, 1.95703125) (0.0003207319030761719, 1.958984375) (0.00040803158569335937, 1.9609375) (0.00048668450927734374, 1.962890625) (0.0005448765258789062, 1.96484375) (0.0005633373413085937, 1.966796875) (0.00053144580078125, 1.96875) (0.000449302734375, 1.970703125) (0.000324077392578125, 1.97265625) (0.00017099636840820311, 1.974609375) (5.017126083374023e-06, 1.9765625) (-0.0001624591064453125, 1.978515625) (-0.0003180519409179687, 1.98046875) (-0.00044670538330078124, 1.982421875) (-0.0005395941772460937, 1.984375) (-0.0005942304077148437, 1.986328125) (-0.0006176027221679687, 1.98828125) (-0.0006260837402343749, 1.990234375) (-0.0006304832763671874, 1.9921875) (-0.000634643310546875, 1.994140625) (-0.0006370153198242188, 1.99609375) (-0.0006312708740234375, 1.998046875) (-0.0006162352294921874, 2.0) (-0.0005952117919921874, 2.001953125) (-0.0005722200317382812, 2.00390625) (-0.000551837890625, 2.005859375) (-0.0005358270263671875, 2.0078125) (-0.0005242530517578125, 2.009765625) (-0.0005175144653320312, 2.01171875) (-0.0005150718994140625, 2.013671875) (-0.0005161206665039062, 2.015625) (-0.0005199083251953124, 2.017578125) (-0.0005251912231445312, 2.01953125) (-0.0005311505737304687, 2.021484375) (-0.0005372583618164062, 2.0234375) (-0.0005424874267578125, 2.025390625) (-0.0005458651123046874, 2.02734375) (-0.0005469701538085937, 2.029296875) (-0.0005456885375976562, 2.03125) (-0.000542315185546875, 2.033203125) (-0.0005375197143554687, 2.03515625) (-0.000531778564453125, 2.037109375) (-0.0005256179809570312, 2.0390625) (-0.0005199158935546875, 2.041015625) (-0.0005153228149414063, 2.04296875) (-0.0005121406860351562, 2.044921875) (-0.0005105009765625, 2.046875) (-0.0005102306518554688, 2.048828125) (-0.0005109902648925782, 2.05078125) (-0.0005125372314453124, 2.052734375) (-0.0005145487060546875, 2.0546875) (-0.0005165728149414062, 2.056640625) (-0.0005183607788085937, 2.05859375) (-0.0005198157958984375, 2.060546875) (-0.0005209019165039062, 2.0625) (-0.0005217194213867187, 2.064453125) (-0.0005223468627929687, 2.06640625) (-0.0005227998046875, 2.068359375) (-0.0005231416015625, 2.0703125) (-0.0005234478759765625, 2.072265625) (-0.0005237686767578125, 2.07421875) (-0.0005241760253906249, 2.076171875) (-0.0005247307739257813, 2.078125) (-0.0005254707641601563, 2.080078125) (-0.00052648486328125, 2.08203125) (-0.0005278593139648437, 2.083984375) (-0.00052964404296875, 2.0859375) (-0.0005318832397460938, 2.087890625) (-0.0005345473022460937, 2.08984375) (-0.000537553955078125, 2.091796875) (-0.0005408394165039062, 2.09375) (-0.0005443267822265625, 2.095703125) (-0.000547932373046875, 2.09765625) (-0.0005515833740234375, 2.099609375) (-0.000555182861328125, 2.1015625) (-0.0005586223144531249, 2.103515625) (-0.0005618050537109375, 2.10546875) (-0.000564606689453125, 2.107421875) (-0.0005668794555664063, 2.109375) (-0.0005684818725585938, 2.111328125) (-0.0005692499389648437, 2.11328125) (-0.0005690462646484375, 2.115234375) (-0.0005677897949218749, 2.1171875) (-0.0005654159545898437, 2.119140625) (-0.0005619078369140625, 2.12109375) (-0.0005572905273437499, 2.123046875) (-0.0005515806884765625, 2.125) (-0.0005448135986328125, 2.126953125) (-0.0005370523071289062, 2.12890625) (-0.0005283558349609375, 2.130859375) (-0.0005187998046875, 2.1328125) (-0.00050848681640625, 2.134765625) (-0.0004975155029296875, 2.13671875) (-0.00048601666259765624, 2.138671875) (-0.0004741622314453125, 2.140625) (-0.0004621144104003906, 2.142578125) (-0.00045004141235351563, 2.14453125) (-0.0004380936584472656, 2.146484375) (-0.0004263753967285156, 2.1484375) (-0.0004149801025390625, 2.150390625) (-0.0004039835205078125, 2.15234375) (-0.0003934329223632812, 2.154296875) (-0.0003833721313476562, 2.15625) (-0.00037383447265625, 2.158203125) (-0.00036482995605468746, 2.16015625) (-0.00035637377929687497, 2.162109375) (-0.00034848236083984374, 2.1640625) (-0.0003411506958007812, 2.166015625) (-0.00033437179565429687, 2.16796875) (-0.00032811804199218747, 2.169921875) (-0.0003223310852050781, 2.171875) (-0.00031696542358398435, 2.173828125) (-0.00031198388671874996, 2.17578125) (-0.0003073576965332031, 2.177734375) (-0.00030308132934570313, 2.1796875) (-0.0002991548461914062, 2.181640625) (-0.0002955806274414062, 2.18359375) (-0.0002923773193359375, 2.185546875) (-0.0002895728454589844, 2.1875) (-0.000287195068359375, 2.189453125) (-0.00028527783203125, 2.19140625) (-0.00028384832763671876, 2.193359375) (-0.0002829236145019531, 2.1953125) (-0.0002825283203125, 2.197265625) (-0.0002826880493164062, 2.19921875) (-0.0002834320068359375, 2.201171875) (-0.00028479754638671874, 2.203125) (-0.0002868100891113281, 2.205078125) (-0.0002894832153320312, 2.20703125) (-0.0002928248596191406, 2.208984375) (-0.0002968335266113281, 2.2109375) (-0.00030150122070312496, 2.212890625) (-0.0003068165283203125, 2.21484375) (-0.00031275735473632814, 2.216796875) (-0.000319291259765625, 2.21875) (-0.0003263855590820312, 2.220703125) (-0.000334005859375, 2.22265625) (-0.00034211755371093747, 2.224609375) (-0.00035068804931640625, 2.2265625) (-0.00035968005371093747, 2.228515625) (-0.00036905206298828123, 2.23046875) (-0.00037876123046874996, 2.232421875) (-0.0003887623291015625, 2.234375) (-0.0003990110168457031, 2.236328125) (-0.00040946420288085936, 2.23828125) (-0.000420077880859375, 2.240234375) (-0.00043080709838867184, 2.2421875) (-0.00044160775756835934, 2.244140625) (-0.0004524363098144531, 2.24609375) (-0.0004632507934570312, 2.248046875) (-0.00047401159667968747, 2.25) (-0.00048467813110351563, 2.251953125) (-0.0004952091674804688, 2.25390625) (-0.0005055643615722656, 2.255859375) (-0.0005157040405273437, 2.2578125) (-0.00052559033203125, 2.259765625) (-0.0005351876220703125, 2.26171875) (-0.00054446142578125, 2.263671875) (-0.0005533790893554688, 2.265625) (-0.0005619104614257813, 2.267578125) (-0.0005700284423828124, 2.26953125) (-0.000577708740234375, 2.271484375) (-0.0005849302368164062, 2.2734375) (-0.0005916741333007813, 2.275390625) (-0.0005979241333007812, 2.27734375) (-0.0006036668701171875, 2.279296875) (-0.000608891845703125, 2.28125) (-0.000613591552734375, 2.283203125) (-0.00061776123046875, 2.28515625) (-0.000621398681640625, 2.287109375) (-0.00062450439453125, 2.2890625) (-0.0006270810546875, 2.291015625) (-0.0006291345214843749, 2.29296875) (-0.0006306727905273438, 2.294921875) (-0.0006317064208984375, 2.296875) (-0.000632247802734375, 2.298828125) (-0.0006323115844726562, 2.30078125) (-0.00063191455078125, 2.302734375) (-0.0006310752563476562, 2.3046875) (-0.0006298145751953125, 2.306640625) (-0.0006281546630859375, 2.30859375) (-0.0006261192626953125, 2.310546875) (-0.0006237330932617187, 2.3125) (-0.0006210224609375, 2.314453125) (-0.0006180145263671874, 2.31640625) (-0.0006147373046875, 2.318359375) (-0.00061121923828125, 2.3203125) (-0.0006074893798828125, 2.322265625) (-0.0006035764770507812, 2.32421875) (-0.000599509521484375, 2.326171875) (-0.0005953175048828125, 2.328125) (-0.0005910285644531249, 2.330078125) (-0.0005866700439453125, 2.33203125) (-0.0005822686157226562, 2.333984375) (-0.0005778497314453125, 2.3359375) (-0.0005734376220703125, 2.337890625) (-0.0005690555419921875, 2.33984375) (-0.0005647252807617187, 2.341796875) (-0.0005604672241210937, 2.34375) (-0.00055630029296875, 2.345703125) (-0.0005522418212890624, 2.34765625) (-0.0005483077392578125, 2.349609375) (-0.0005445122070312499, 2.3515625) (-0.0005408677368164063, 2.353515625) (-0.0005373851928710937, 2.35546875) (-0.0005340733642578124, 2.357421875) (-0.0005309395141601562, 2.359375) (-0.0005279888916015625, 2.361328125) (-0.0005252252197265625, 2.36328125) (-0.0005226505737304688, 2.365234375) (-0.0005202649536132812, 2.3671875) (-0.0005180670166015624, 2.369140625) (-0.0005160536499023437, 2.37109375) (-0.0005142201538085937, 2.373046875) (-0.0005125604858398437, 2.375) (-0.0005110670776367187, 2.376953125) (-0.0005097309265136719, 2.37890625) (-0.0005085417480468749, 2.380859375) (-0.00050748828125, 2.3828125) (-0.0005065580444335937, 2.384765625) (-0.0005057378845214844, 2.38671875) (-0.0005050139770507812, 2.388671875) (-0.0005043717956542969, 2.390625) (-0.0005037965087890625, 2.392578125) (-0.0005032731018066406, 2.39453125) (-0.0005027863769531249, 2.396484375) (-0.0005023212585449218, 2.3984375) (-0.0005018626708984374, 2.400390625) (-0.0005013958740234375, 2.40234375) (-0.0005009062805175781, 2.404296875) (-0.000500379638671875, 2.40625) (-0.0004998023986816406, 2.408203125) (-0.0004991614074707031, 2.41015625) (-0.0004984442749023437, 2.412109375) (-0.0004976392822265625, 2.4140625) (-0.0004967355651855469, 2.416015625) (-0.00049572314453125, 2.41796875) (-0.0004945929260253906, 2.419921875) (-0.0004933367309570313, 2.421875) (-0.0004919476623535156, 2.423828125) (-0.0004904194946289063, 2.42578125) (-0.0004887471313476563, 2.427734375) (-0.0004869263916015625, 2.4296875) (-0.000484954345703125, 2.431640625) (-0.00048282916259765625, 2.43359375) (-0.00048054992675781246, 2.435546875) (-0.000478116943359375, 2.4375) (-0.0004755316162109375, 2.439453125) (-0.00047279669189453124, 2.44140625) (-0.00046991564941406246, 2.443359375) (-0.0004668933715820312, 2.4453125) (-0.0004637355346679687, 2.447265625) (-0.000460448486328125, 2.44921875) (-0.00045703967285156246, 2.451171875) (-0.0004535169982910156, 2.453125) (-0.00044988891601562496, 2.455078125) (-0.00044616452026367186, 2.45703125) (-0.0004423531494140625, 2.458984375) (-0.00043846441650390624, 2.4609375) (-0.0004345084228515625, 2.462890625) (-0.000430495361328125, 2.46484375) (-0.00042643548583984374, 2.466796875) (-0.00042233929443359375, 2.46875) (-0.00041821701049804685, 2.470703125) (-0.00041407897949218746, 2.47265625) (-0.0004099351196289062, 2.474609375) (-0.00040579513549804684, 2.4765625) (-0.0004016683959960937, 2.478515625) (-0.000397563720703125, 2.48046875) (-0.0003934895629882812, 2.482421875) (-0.0003894537963867187, 2.484375) (-0.0003854638671875, 2.486328125) (-0.0003815265502929687, 2.48828125) (-0.0003776481018066406, 2.490234375) (-0.00037383422851562496, 2.4921875) (-0.0003700897827148437, 2.494140625) (-0.0003664188232421875, 2.49609375) (-0.00036282467651367183, 2.498046875) (-0.00035930966186523437, 2.5) (-0.0003558750610351562, 2.501953125) (-0.00035252117919921873, 2.50390625) (-0.00034924710083007813, 2.505859375) (-0.000346051025390625, 2.5078125) (-0.0003429300842285156, 2.509765625) (-0.00033988049316406246, 2.51171875) (-0.00033689752197265624, 2.513671875) (-0.00033397564697265625, 2.515625) (-0.0003311083984375, 2.517578125) (-0.00032828869628906247, 2.51953125) (-0.0003255086975097656, 2.521484375) (-0.0003227597961425781, 2.5234375) (-0.00032003265380859373, 2.525390625) (-0.0003173172607421875, 2.52734375) (-0.00031460290527343746, 2.529296875) (-0.0003118782958984375, 2.53125) (-0.00030913183593749997, 2.533203125) (-0.000306351318359375, 2.53515625) (-0.0003035240783691406, 2.537109375) (-0.00030063739013671875, 2.5390625) (-0.0002976783752441406, 2.541015625) (-0.00029463412475585934, 2.54296875) (-0.0002914917907714844, 2.544921875) (-0.00028823849487304685, 2.546875) (-0.0002848614501953125, 2.548828125) (-0.00028134786987304685, 2.55078125) (-0.0002776853332519531, 2.552734375) (-0.00027386163330078125, 2.5546875) (-0.00026986526489257813, 2.556640625) (-0.00026568490600585934, 2.55859375) (-0.00026131002807617187, 2.560546875) (-0.00025673101806640623, 2.5625) (-0.0002519392700195312, 2.564453125) (-0.00024692742919921873, 2.56640625) (-0.000241689453125, 2.568359375) (-0.000236220458984375, 2.5703125) (-0.00023051666259765624, 2.572265625) (-0.00022457577514648438, 2.57421875) (-0.00021839686584472655, 2.576171875) (-0.0002119804229736328, 2.578125) (-0.0002053283996582031, 2.580078125) (-0.00019844412231445312, 2.58203125) (-0.00019133233642578125, 2.583984375) (-0.00018399949645996094, 2.5859375) (-0.00017645420837402343, 2.587890625) (-0.00016870684814453124, 2.58984375) (-0.00016076947021484374, 2.591796875) (-0.00015265606689453124, 2.59375) (-0.00014438272094726562, 2.595703125) (-0.0001359675750732422, 2.59765625) (-0.00012743115234374998, 2.599609375) (-0.00011879567718505859, 2.6015625) (-0.00011008468627929687, 2.603515625) (-0.00010132345581054686, 2.60546875) (-9.253919219970703e-05, 2.607421875) (-8.376028442382812e-05, 2.609375) (-7.501638793945312e-05, 2.611328125) (-6.63377685546875e-05, 2.61328125) (-5.775439453125e-05, 2.615234375) (-4.9297382354736325e-05, 2.6171875) (-4.099902725219726e-05, 2.619140625) (-3.289185333251953e-05, 2.62109375) (-2.500874900817871e-05, 2.623046875) (-1.7382471084594724e-05, 2.625) (-1.0044835090637206e-05, 2.626953125) (-3.0280051231384277e-06, 2.62890625) (3.6352250576019284e-06, 2.630859375) (9.913742065429686e-06, 2.6328125) (1.5777639389038085e-05, 2.634765625) (2.1200355529785154e-05, 2.63671875) (2.6160547256469725e-05, 2.638671875) (3.0637039184570314e-05, 2.640625) (3.460932159423828e-05, 2.642578125) (3.8057250976562495e-05, 2.64453125) (4.095825958251953e-05, 2.646484375) (4.329462814331054e-05, 2.6484375) (4.505574035644531e-05, 2.650390625) (4.623184204101562e-05, 2.65234375) (4.6815860748291014e-05, 2.654296875) (4.680839538574218e-05, 2.65625) (4.621554565429687e-05, 2.658203125) (4.505803298950195e-05, 2.66015625) (4.337601470947265e-05, 2.662109375) (4.121122360229492e-05, 2.6640625) (3.860734176635742e-05, 2.666015625) (3.560897827148437e-05, 2.66796875) (3.225421905517578e-05, 2.669921875) (2.858987808227539e-05, 2.671875) (2.467043685913086e-05, 2.673828125) (2.0551702499389647e-05, 2.67578125) (1.6297740936279297e-05, 2.677734375) (1.196792984008789e-05, 2.6796875) (7.611678600311279e-06, 2.681640625) (3.285311698913574e-06, 2.68359375) (-9.553065299987792e-07, 2.685546875) (-5.074015140533447e-06, 2.6875) (-9.048101425170898e-06, 2.689453125) (-1.2895191192626953e-05, 2.69140625) (-1.6688167572021485e-05, 2.693359375) (-2.050089073181152e-05, 2.6953125) (-2.4411617279052733e-05, 2.697265625) (-2.8498283386230468e-05, 2.69921875) (-3.28099365234375e-05, 2.701171875) (-3.741979217529297e-05, 2.703125) (-4.2427474975585934e-05, 2.705078125) (-4.792652130126953e-05, 2.70703125) (-5.4021957397460935e-05, 2.708984375) (-6.08006362915039e-05, 2.7109375) (-6.830094146728515e-05, 2.712890625) (-7.66089859008789e-05, 2.71484375) (-8.586091613769531e-05, 2.716796875) (-9.608219909667969e-05, 2.71875) (-0.00010717274475097656, 2.720703125) (-0.00011881678771972656, 2.72265625) (-0.0001304309844970703, 2.724609375) (-0.00014143820190429688, 2.7265625) (-0.00015134855651855467, 2.728515625) (-0.00015958737182617186, 2.73046875) (-0.00016551362609863282, 2.732421875) (-0.00016861688232421875, 2.734375) (-0.000168654541015625, 2.736328125) (-0.00016597688293457032, 2.73828125) (-0.00016150457763671873, 2.740234375) (-0.00015623243713378906, 2.7421875) (-0.00015101089477539061, 2.744140625) (-0.00014657366943359373, 2.74609375) (-0.00014366899108886718, 2.748046875) (-0.00014288420104980468, 2.75) (-0.00014415396118164063, 2.751953125) (-0.00014620819091796874, 2.75390625) (-0.00014682240295410155, 2.755859375) (-0.0001433474884033203, 2.7578125) (-0.00013291091918945312, 2.759765625) (-0.00011282546997070312, 2.76171875) (-8.028314971923827e-05, 2.763671875) (-3.218412780761719e-05, 2.765625) (3.2445663452148436e-05, 2.767578125) (0.00011105120086669921, 2.76953125) (0.00020017816162109375, 2.771484375) (0.0002955811767578125, 2.7734375) (0.0003950137329101562, 2.775390625) (0.0005017573852539063, 2.77734375) (0.00061644287109375, 2.779296875) (0.0007329525146484375, 2.78125) (0.0008399101562499999, 2.783203125) (0.0009173203735351562, 2.78515625) (0.000945458984375, 2.787109375) (0.0009173475341796875, 2.7890625) (0.0008338468017578124, 2.791015625) (0.0007048824462890624, 2.79296875) (0.0005505860595703125, 2.794921875) (0.0003862418212890625, 2.796875) (0.00022718876647949217, 2.798828125) (9.071781921386719e-05, 2.80078125) (-1.7628911972045896e-05, 2.802734375) (-9.542400360107422e-05, 2.8046875) (-0.00014615455627441405, 2.806640625) (-0.00018358311462402343, 2.80859375) (-0.00021449383544921874, 2.810546875) (-0.00024114309692382813, 2.8125) (-0.00026266925048828126, 2.814453125) (-0.00027150219726562497, 2.81640625) (-0.000265684814453125, 2.818359375) (-0.00024861293029785155, 2.8203125) (-0.00022437736511230467, 2.822265625) (-0.0001990337219238281, 2.82421875) (-0.00017604669189453124, 2.826171875) (-0.000155866455078125, 2.828125) (-0.00013940449523925781, 2.830078125) (-0.00012780191802978514, 2.83203125) (-0.00012135877990722655, 2.833984375) (-0.00011987751770019531, 2.8359375) (-0.00012251976013183594, 2.837890625) (-0.00012780235290527344, 2.83984375) (-0.00013464874267578124, 2.841796875) (-0.00014244071960449218, 2.84375) (-0.0001500035400390625, 2.845703125) (-0.00015564439392089843, 2.84765625) (-0.00015833975219726562, 2.849609375) (-0.00015766476440429687, 2.8515625) (-0.00015367202758789062, 2.853515625) (-0.0001470374755859375, 2.85546875) (-0.0001383148193359375, 2.857421875) (-0.00012786676025390624, 2.859375) (-0.00011647261810302734, 2.861328125) (-0.00010521165466308593, 2.86328125) (-9.482669067382812e-05, 2.865234375) (-8.574820709228515e-05, 2.8671875) (-7.80928955078125e-05, 2.869140625) (-7.159859466552734e-05, 2.87109375) (-6.602935791015625e-05, 2.873046875) (-6.121469497680664e-05, 2.875) (-5.6849884033203125e-05, 2.876953125) (-5.2564849853515625e-05, 2.87890625) (-4.810358810424804e-05, 2.880859375) (-4.333558654785156e-05, 2.8828125) (-3.8241455078125e-05, 2.884765625) (-3.290885925292968e-05, 2.88671875) (-2.7419164657592773e-05, 2.888671875) (-2.1816604614257812e-05, 2.890625) (-1.6144210815429688e-05, 2.892578125) (-1.0443148612976073e-05, 2.89453125) (-4.713817596435546e-06, 2.896484375) (1.085833191871643e-06, 2.8984375) (6.9848208427429195e-06, 2.900390625) (1.3003855705261229e-05, 2.90234375) (1.9152801513671876e-05, 2.904296875) (2.540839385986328e-05, 2.90625) (3.1764265060424804e-05, 2.908203125) (3.823789596557617e-05, 2.91015625) (4.482325744628906e-05, 2.912109375) (5.151261520385742e-05, 2.9140625) (5.830430603027343e-05, 2.916015625) (6.51820068359375e-05, 2.91796875) (7.214298248291015e-05, 2.919921875) (7.919608306884765e-05, 2.921875) (8.631808471679687e-05, 2.923828125) (9.346741485595703e-05, 2.92578125) (0.0001005933609008789, 2.927734375) (0.00010762091827392577, 2.9296875) (0.00011449844360351562, 2.931640625) (0.00012120289611816406, 2.93359375) (0.00012770719146728516, 2.935546875) (0.00013399459838867186, 2.9375) (0.00014004873657226562, 2.939453125) (0.00014584257507324218, 2.94140625) (0.0001513675537109375, 2.943359375) (0.00015663119506835937, 2.9453125) (0.00016163571166992187, 2.947265625) (0.0001663857421875, 2.94921875) (0.0001708854217529297, 2.951171875) (0.0001751330108642578, 2.953125) (0.0001791439208984375, 2.955078125) (0.00018294848632812499, 2.95703125) (0.00018657955932617186, 2.958984375) (0.0001900778350830078, 2.9609375) (0.00019347557067871094, 2.962890625) (0.00019679229736328124, 2.96484375) (0.00020004843139648438, 2.966796875) (0.00020326193237304687, 2.96875) (0.00020644688415527343, 2.970703125) (0.00020961747741699217, 2.97265625) (0.00021278038024902344, 2.974609375) (0.00021593310546875, 2.9765625) (0.00021907623291015624, 2.978515625) (0.00022221240234374998, 2.98046875) (0.0002253433380126953, 2.982421875) (0.000228472412109375, 2.984375) (0.00023159765624999998, 2.986328125) (0.00023471107482910154, 2.98828125) (0.00023780422973632812, 2.990234375) (0.00024086773681640625, 2.9921875) (0.00024389202880859375, 2.994140625) (0.00024686825561523435, 2.99609375) (0.0002497862548828125, 2.998046875) (0.00025263421630859377, 3.0) (0.0002554010620117187, 3.001953125) (0.00025807611083984375, 3.00390625) (0.0002606487121582031, 3.005859375) (0.00026310873413085936, 3.0078125) (0.0002654439697265625, 3.009765625) (0.0002676401672363281, 3.01171875) (0.0002696824035644531, 3.013671875) (0.00027155511474609374, 3.015625) (0.00027324264526367185, 3.017578125) (0.0002747296142578125, 3.01953125) (0.0002760001525878906, 3.021484375) (0.00027703793334960935, 3.0234375) (0.00027782757568359375, 3.025390625) (0.00027835455322265624, 3.02734375) (0.00027860519409179685, 3.029296875) (0.000278566650390625, 3.03125) (0.0002782266845703125, 3.033203125) (0.00027757373046875, 3.03515625) (0.00027659716796875, 3.037109375) (0.0002752877807617187, 3.0390625) (0.0002736376342773437, 3.041015625) (0.0002716398010253906, 3.04296875) (0.0002692887268066406, 3.044921875) (0.00026658013916015626, 3.046875) (0.00026351129150390626, 3.048828125) (0.00026008108520507813, 3.05078125) (0.0002562900390625, 3.052734375) (0.0002521400909423828, 3.0546875) (0.00024763494873046875, 3.056640625) (0.00024277995300292968, 3.05859375) (0.0002375822296142578, 3.060546875) (0.0002320507049560547, 3.0625) (0.0002261959533691406, 3.064453125) (0.00022002996826171875, 3.06640625) (0.00021356643676757813, 3.068359375) (0.00020682052612304688, 3.0703125) (0.00019980888366699217, 3.072265625) (0.00019254960632324219, 3.07421875) (0.0001850619201660156, 3.076171875) (0.00017736599731445313, 3.078125) (0.00016948309326171875, 3.080078125) (0.00016143528747558593, 3.08203125) (0.00015324549865722655, 3.083984375) (0.00014493736267089842, 3.0859375) (0.00013653480529785155, 3.087890625) (0.00012806198120117186, 3.08984375) (0.00011954327392578125, 3.091796875) (0.00011100316619873046, 3.09375) (0.0001024661636352539, 3.095703125) (9.395672607421874e-05, 3.09765625) (8.549897003173827e-05, 3.099609375) (7.71166000366211e-05, 3.1015625) (6.883287048339844e-05, 3.103515625) (6.067053985595703e-05, 3.10546875) (5.265164947509765e-05, 3.107421875) (4.4797496795654295e-05, 3.109375) (3.712837982177734e-05, 3.111328125) (2.9663394927978514e-05, 3.11328125) (2.242043876647949e-05, 3.115234375) (1.5416059494018554e-05, 3.1171875) (8.665336608886719e-06, 3.119140625) (2.1817669868469236e-06, 3.12109375) (-4.02286434173584e-06, 3.123046875) (-9.938559532165527e-06, 3.125) (-1.5557100296020506e-05, 3.126953125) (-2.0872020721435546e-05, 3.12890625) (-2.587862205505371e-05, 3.130859375) (-3.057393455505371e-05, 3.1328125) (-3.4956710815429685e-05, 3.134765625) (-3.902737045288086e-05, 3.13671875) (-4.2787841796875e-05, 3.138671875) (-4.624150848388672e-05, 3.140625) (-4.939310073852539e-05, 3.142578125) (-5.224863052368164e-05, 3.14453125) (-5.481531524658203e-05, 3.146484375) (-5.710149383544922e-05, 3.1484375) (-5.911648559570312e-05, 3.150390625) (-6.087047576904297e-05, 3.15234375) (-6.237445068359375e-05, 3.154296875) (-6.364012908935546e-05, 3.15625) (-6.467984771728516e-05, 3.158203125) (-6.550657653808593e-05, 3.16015625) (-6.613371276855468e-05, 3.162109375) (-6.657503509521484e-05, 3.1640625) (-6.684458923339843e-05, 3.166015625) (-6.695672607421875e-05, 3.16796875) (-6.69258575439453e-05, 3.169921875) (-6.676651763916015e-05, 3.171875) (-6.649309539794921e-05, 3.173828125) (-6.611978912353515e-05, 3.17578125) (-6.566043853759765e-05, 3.177734375) (-6.512846374511718e-05, 3.1796875) (-6.45367431640625e-05, 3.181640625) (-6.38974609375e-05, 3.18359375) (-6.32220458984375e-05, 3.185546875) (-6.252104187011719e-05, 3.1875) (-6.180409240722656e-05, 3.189453125) (-6.107986450195313e-05, 3.19140625) (-6.035614776611328e-05, 3.193359375) (-5.963971710205078e-05, 3.1953125) (-5.893645095825195e-05, 3.197265625) (-5.8251285552978515e-05, 3.19921875) (-5.758829116821289e-05, 3.201171875) (-5.6950771331787106e-05, 3.203125) (-5.6341312408447264e-05, 3.205078125) (-5.576182556152344e-05, 3.20703125) (-5.521361923217773e-05, 3.208984375) (-5.4697479248046875e-05, 3.2109375) (-5.4213737487792966e-05, 3.212890625) (-5.376234436035156e-05, 3.21484375) (-5.3342952728271484e-05, 3.216796875) (-5.295494842529297e-05, 3.21875) (-5.259745025634765e-05, 3.220703125) (-5.226937866210937e-05, 3.22265625) (-5.19694595336914e-05, 3.224609375) (-5.16962661743164e-05, 3.2265625) (-5.144826507568359e-05, 3.228515625) (-5.122376251220703e-05, 3.23046875) (-5.102094268798828e-05, 3.232421875) (-5.083791732788086e-05, 3.234375) (-5.067275238037109e-05, 3.236328125) (-5.052354049682617e-05, 3.23828125) (-5.0388450622558595e-05, 3.240234375) (-5.026573944091797e-05, 3.2421875) (-5.015380477905273e-05, 3.244140625) (-5.005124282836914e-05, 3.24609375) (-4.9956901550292964e-05, 3.248046875) (-4.986994934082031e-05, 3.25) (-4.978985977172851e-05, 3.251953125) (-4.971644592285156e-05, 3.25390625) (-4.964984893798828e-05, 3.255859375) (-4.959054565429687e-05, 3.2578125) (-4.9539360046386715e-05, 3.259765625) (-4.94974365234375e-05, 3.26171875) (-4.946621704101562e-05, 3.263671875) (-4.944734191894531e-05, 3.265625) (-4.944257354736328e-05, 3.267578125) (-4.945375442504883e-05, 3.26953125) (-4.948273468017578e-05, 3.271484375) (-4.953131866455078e-05, 3.2734375) (-4.960114669799804e-05, 3.275390625) (-4.9693611145019526e-05, 3.27734375) (-4.980977630615234e-05, 3.279296875) (-4.995037841796875e-05, 3.28125) (-5.011582565307617e-05, 3.283203125) (-5.030616378784179e-05, 3.28515625) (-5.052105712890625e-05, 3.287109375) (-5.075975036621093e-05, 3.2890625) (-5.1021121978759767e-05, 3.291015625) (-5.130369186401367e-05, 3.29296875) (-5.1605690002441405e-05, 3.294921875) (-5.192501068115234e-05, 3.296875) (-5.225918960571289e-05, 3.298828125) (-5.2605426788330075e-05, 3.30078125) (-5.296059799194336e-05, 3.302734375) (-5.332130050659179e-05, 3.3046875) (-5.368391036987305e-05, 3.306640625) (-5.40445556640625e-05, 3.30859375) (-5.43991470336914e-05, 3.310546875) (-5.4743331909179686e-05, 3.3125) (-5.50724983215332e-05, 3.314453125) (-5.53818130493164e-05, 3.31640625) (-5.566623306274414e-05, 3.318359375) (-5.592046737670898e-05, 3.3203125) (-5.613898086547851e-05, 3.322265625) (-5.6315910339355464e-05, 3.32421875) (-5.6445117950439454e-05, 3.326171875) (-5.6520362854003904e-05, 3.328125) (-5.653535461425781e-05, 3.330078125) (-5.64837646484375e-05, 3.33203125) (-5.635934066772461e-05, 3.333984375) (-5.615592956542968e-05, 3.3359375) (-5.586755752563476e-05, 3.337890625) (-5.5488693237304686e-05, 3.33984375) (-5.50142822265625e-05, 3.341796875) (-5.443967437744141e-05, 3.34375) (-5.376062393188476e-05, 3.345703125) (-5.2973415374755854e-05, 3.34765625) (-5.2074890136718745e-05, 3.349609375) (-5.106246948242187e-05, 3.3515625) (-4.9934238433837886e-05, 3.353515625) (-4.8688789367675776e-05, 3.35546875) (-4.7325218200683594e-05, 3.357421875) (-4.584328460693359e-05, 3.359375) (-4.424343109130859e-05, 3.361328125) (-4.252675628662109e-05, 3.36328125) (-4.0694995880126954e-05, 3.365234375) (-3.875044250488281e-05, 3.3671875) (-3.6695793151855467e-05, 3.369140625) (-3.453416061401367e-05, 3.37109375) (-3.22690544128418e-05, 3.373046875) (-2.990439987182617e-05, 3.375) (-2.7444576263427734e-05, 3.376953125) (-2.4894351959228515e-05, 3.37890625) (-2.2258872985839843e-05, 3.380859375) (-1.9543739318847654e-05, 3.3828125) (-1.6755050659179686e-05, 3.384765625) (-1.3899623870849609e-05, 3.38671875) (-1.098505401611328e-05, 3.388671875) (-8.01933193206787e-06, 3.390625) (-5.010834217071533e-06, 3.392578125) (-1.9684871435165405e-06, 3.39453125) (1.0983593463897705e-06, 3.396484375) (4.179835319519042e-06, 3.3984375) (7.265571594238281e-06, 3.400390625) (1.0345132827758788e-05, 3.40234375) (1.3408084869384765e-05, 3.404296875) (1.6443531036376952e-05, 3.40625) (1.9440095901489258e-05, 3.408203125) (2.2386363983154295e-05, 3.41015625) (2.527083969116211e-05, 3.412109375) (2.808181381225586e-05, 3.4140625) (3.080769729614258e-05, 3.416015625) (3.343632125854492e-05, 3.41796875) (3.5954776763916014e-05, 3.419921875) (3.8350429534912105e-05, 3.421875) (4.061095809936523e-05, 3.423828125) (4.27239990234375e-05, 3.42578125) (4.467741012573242e-05, 3.427734375) (4.6459487915039063e-05, 3.4296875) (4.8058551788330074e-05, 3.431640625) (4.9463973999023434e-05, 3.43359375) (5.0666358947753904e-05, 3.435546875) (5.165657043457031e-05, 3.4375) (5.2426193237304687e-05, 3.439453125) (5.296671676635742e-05, 3.44140625) (5.3269515991210935e-05, 3.443359375) (5.332656097412109e-05, 3.4453125) (5.313018798828125e-05, 3.447265625) (5.267414474487305e-05, 3.44921875) (5.195405578613281e-05, 3.451171875) (5.096658325195312e-05, 3.453125) (4.970954513549804e-05, 3.455078125) (4.8184379577636715e-05, 3.45703125) (4.639601898193359e-05, 3.458984375) (4.4350658416748044e-05, 3.4609375) (4.205655670166015e-05, 3.462890625) (3.9518905639648435e-05, 3.46484375) (3.6738834381103516e-05, 3.466796875) (3.372074127197265e-05, 3.46875) (3.047178268432617e-05, 3.470703125) (2.7002159118652343e-05, 3.47265625) (2.332617950439453e-05, 3.474609375) (1.9462066650390625e-05, 3.4765625) (1.5432832717895507e-05, 3.478515625) (1.1270290374755859e-05, 3.48046875) (7.016041278839111e-06, 3.482421875) (2.7124433517456053e-06, 3.484375) (-1.5976701974868775e-06, 3.486328125) (-5.875876426696777e-06, 3.48828125) (-1.0090927124023437e-05, 3.490234375) (-1.4208169937133789e-05, 3.4921875) (-1.8191072463989256e-05, 3.494140625) (-2.1994930267333983e-05, 3.49609375) (-2.556540870666504e-05, 3.498046875) (-2.8853317260742186e-05, 3.5) (-3.1814439773559566e-05, 3.501953125) (-3.441140747070312e-05, 3.50390625) (-3.661371612548828e-05, 3.505859375) (-3.840508270263672e-05, 3.5078125) (-3.9791007995605465e-05, 3.509765625) (-4.0803939819335936e-05, 3.51171875) (-4.1511661529541015e-05, 3.513671875) (-4.1981273651123046e-05, 3.515625) (-4.226972961425781e-05, 3.517578125) (-4.2439048767089845e-05, 3.51953125) (-4.255118179321289e-05, 3.521484375) (-4.2684326171875e-05, 3.5234375) (-4.293730163574219e-05, 3.525390625) (-4.341794204711914e-05, 3.52734375) (-4.4213516235351564e-05, 3.529296875) (-4.543283081054687e-05, 3.53125) (-4.722578430175781e-05, 3.533203125) (-4.965962982177734e-05, 3.53515625) (-5.273840713500976e-05, 3.537109375) (-5.635078048706054e-05, 3.5390625) (-6.017054748535156e-05, 3.541015625) (-6.383119583129883e-05, 3.54296875) (-6.69837417602539e-05, 3.544921875) (-6.918065643310546e-05, 3.546875) (-6.993463897705078e-05, 3.548828125) (-6.892777252197265e-05, 3.55078125) (-6.595893096923827e-05, 3.552734375) (-6.116588973999024e-05, 3.5546875) (-5.5233112335205074e-05, 3.556640625) (-4.8850734710693355e-05, 3.55859375) (-4.267829895019531e-05, 3.560546875) (-3.750819778442383e-05, 3.5625) (-3.398330307006836e-05, 3.564453125) (-3.254793548583984e-05, 3.56640625) (-3.345133209228516e-05, 3.568359375) (-3.6124755859375e-05, 3.5703125) (-3.8944091796875e-05, 3.572265625) (-3.9969657897949216e-05, 3.57421875) (-3.6974971771240234e-05, 3.576171875) (-2.7560640335083006e-05, 3.578125) (-9.376347541809082e-06, 3.580078125) (2.0017684936523438e-05, 3.58203125) (6.285097122192383e-05, 3.583984375) (0.00012048605346679687, 3.5859375) (0.00019133065795898436, 3.587890625) (0.0002713276977539062, 3.58984375) (0.00035638360595703124, 3.591796875) (0.000441743896484375, 3.59375) (0.00052642041015625, 3.595703125) (0.0006130133056640625, 3.59765625) (0.0006982153930664062, 3.599609375) (0.0007752567749023437, 3.6015625) (0.0008309300537109375, 3.603515625) (0.0008460261230468749, 3.60546875) (0.0008133430175781249, 3.607421875) (0.00073512158203125, 3.609375) (0.0006219530029296875, 3.611328125) (0.0004919507446289062, 3.61328125) (0.0003546217346191406, 3.615234375) (0.00021587344360351563, 3.6171875) (8.262791442871093e-05, 3.619140625) (-3.7217269897460934e-05, 3.62109375) (-0.0001310423583984375, 3.623046875) (-0.00019074349975585936, 3.625) (-0.00021757913208007813, 3.626953125) (-0.00022072874450683593, 3.62890625) (-0.00021255584716796874, 3.630859375) (-0.00020093588256835936, 3.6328125) (-0.00018809368896484374, 3.634765625) (-0.0001726820373535156, 3.63671875) (-0.00015401336669921875, 3.638671875) (-0.00013408229064941406, 3.640625) (-0.00011611856079101562, 3.642578125) (-0.00010330171966552735, 3.64453125) (-9.673385620117188e-05, 3.646484375) (-9.58075942993164e-05, 3.6484375) (-9.8830078125e-05, 3.650390625) (-0.0001030641632080078, 3.65234375) (-0.00010629338073730469, 3.654296875) (-0.00010701864624023436, 3.65625) (-0.00010428861236572265, 3.658203125) (-9.802571105957031e-05, 3.66015625) (-8.845559692382812e-05, 3.662109375) (-7.571260070800781e-05, 3.6640625) (-6.055181884765625e-05, 3.666015625) (-4.4282711029052734e-05, 3.66796875) (-2.801346778869629e-05, 3.669921875) (-1.269394302368164e-05, 3.671875) (1.105821132659912e-06, 3.673828125) (1.3315998077392578e-05, 3.67578125) (2.385359764099121e-05, 3.677734375) (3.252527618408203e-05, 3.6796875) (3.9425045013427735e-05, 3.681640625) (4.489700698852539e-05, 3.68359375) (4.9262794494628903e-05, 3.685546875) (5.2862594604492186e-05, 3.6875) (5.5905883789062497e-05, 3.689453125) (5.842709732055664e-05, 3.69140625) (6.0534912109374994e-05, 3.693359375) (6.242091369628905e-05, 3.6953125) (6.423777770996094e-05, 3.697265625) (6.608746337890624e-05, 3.69921875) (6.804589843749999e-05, 3.701171875) (7.01518096923828e-05, 3.703125) (7.248088836669921e-05, 3.705078125) (7.516899108886718e-05, 3.70703125) (7.832261657714843e-05, 3.708984375) (8.201962280273437e-05, 3.7109375) (8.629283142089843e-05, 3.712890625) (9.112625885009766e-05, 3.71484375) (9.650432586669921e-05, 3.716796875) (0.00010240996551513672, 3.71875) (0.00010881124114990233, 3.720703125) (0.00011565800476074218, 3.72265625) (0.00012288029479980467, 3.724609375) (0.0001303885803222656, 3.7265625) (0.00013810154724121094, 3.728515625) (0.00014596145629882813, 3.73046875) (0.00015391041564941405, 3.732421875) (0.00016189276123046873, 3.734375) (0.0001698385009765625, 3.736328125) (0.00017765704345703125, 3.73828125) (0.00018527532958984374, 3.740234375) (0.00019263800048828123, 3.7421875) (0.00019970993041992186, 3.744140625) (0.00020647523498535156, 3.74609375) (0.00021291882324218748, 3.748046875) (0.00021902845764160155, 3.75) (0.00022480461120605468, 3.751953125) (0.00023026222229003906, 3.75390625) (0.00023542337036132813, 3.755859375) (0.0002403172149658203, 3.7578125) (0.00024496762084960937, 3.759765625) (0.00024938961791992186, 3.76171875) (0.00025360494995117186, 3.763671875) (0.000257638916015625, 3.765625) (0.00026152508544921875, 3.767578125) (0.00026530661010742187, 3.76953125) (0.00026901748657226564, 3.771484375) (0.0002726831665039062, 3.7734375) (0.000276324951171875, 3.775390625) (0.000279958740234375, 3.77734375) (0.0002836011047363281, 3.779296875) (0.0002872694396972656, 3.78125) (0.0002909748229980469, 3.783203125) (0.00029472247314453123, 3.78515625) (0.00029851788330078125, 3.787109375) (0.0003023657531738281, 3.7890625) (0.00030627288818359374, 3.791015625) (0.00031024822998046875, 3.79296875) (0.00031429635620117184, 3.794921875) (0.0003184193420410156, 3.796875) (0.00032261495971679685, 3.798828125) (0.00032687628173828123, 3.80078125) (0.000331199462890625, 3.802734375) (0.00033558203125, 3.8046875) (0.0003400239562988281, 3.806640625) (0.0003445294799804687, 3.80859375) (0.0003490950622558594, 3.810546875) (0.0003537091369628906, 3.8125) (0.0003583574523925781, 3.814453125) (0.0003630208740234375, 3.81640625) (0.00036768017578124997, 3.818359375) (0.00037231933593749996, 3.8203125) (0.0003769144592285156, 3.822265625) (0.0003814345092773437, 3.82421875) (0.00038585656738281246, 3.826171875) (0.00039016217041015625, 3.828125) (0.00039434408569335934, 3.830078125) (0.00039840975952148435, 3.83203125) (0.00040235345458984373, 3.833984375) (0.00040615954589843747, 3.8359375) (0.00040980426025390626, 3.837890625) (0.00041325030517578123, 3.83984375) (0.0004164758605957031, 3.841796875) (0.00041947625732421874, 3.84375) (0.0004222490844726562, 3.845703125) (0.00042479925537109375, 3.84765625) (0.00042713134765625, 3.849609375) (0.00042924215698242183, 3.8515625) (0.00043114495849609375, 3.853515625) (0.00043286996459960934, 3.85546875) (0.0004344218139648437, 3.857421875) (0.0004357882690429687, 3.859375) (0.00043693222045898436, 3.861328125) (0.0004377834777832031, 3.86328125) (0.00043830267333984374, 3.865234375) (0.0004384786376953125, 3.8671875) (0.0004383096923828125, 3.869140625) (0.0004378146362304687, 3.87109375) (0.0004369923706054687, 3.873046875) (0.0004358169860839844, 3.875) (0.00043426333618164063, 3.876953125) (0.00043230218505859374, 3.87890625) (0.00042989532470703124, 3.880859375) (0.00042700640869140625, 3.8828125) (0.000423583251953125, 3.884765625) (0.0004195552368164062, 3.88671875) (0.0004148938903808594, 3.888671875) (0.00040960482788085934, 3.890625) (0.0004037255859375, 3.892578125) (0.000397338134765625, 3.89453125) (0.0003904873657226562, 3.896484375) (0.0003831820068359375, 3.8984375) (0.0003754263305664062, 3.900390625) (0.00036720751953125, 3.90234375) (0.0003585352172851562, 3.904296875) (0.0003494495849609375, 3.90625) (0.00033999786376953125, 3.908203125) (0.00033023626708984376, 3.91015625) (0.00032024975585937497, 3.912109375) (0.00031014239501953126, 3.9140625) (0.0003000271301269531, 3.916015625) (0.0002900299682617187, 3.91796875) (0.0002802373352050781, 3.919921875) (0.00027069879150390624, 3.921875) (0.00026144134521484375, 3.923828125) (0.00025245834350585934, 3.92578125) (0.000243771728515625, 3.927734375) (0.00023543211364746093, 3.9296875) (0.000227495849609375, 3.931640625) (0.00022003323364257812, 3.93359375) (0.00021309713745117187, 3.935546875) (0.00020671563720703123, 3.9375) (0.00020089962768554687, 3.939453125) (0.0001956433563232422, 3.94140625) (0.00019090325927734373, 3.943359375) (0.00018660232543945312, 3.9453125) (0.00018266259765625, 3.947265625) (0.00017900155639648436, 3.94921875) (0.00017556028747558593, 3.951171875) (0.00017230674743652343, 3.953125) (0.0001692176055908203, 3.955078125) (0.000166283447265625, 3.95703125) (0.00016348263549804688, 3.958984375) (0.00016078057861328125, 3.9609375) (0.00015813121032714843, 3.962890625) (0.0001554742431640625, 3.96484375) (0.00015275556945800782, 3.966796875) (0.00014993046569824217, 3.96875) (0.00014697012329101562, 3.970703125) (0.00014386093139648437, 3.97265625) (0.00014061477661132812, 3.974609375) (0.0001372687225341797, 3.9765625) (0.00013385586547851562, 3.978515625) (0.00013040692138671875, 3.98046875) (0.00012694083404541016, 3.982421875) (0.00012346007537841796, 3.984375) (0.00011996265411376953, 3.986328125) (0.00011644123840332031, 3.98828125) (0.00011288644409179687, 3.990234375) (0.00010928759765625, 3.9921875) (0.00010564342498779297, 3.994140625) (0.0001019622573852539, 3.99609375) (9.82524642944336e-05, 3.998046875) (9.452301025390625e-05, 4.0) (9.077429962158203e-05, 4.001953125) (8.699847412109374e-05, 4.00390625) (8.317887878417968e-05, 4.005859375) (7.928945922851563e-05, 4.0078125) (7.530680847167969e-05, 4.009765625) (7.121017456054688e-05, 4.01171875) (6.698399353027344e-05, 4.013671875) (6.262030792236327e-05, 4.015625) (5.811539077758789e-05, 4.017578125) (5.346940994262695e-05, 4.01953125) (4.868794250488281e-05, 4.021484375) (4.3781600952148436e-05, 4.0234375) (3.875797653198242e-05, 4.025390625) (3.362179946899414e-05, 4.02734375) (2.8377334594726562e-05, 4.029296875) (2.3027118682861327e-05, 4.03125) (1.757651901245117e-05, 4.033203125) (1.2033718109130858e-05, 4.03515625) (6.407902717590332e-06, 4.037109375) (7.095574140548705e-07, 4.0390625) (-5.050566673278809e-06, 4.041015625) (-1.086177349090576e-05, 4.04296875) (-1.671444320678711e-05, 4.044921875) (-2.260039710998535e-05, 4.046875) (-2.8513412475585937e-05, 4.048828125) (-3.444915771484375e-05, 4.05078125) (-4.040512466430664e-05, 4.052734375) (-4.638065719604492e-05, 4.0546875) (-5.237500762939453e-05, 4.056640625) (-5.838734436035156e-05, 4.05859375) (-6.44168930053711e-05, 4.060546875) (-7.046251678466796e-05, 4.0625) (-7.652360534667968e-05, 4.064453125) (-8.260005950927734e-05, 4.06640625) (-8.869192504882813e-05, 4.068359375) (-9.479934692382812e-05, 4.0703125) (-0.00010092340087890625, 4.072265625) (-0.00010706593322753906, 4.07421875) (-0.00011322919464111328, 4.076171875) (-0.00011941596984863281, 4.078125) (-0.00012562905883789063, 4.080078125) (-0.00013187112426757812, 4.08203125) (-0.0001381451721191406, 4.083984375) (-0.00014445443725585936, 4.0859375) (-0.00015080218505859373, 4.087890625) (-0.00015719155883789062, 4.08984375) (-0.0001636256408691406, 4.091796875) (-0.00017010725402832031, 4.09375) (-0.0001766388702392578, 4.095703125) (-0.00018322257995605467, 4.09765625) (-0.00018985980224609373, 4.099609375) (-0.00019655123901367186, 4.1015625) (-0.0002032967834472656, 4.103515625) (-0.00021009552001953125, 4.10546875) (-0.00021694572448730467, 4.107421875) (-0.00022384487915039062, 4.109375) (-0.00023078968811035157, 4.111328125) (-0.00023777630615234375, 4.11328125) (-0.0002447999572753906, 4.115234375) (-0.000251855224609375, 4.1171875) (-0.0002589360961914062, 4.119140625) (-0.0002660357055664062, 4.12109375) (-0.00027314678955078124, 4.123046875) (-0.00028026153564453124, 4.125) (-0.0002873717651367187, 4.126953125) (-0.0002944688415527344, 4.12890625) (-0.0003015438232421875, 4.130859375) (-0.00030858764648437496, 4.1328125) (-0.00031559100341796876, 4.134765625) (-0.0003225444946289062, 4.13671875) (-0.0003294386291503906, 4.138671875) (-0.00033626400756835937, 4.140625) (-0.0003430111999511719, 4.142578125) (-0.00034967071533203124, 4.14453125) (-0.0003562333068847656, 4.146484375) (-0.00036268994140624996, 4.1484375) (-0.00036903173828124996, 4.150390625) (-0.0003752501831054687, 4.15234375) (-0.00038133712768554685, 4.154296875) (-0.00038728485107421875, 4.15625) (-0.00039308642578125, 4.158203125) (-0.00039873571777343747, 4.16015625) (-0.0004042271728515625, 4.162109375) (-0.0004095562133789062, 4.1640625) (-0.00041471896362304687, 4.166015625) (-0.0004197125244140625, 4.16796875) (-0.0004245346069335937, 4.169921875) (-0.0004291838989257812, 4.171875) (-0.00043365948486328123, 4.173828125) (-0.0004379609680175781, 4.17578125) (-0.0004420886535644531, 4.177734375) (-0.0004460433654785156, 4.1796875) (-0.00044982659912109373, 4.181640625) (-0.0004534405822753906, 4.18359375) (-0.00045688787841796874, 4.185546875) (-0.00046017160034179683, 4.1875) (-0.0004632952880859375, 4.189453125) (-0.00046626269531249996, 4.19140625) (-0.0004690779418945312, 4.193359375) (-0.0004717454223632812, 4.1953125) (-0.00047426937866210935, 4.197265625) (-0.00047665417480468746, 4.19921875) (-0.00047890405273437497, 4.201171875) (-0.00048102328491210933, 4.203125) (-0.00048301611328124995, 4.205078125) (-0.00048488720703125, 4.20703125) (-0.0004866408996582031, 4.208984375) (-0.0004882814941406249, 4.2109375) (-0.0004898133850097656, 4.212890625) (-0.0004912409362792968, 4.21484375) (-0.0004925684814453125, 4.216796875) (-0.0004938003540039062, 4.21875) (-0.0004949403686523437, 4.220703125) (-0.0004959918518066406, 4.22265625) (-0.0004969581909179688, 4.224609375) (-0.0004978427734375, 4.2265625) (-0.0004986488342285156, 4.228515625) (-0.0004993794860839844, 4.23046875) (-0.0005000378723144531, 4.232421875) (-0.0005006276245117187, 4.234375) (-0.0005011530456542968, 4.236328125) (-0.0005016196899414062, 4.23828125) (-0.0005020334167480468, 4.240234375) (-0.0005024000854492187, 4.2421875) (-0.0005027260131835938, 4.244140625) (-0.0005030177612304688, 4.24609375) (-0.0005032819213867187, 4.248046875) (-0.0005035254211425781, 4.25) (-0.0005037542419433594, 4.251953125) (-0.0005039738159179687, 4.25390625) (-0.0005041896362304687, 4.255859375) (-0.0005044071044921875, 4.2578125) (-0.000504633056640625, 4.259765625) (-0.0005048752746582031, 4.26171875) (-0.0005051419372558594, 4.263671875) (-0.0005054417724609375, 4.265625) (-0.000505783203125, 4.267578125) (-0.000506173583984375, 4.26953125) (-0.0005066204833984374, 4.271484375) (-0.0005071314697265625, 4.2734375) (-0.0005077111206054687, 4.275390625) (-0.0005083613891601562, 4.27734375) (-0.0005090842895507813, 4.279296875) (-0.000509881103515625, 4.28125) (-0.0005107577514648437, 4.283203125) (-0.0005117262878417968, 4.28515625) (-0.0005127957153320313, 4.287109375) (-0.000513972412109375, 4.2890625) (-0.0005152597656249999, 4.291015625) (-0.0005166563110351562, 4.29296875) (-0.0005181561279296874, 4.294921875) (-0.0005197476806640624, 4.296875) (-0.0005214091796874999, 4.298828125) (-0.0005231077880859375, 4.30078125) (-0.00052480908203125, 4.302734375) (-0.0005264776611328125, 4.3046875) (-0.00052808349609375, 4.306640625) (-0.0005296047973632812, 4.30859375) (-0.000531015625, 4.310546875) (-0.000532288818359375, 4.3125) (-0.0005333878173828124, 4.314453125) (-0.0005342647705078125, 4.31640625) (-0.0005348787231445313, 4.318359375) (-0.000535196044921875, 4.3203125) (-0.0005351905517578125, 4.322265625) (-0.0005348463134765625, 4.32421875) (-0.0005341644287109375, 4.326171875) (-0.00053316796875, 4.328125) (-0.0005319107055664062, 4.330078125) (-0.00053048486328125, 4.33203125) (-0.0005289803466796875, 4.333984375) (-0.0005274771728515624, 4.3359375) (-0.00052605810546875, 4.337890625) (-0.0005247988281249999, 4.33984375) (-0.0005237885131835937, 4.341796875) (-0.0005231300048828125, 4.34375) (-0.0005229271850585937, 4.345703125) (-0.00052326123046875, 4.34765625) (-0.000524229736328125, 4.349609375) (-0.0005259619140625, 4.3515625) (-0.0005285009765625, 4.353515625) (-0.0005318233642578125, 4.35546875) (-0.0005357789916992187, 4.357421875) (-0.00054000927734375, 4.359375) (-0.0005441399536132812, 4.361328125) (-0.0005478194580078125, 4.36328125) (-0.000550598388671875, 4.365234375) (-0.0005519853515625, 4.3671875) (-0.0005516257934570312, 4.369140625) (-0.0005492474365234375, 4.37109375) (-0.0005449354248046875, 4.373046875) (-0.0005393154296874999, 4.375) (-0.0005329205322265625, 4.376953125) (-0.0005262253417968749, 4.37890625) (-0.0005198393554687499, 4.380859375) (-0.0005142268676757813, 4.3828125) (-0.0005098196411132812, 4.384765625) (-0.0005070324096679687, 4.38671875) (-0.0005054445495605469, 4.388671875) (-0.0005035690307617187, 4.390625) (-0.000499868896484375, 4.392578125) (-0.0004926115417480468, 4.39453125) (-0.00047969250488281247, 4.396484375) (-0.00045917126464843747, 4.3984375) (-0.000428759765625, 4.400390625) (-0.00038568286132812496, 4.40234375) (-0.00032922146606445313, 4.404296875) (-0.0002618486938476562, 4.40625) (-0.00018643753051757813, 4.408203125) (-0.00010652033233642577, 4.41015625) (-2.415584945678711e-05, 4.412109375) (6.366650009155273e-05, 4.4140625) (0.00015812036132812498, 4.416015625) (0.0002544708099365234, 4.41796875) (0.00034407296752929687, 4.419921875) (0.00041028210449218746, 4.421875) (0.000434144775390625, 4.423828125) (0.00040720349121093746, 4.42578125) (0.0003268319091796875, 4.427734375) (0.00019897084045410155, 4.4296875) (4.348795700073242e-05, 4.431640625) (-0.00012155543518066406, 4.43359375) (-0.00027624362182617184, 4.435546875) (-0.00039883331298828126, 4.4375) (-0.0004835782470703125, 4.439453125) (-0.0005316739501953125, 4.44140625) (-0.0005516545410156249, 4.443359375) (-0.0005616484375, 4.4453125) (-0.0005701484375, 4.447265625) (-0.0005781536865234375, 4.44921875) (-0.0005829354248046874, 4.451171875) (-0.0005767327880859375, 4.453125) (-0.0005579420166015624, 4.455078125) (-0.0005309180908203124, 4.45703125) (-0.0005008266906738281, 4.458984375) (-0.00047337277221679686, 4.4609375) (-0.0004514414672851562, 4.462890625) (-0.0004352216186523437, 4.46484375) (-0.0004247936401367187, 4.466796875) (-0.00041983346557617184, 4.46875) (-0.0004196168823242187, 4.470703125) (-0.0004229748840332031, 4.47265625) (-0.0004281804504394531, 4.474609375) (-0.00043363446044921875, 4.4765625) (-0.0004380545654296875, 4.478515625) (-0.0004406128540039062, 4.48046875) (-0.0004407354736328125, 4.482421875) (-0.0004380812072753906, 4.484375) (-0.00043275982666015624, 4.486328125) (-0.00042533941650390624, 4.48828125) (-0.00041671237182617187, 4.490234375) (-0.00040785848999023435, 4.4921875) (-0.0003997401733398437, 4.494140625) (-0.0003929998779296875, 4.49609375) (-0.00038801129150390625, 4.498046875) (-0.00038497424316406246, 4.5) (-0.00038379461669921873, 4.501953125) (-0.0003841981506347656, 4.50390625) (-0.0003858295288085937, 4.505859375) (-0.00038821685791015626, 4.5078125) (-0.0003908470458984375, 4.509765625) (-0.00039336657714843747, 4.51171875) (-0.00039553182983398437, 4.513671875) (-0.00039718621826171876, 4.515625) (-0.0003983052978515625, 4.517578125) (-0.0003988728332519531, 4.51953125) (-0.0003988544921875, 4.521484375) (-0.0003982567749023437, 4.5234375) (-0.0003970849609375, 4.525390625) (-0.000395309814453125, 4.52734375) (-0.00039293371582031246, 4.529296875) (-0.00038997323608398434, 4.53125) (-0.0003864481201171875, 4.533203125) (-0.00038242803955078125, 4.53515625) (-0.0003779855041503906, 4.537109375) (-0.00037318661499023437, 4.5390625) (-0.00036812213134765625, 4.541015625) (-0.000362884765625, 4.54296875) (-0.0003575547180175781, 4.544921875) (-0.00035220050048828124, 4.546875) (-0.0003468747863769531, 4.548828125) (-0.0003416170959472656, 4.55078125) (-0.00033648226928710936, 4.552734375) (-0.0003315377197265625, 4.5546875) (-0.0003268348388671875, 4.556640625) (-0.0003224124755859375, 4.55859375) (-0.00031828173828125, 4.560546875) (-0.0003144259338378906, 4.5625) (-0.000310823974609375, 4.564453125) (-0.00030744305419921875, 4.56640625) (-0.00030423675537109374, 4.568359375) (-0.00030114794921874997, 4.5703125) (-0.000298096923828125, 4.572265625) (-0.0002949847412109375, 4.57421875) (-0.00029170477294921873, 4.576171875) (-0.0002881462707519531, 4.578125) (-0.00028418270874023437, 4.580078125) (-0.000279677734375, 4.58203125) (-0.00027448983764648434, 4.583984375) (-0.0002684682006835937, 4.5859375) (-0.00026149334716796876, 4.587890625) (-0.0002534792785644531, 4.58984375) (-0.0002443599243164062, 4.591796875) (-0.0002340983428955078, 4.59375) (-0.0002226587677001953, 4.595703125) (-0.00021000686645507812, 4.59765625) (-0.00019612597656249998, 4.599609375) (-0.0001810149230957031, 4.6015625) (-0.00016469607543945312, 4.603515625) (-0.00014721646118164063, 4.60546875) (-0.00012865158081054687, 4.607421875) (-0.00010909980773925781, 4.609375) (-8.868698120117186e-05, 4.611328125) (-6.756058502197265e-05, 4.61328125) (-4.58640022277832e-05, 4.615234375) (-2.3739517211914062e-05, 4.6171875) (-1.303567886352539e-06, 4.619140625) (2.135458183288574e-05, 4.62109375) (4.416609191894531e-05, 4.623046875) (6.708999633789062e-05, 4.625) (9.007179260253906e-05, 4.626953125) (0.00011304455566406249, 4.62890625) (0.0001359310607910156, 4.630859375) (0.000158638916015625, 4.6328125) (0.00018109652709960938, 4.634765625) (0.00020325286865234375, 4.63671875) (0.00022508079528808594, 4.638671875) (0.000246576904296875, 4.640625) (0.0002677495727539062, 4.642578125) (0.00028861489868164063, 4.64453125) (0.00030918371582031246, 4.646484375) (0.00032946176147460936, 4.6484375) (0.00034943359374999997, 4.650390625) (0.00036906698608398436, 4.65234375) (0.0003883026733398437, 4.654296875) (0.00040705087280273433, 4.65625) (0.00042525158691406246, 4.658203125) (0.0004428707580566406, 4.66015625) (0.00045990930175781247, 4.662109375) (0.00047641183471679687, 4.6640625) (0.0004924031677246094, 4.666015625) (0.0005078889770507813, 4.66796875) (0.0005228663330078125, 4.669921875) (0.00053731689453125, 4.671875) (0.0005512239990234374, 4.673828125) (0.0005645775146484375, 4.67578125) (0.0005773644409179687, 4.677734375) (0.0005895703735351562, 4.6796875) (0.0006012084350585937, 4.681640625) (0.0006123106689453125, 4.68359375) (0.0006229395751953125, 4.685546875) (0.0006331907348632812, 4.6875) (0.0006431268310546875, 4.689453125) (0.0006527824096679687, 4.69140625) (0.0006621583251953124, 4.693359375) (0.0006712119140625, 4.6953125) (0.0006799150390625, 4.697265625) (0.0006882515869140625, 4.69921875) (0.0006962078857421875, 4.701171875) (0.0007037863159179687, 4.703125) (0.0007109930419921874, 4.705078125) (0.0007178343505859374, 4.70703125) (0.0007243314819335938, 4.708984375) (0.0007305116577148437, 4.7109375) (0.0007363704833984375, 4.712890625) (0.0007418848876953125, 4.71484375) (0.0007470094604492188, 4.716796875) (0.000751671875, 4.71875) (0.0007558308715820312, 4.720703125) (0.0007594656982421875, 4.72265625) (0.00076257763671875, 4.724609375) (0.000765208251953125, 4.7265625) (0.0007674083251953124, 4.728515625) (0.0007692470703125, 4.73046875) (0.0007708009033203125, 4.732421875) (0.0007721292724609375, 4.734375) (0.0007732815551757812, 4.736328125) (0.0007743008422851562, 4.73828125) (0.00077521826171875, 4.740234375) (0.0007760704345703125, 4.7421875) (0.0007769296264648437, 4.744140625) (0.0007778721313476563, 4.74609375) (0.0007789837036132813, 4.748046875) (0.0007803724365234375, 4.75) (0.0007821197509765625, 4.751953125) (0.0007843051757812499, 4.75390625) (0.0007870018310546875, 4.755859375) (0.0007902344970703124, 4.7578125) (0.000793990478515625, 4.759765625) (0.0007982091064453124, 4.76171875) (0.0008028025512695312, 4.763671875) (0.0008076943359375, 4.765625) (0.0008128159790039062, 4.767578125) (0.0008180914916992187, 4.76953125) (0.0008234390869140625, 4.771484375) (0.0008287543945312499, 4.7734375) (0.0008338944091796875, 4.775390625) (0.0008387350463867188, 4.77734375) (0.00084315869140625, 4.779296875) (0.0008470252685546874, 4.78125) (0.0008502131958007812, 4.783203125) (0.0008525835571289062, 4.78515625) (0.0008539862670898437, 4.787109375) (0.0008543223876953125, 4.7890625) (0.0008535401611328125, 4.791015625) (0.0008516343994140625, 4.79296875) (0.0008486343994140625, 4.794921875) (0.0008445676879882812, 4.796875) (0.0008394558715820312, 4.798828125) (0.0008333478393554687, 4.80078125) (0.0008263154296875, 4.802734375) (0.0008184564208984375, 4.8046875) (0.0008099013671874999, 4.806640625) (0.0008007481689453125, 4.80859375) (0.0007910745849609374, 4.810546875) (0.0007809752807617187, 4.8125) (0.0007705369873046875, 4.814453125) (0.0007598663940429687, 4.81640625) (0.0007490895996093749, 4.818359375) (0.0007382945556640624, 4.8203125) (0.0007275341796875, 4.822265625) (0.00071684326171875, 4.82421875) (0.0007062356567382812, 4.826171875) (0.0006957256469726562, 4.828125) (0.0006853346557617187, 4.830078125) (0.0006750546875, 4.83203125) (0.0006648543701171874, 4.833984375) (0.000654688720703125, 4.8359375) (0.0006444965209960938, 4.837890625) (0.0006342453613281249, 4.83984375) (0.0006239268188476563, 4.841796875) (0.000613527099609375, 4.84375) (0.000603036865234375, 4.845703125) (0.0005924395141601562, 4.84765625) (0.0005817090454101562, 4.849609375) (0.0005708399047851563, 4.8515625) (0.000559845947265625, 4.853515625) (0.0005487386474609375, 4.85546875) (0.0005375332641601562, 4.857421875) (0.0005262446289062499, 4.859375) (0.0005148817749023437, 4.861328125) (0.0005034707641601563, 4.86328125) (0.0004920520629882812, 4.865234375) (0.0004806677551269531, 4.8671875) (0.00046936376953124996, 4.869140625) (0.0004581727294921875, 4.87109375) (0.0004471129455566406, 4.873046875) (0.0004362025146484375, 4.875) (0.0004254563293457031, 4.876953125) (0.00041488623046875, 4.87890625) (0.00040450341796874996, 4.880859375) (0.0003943104858398437, 4.8828125) (0.0003843017883300781, 4.884765625) (0.0003744759521484375, 4.88671875) (0.00036483343505859376, 4.888671875) (0.00035537408447265624, 4.890625) (0.00034609930419921876, 4.892578125) (0.0003370044860839844, 4.89453125) (0.00032807940673828124, 4.896484375) (0.0003193140869140625, 4.8984375) (0.00031069775390625, 4.900390625) (0.00030222021484375, 4.90234375) (0.0002938729858398437, 4.904296875) (0.00028564694213867184, 4.90625) (0.00027753228759765623, 4.908203125) (0.00026952108764648436, 4.91015625) (0.0002616063842773437, 4.912109375) (0.00025378221130371094, 4.9140625) (0.000246043701171875, 4.916015625) (0.00023838418579101562, 4.91796875) (0.00023079531860351562, 4.919921875) (0.00022326858520507813, 4.921875) (0.0002157951202392578, 4.923828125) (0.00020836592102050781, 4.92578125) (0.0002009727783203125, 4.927734375) (0.00019360711669921875, 4.9296875) (0.0001862603759765625, 4.931640625) (0.0001789253234863281, 4.93359375) (0.0001715956573486328, 4.935546875) (0.00016426583862304687, 4.9375) (0.00015693128967285156, 4.939453125) (0.00014958810424804686, 4.94140625) (0.00014223248291015626, 4.943359375) (0.00013486155700683593, 4.9453125) (0.0001274730224609375, 4.947265625) (0.00012006483459472656, 4.94921875) (0.00011263590240478516, 4.951171875) (0.00010518597412109374, 4.953125) (9.771525573730469e-05, 4.955078125) (9.022478485107421e-05, 4.95703125) (8.271615600585937e-05, 4.958984375) (7.519135284423828e-05, 4.9609375) (6.765303802490234e-05, 4.962890625) (6.010455703735351e-05, 4.96484375) (5.2549720764160156e-05, 4.966796875) (4.499288558959961e-05, 4.96875) (3.743887710571289e-05, 4.970703125) (2.9892759323120115e-05, 4.97265625) (2.2360214233398436e-05, 4.974609375) (1.4847572326660155e-05, 4.9765625) (7.3615841865539544e-06, 4.978515625) (-9.035831689834594e-08, 4.98046875) (-7.500625610351562e-06, 4.982421875) (-1.4861595153808593e-05, 4.984375) (-2.2165122985839844e-05, 4.986328125) (-2.940253448486328e-05, 4.98828125) (-3.656515884399414e-05, 4.990234375) (-4.364411544799804e-05, 4.9921875) (-5.063034057617187e-05, 4.994140625) (-5.751511764526367e-05, 4.99609375) (-6.42894287109375e-05, 4.998046875) (-7.09436798095703e-05, 5.0) (-7.746879577636719e-05, 5.001953125) (-8.385611724853516e-05, 5.00390625) (-9.009648132324218e-05, 5.005859375) (-9.618094635009766e-05, 5.0078125) (-0.00010210072326660156, 5.009765625) (-0.00010784677124023437, 5.01171875) (-0.00011341133117675781, 5.013671875) (-0.00011878813171386718, 5.015625) (-0.0001239705352783203, 5.017578125) (-0.0001289517822265625, 5.01953125) (-0.00013372583007812498, 5.021484375) (-0.00013828684997558592, 5.0234375) (-0.00014262992858886717, 5.025390625) (-0.00014675137329101562, 5.02734375) (-0.000150646240234375, 5.029296875) (-0.00015430850219726563, 5.03125) (-0.0001577330322265625, 5.033203125) (-0.00016091525268554686, 5.03515625) (-0.00016385256958007812, 5.037109375) (-0.00016654425048828124, 5.0390625) (-0.00016898947143554685, 5.041015625) (-0.00017118746948242188, 5.04296875) (-0.00017313877868652342, 5.044921875) (-0.00017484429931640625, 5.046875) (-0.0001763075714111328, 5.048828125) (-0.00017753565979003905, 5.05078125) (-0.00017853143310546875, 5.052734375) (-0.00017929510498046873, 5.0546875) (-0.00017982803344726561, 5.056640625) (-0.00018012973022460936, 5.05859375) (-0.00018020849609375, 5.060546875) (-0.00018008349609375, 5.0625) (-0.00017977020263671873, 5.064453125) (-0.000179281494140625, 5.06640625) (-0.00017863473510742187, 5.068359375) (-0.00017784683227539062, 5.0703125) (-0.00017693899536132813, 5.072265625) (-0.00017594049072265625, 5.07421875) (-0.00017486764526367186, 5.076171875) (-0.0001737248840332031, 5.078125) (-0.00017251754760742188, 5.080078125) (-0.00017124618530273437, 5.08203125) (-0.0001699229278564453, 5.083984375) (-0.00016857440185546874, 5.0859375) (-0.00016722317504882812, 5.087890625) (-0.00016589266967773436, 5.08984375) (-0.0001645959777832031, 5.091796875) (-0.0001633285217285156, 5.09375) (-0.00016209690856933592, 5.095703125) (-0.00016092002868652342, 5.09765625) (-0.0001598027648925781, 5.099609375) (-0.00015874456787109373, 5.1015625) (-0.00015773886108398438, 5.103515625) (-0.00015676077270507813, 5.10546875) (-0.00015581816101074218, 5.107421875) (-0.00015495565795898436, 5.109375) (-0.00015420892333984374, 5.111328125) (-0.0001536175537109375, 5.11328125) (-0.00015320974731445312, 5.115234375) (-0.00015298565673828126, 5.1171875) (-0.0001529532012939453, 5.119140625) (-0.00015312677001953125, 5.12109375) (-0.00015351779174804686, 5.123046875) (-0.00015414505004882813, 5.125) (-0.0001550096435546875, 5.126953125) (-0.0001560811309814453, 5.12890625) (-0.00015734014892578125, 5.130859375) (-0.00015878054809570312, 5.1328125) (-0.000160395263671875, 5.134765625) (-0.00016219642639160156, 5.13671875) (-0.00016415574645996093, 5.138671875) (-0.0001661860809326172, 5.140625) (-0.00016821331787109374, 5.142578125) (-0.00017016372680664062, 5.14453125) (-0.00017196234130859375, 5.146484375) (-0.00017356645202636718, 5.1484375) (-0.00017492488098144531, 5.150390625) (-0.00017597190856933592, 5.15234375) (-0.00017666827392578125, 5.154296875) (-0.0001769920654296875, 5.15625) (-0.00017694631958007812, 5.158203125) (-0.00017659310913085936, 5.16015625) (-0.00017600616455078124, 5.162109375) (-0.00017524420166015623, 5.1640625) (-0.00017437521362304687, 5.166015625) (-0.00017344406127929688, 5.16796875) (-0.00017252336120605468, 5.169921875) (-0.00017175798034667968, 5.171875) (-0.00017128054809570313, 5.173828125) (-0.0001712164764404297, 5.17578125) (-0.0001716971893310547, 5.177734375) (-0.00017279495239257812, 5.1796875) (-0.00017460137939453123, 5.181640625) (-0.00017726287841796873, 5.18359375) (-0.00018081442260742186, 5.185546875) (-0.00018516600036621092, 5.1875) (-0.00019009039306640624, 5.189453125) (-0.00019515216064453124, 5.19140625) (-0.00019987008666992186, 5.193359375) (-0.00020385311889648436, 5.1953125) (-0.0002066650695800781, 5.197265625) (-0.000207782470703125, 5.19921875) (-0.00020680778503417968, 5.201171875) (-0.0002035129699707031, 5.203125) (-0.00019807574462890625, 5.205078125) (-0.00019110952758789063, 5.20703125) (-0.00018330184936523437, 5.208984375) (-0.00017528053283691407, 5.2109375) (-0.00016743873596191406, 5.212890625) (-0.00016018063354492187, 5.21484375) (-0.0001541512451171875, 5.216796875) (-0.00014947247314453125, 5.21875) (-0.0001452609100341797, 5.220703125) (-0.00014028961181640625, 5.22265625) (-0.0001316689453125, 5.224609375) (-0.00011620732116699218, 5.2265625) (-9.324092102050781e-05, 5.228515625) (-6.104510498046874e-05, 5.23046875) (-1.961134338378906e-05, 5.232421875) (2.8999830245971678e-05, 5.234375) (8.67138214111328e-05, 5.236328125) (0.00015376216125488282, 5.23828125) (0.00023068566894531248, 5.240234375) (0.00032058740234375, 5.2421875) (0.0004214273681640625, 5.244140625) (0.0005291208496093749, 5.24609375) (0.000635513916015625, 5.248046875) (0.0007260302734375, 5.25) (0.000786605712890625, 5.251953125) (0.0008056351318359374, 5.25390625) (0.0007784036865234375, 5.255859375) (0.0007092340698242187, 5.2578125) (0.0006064973754882812, 5.259765625) (0.00047947784423828124, 5.26171875) (0.00033731079101562497, 5.263671875) (0.00018814762878417967, 5.265625) (4.297762298583984e-05, 5.267578125) (-8.316921997070313e-05, 5.26953125) (-0.00017988804626464843, 5.271484375) (-0.00024257049560546875, 5.2734375) (-0.00027454125976562497, 5.275390625) (-0.00028793334960937496, 5.27734375) (-0.00029085269165039063, 5.279296875) (-0.0002865469360351562, 5.28125) (-0.00027525933837890625, 5.283203125) (-0.00025310443115234373, 5.28515625) (-0.00022038954162597655, 5.287109375) (-0.00018187322998046874, 5.2890625) (-0.00014281355285644532, 5.291015625) (-0.00010912088012695311, 5.29296875) (-8.469991302490234e-05, 5.294921875) (-7.045994567871093e-05, 5.296875) (-6.603976440429687e-05, 5.298828125) (-7.027972412109374e-05, 5.30078125) (-8.142852783203125e-05, 5.302734375) (-9.728297424316406e-05, 5.3046875) (-0.00011554908752441405, 5.306640625) (-0.00013388394165039062, 5.30859375) (-0.00014981658935546874, 5.310546875) (-0.000161900634765625, 5.3125) (-0.00016966575622558592, 5.314453125) (-0.00017302224731445312, 5.31640625) (-0.00017252371215820312, 5.318359375) (-0.0001691289367675781, 5.3203125) (-0.00016377622985839843, 5.322265625) (-0.00015765568542480468, 5.32421875) (-0.00015218296813964842, 5.326171875) (-0.0001481540832519531, 5.328125) (-0.00014586317443847656, 5.330078125) (-0.00014539337158203124, 5.33203125) (-0.00014645162963867187, 5.333984375) (-0.00014869189453125, 5.3359375) (-0.00015182131958007812, 5.337890625) (-0.0001553661651611328, 5.33984375) (-0.00015875848388671875, 5.341796875) (-0.0001616481475830078, 5.34375) (-0.00016386724853515624, 5.345703125) (-0.00016536944580078125, 5.34765625) (-0.00016625482177734375, 5.349609375) (-0.00016658399963378906, 5.3515625) (-0.00016636964416503905, 5.353515625) (-0.00016567446899414063, 5.35546875) (-0.0001645771026611328, 5.357421875) (-0.00016314378356933594, 5.359375) (-0.00016142800903320311, 5.361328125) (-0.00015945587158203124, 5.36328125) (-0.0001572325439453125, 5.365234375) (-0.0001547838134765625, 5.3671875) (-0.0001521625061035156, 5.369140625) (-0.00014942961120605468, 5.37109375) (-0.00014665142822265623, 5.373046875) (-0.00014388371276855469, 5.375) (-0.00014116030883789063, 5.376953125) (-0.00013850228881835938, 5.37890625) (-0.00013592404174804688, 5.380859375) (-0.00013343609619140625, 5.3828125) (-0.00013104348754882812, 5.384765625) (-0.00012874555969238281, 5.38671875) (-0.00012653611755371094, 5.388671875) (-0.00012440194702148437, 5.390625) (-0.0001223319091796875, 5.392578125) (-0.00012031796264648437, 5.39453125) (-0.00011835025787353515, 5.396484375) (-0.00011641697692871093, 5.3984375) (-0.00011450199890136719, 5.400390625) (-0.00011258468627929686, 5.40234375) (-0.0001106431427001953, 5.404296875) (-0.00010865852355957031, 5.40625) (-0.00010661536407470702, 5.408203125) (-0.00010450042724609375, 5.41015625) (-0.00010230243682861328, 5.412109375) (-0.0001000103988647461, 5.4140625) (-9.761457824707031e-05, 5.416015625) (-9.510737609863281e-05, 5.41796875) (-9.248280334472656e-05, 5.419921875) (-8.973640441894531e-05, 5.421875) (-8.686327362060546e-05, 5.423828125) (-8.385798645019531e-05, 5.42578125) (-8.071607208251952e-05, 5.427734375) (-7.743426513671875e-05, 5.4296875) (-7.401101684570312e-05, 5.431640625) (-7.044659423828124e-05, 5.43359375) (-6.674249267578124e-05, 5.435546875) (-6.290098571777343e-05, 5.4375) (-5.892607498168945e-05, 5.439453125) (-5.4823570251464844e-05, 5.44140625) (-5.0600677490234374e-05, 5.443359375) (-4.626610565185547e-05, 5.4453125) (-4.182967376708984e-05, 5.447265625) (-3.7302116394042966e-05, 5.44921875) (-3.269532012939453e-05, 5.451171875) (-2.8022342681884764e-05, 5.453125) (-2.329726791381836e-05, 5.455078125) (-1.853506278991699e-05, 5.45703125) (-1.3751604080200195e-05, 5.458984375) (-8.963664054870605e-06, 5.4609375) (-4.188722133636474e-06, 5.462890625) (5.550570487976074e-07, 5.46484375) (5.248945236206054e-06, 5.466796875) (9.873893737792968e-06, 5.46875) (1.4410640716552734e-05, 5.470703125) (1.8839887619018552e-05, 5.47265625) (2.3142541885375977e-05, 5.474609375) (2.729990577697754e-05, 5.4765625) (3.12938175201416e-05, 5.478515625) (3.5106884002685546e-05, 5.48046875) (3.872259521484375e-05, 5.482421875) (4.2125411987304685e-05, 5.484375) (4.5300849914550776e-05, 5.486328125) (4.8235553741455075e-05, 5.48828125) (5.0917442321777344e-05, 5.490234375) (5.333583831787109e-05, 5.4921875) (5.548145294189453e-05, 5.494140625) (5.734648895263672e-05, 5.49609375) (5.892465591430664e-05, 5.498046875) (6.021120071411132e-05, 5.5) (6.120309829711913e-05, 5.501953125) (6.189905548095703e-05, 5.50390625) (6.229936218261718e-05, 5.505859375) (6.240586853027344e-05, 5.5078125) (6.222187805175781e-05, 5.509765625) (6.175206375122071e-05, 5.51171875) (6.1002502441406246e-05, 5.513671875) (5.9980609893798826e-05, 5.515625) (5.869503021240234e-05, 5.517578125) (5.715562057495117e-05, 5.51953125) (5.537338638305664e-05, 5.521484375) (5.336052703857422e-05, 5.5234375) (5.113033676147461e-05, 5.525390625) (4.8697219848632813e-05, 5.52734375) (4.6076583862304686e-05, 5.529296875) (4.3284698486328124e-05, 5.53125) (4.033856201171875e-05, 5.533203125) (3.725578308105469e-05, 5.53515625) (3.405446624755859e-05, 5.537109375) (3.075305938720703e-05, 5.5390625) (2.7370243072509763e-05, 5.541015625) (2.3924766540527342e-05, 5.54296875) (2.043531608581543e-05, 5.544921875) (1.6920413970947264e-05, 5.546875) (1.3398324012756347e-05, 5.548828125) (9.886968612670899e-06, 5.55078125) (6.403793811798096e-06, 5.552734375) (2.9656629562377928e-06, 5.5546875) (-4.1125607490539547e-07, 5.556640625) (-3.711572170257568e-06, 5.55859375) (-6.9207258224487305e-06, 5.560546875) (-1.0025031089782714e-05, 5.5625) (-1.3011748313903808e-05, 5.564453125) (-1.586911392211914e-05, 5.56640625) (-1.8586353302001954e-05, 5.568359375) (-2.1153661727905272e-05, 5.5703125) (-2.3562198638916014e-05, 5.572265625) (-2.5804039001464844e-05, 5.57421875) (-2.7872190475463866e-05, 5.576171875) (-2.97606201171875e-05, 5.578125) (-3.146422576904297e-05, 5.580078125) (-3.2978874206542966e-05, 5.58203125) (-3.4301380157470705e-05, 5.583984375) (-3.542949676513672e-05, 5.5859375) (-3.63619384765625e-05, 5.587890625) (-3.709835052490234e-05, 5.58984375) (-3.763933944702148e-05, 5.591796875) (-3.798637771606445e-05, 5.59375) (-3.8141769409179685e-05, 5.595703125) (-3.810857009887695e-05, 5.59765625) (-3.789054107666015e-05, 5.599609375) (-3.749208831787109e-05, 5.6015625) (-3.691822052001953e-05, 5.603515625) (-3.61744499206543e-05, 5.60546875) (-3.526674652099609e-05, 5.607421875) (-3.4201435089111325e-05, 5.609375) (-3.298516082763672e-05, 5.611328125) (-3.162479400634766e-05, 5.61328125) (-3.012740135192871e-05, 5.615234375) (-2.850013732910156e-05, 5.6171875) (-2.6750175476074216e-05, 5.619140625) (-2.4884641647338866e-05, 5.62109375) (-2.2910575866699218e-05, 5.623046875) (-2.083492088317871e-05, 5.625) (-1.866447830200195e-05, 5.626953125) (-1.6405920028686522e-05, 5.62890625) (-1.406574249267578e-05, 5.630859375) (-1.1650299072265624e-05, 5.6328125) (-9.165809631347656e-06, 5.634765625) (-6.618378639221191e-06, 5.63671875) (-4.0140118598937984e-06, 5.638671875) (-1.3586106300354003e-06, 5.640625) (1.3420349359512328e-06, 5.642578125) (4.08224105834961e-06, 5.64453125) (6.856417179107665e-06, 5.646484375) (9.65905475616455e-06, 5.6484375) (1.2484720230102538e-05, 5.650390625) (1.5328044891357422e-05, 5.65234375) (1.818373489379883e-05, 5.654296875) (2.104653167724609e-05, 5.65625) (2.3911199569702146e-05, 5.658203125) (2.6772480010986326e-05, 5.66015625) (2.9625087738037107e-05, 5.662109375) (3.2463680267333984e-05, 5.6640625) (3.528287506103515e-05, 5.666015625) (3.807720184326172e-05, 5.66796875) (4.0841110229492185e-05, 5.669921875) (4.3568901062011714e-05, 5.671875) (4.6254772186279296e-05, 5.673828125) (4.889279174804687e-05, 5.67578125) (5.147687149047852e-05, 5.677734375) (5.4000801086425776e-05, 5.6796875) (5.6458190917968745e-05, 5.681640625) (5.8842475891113276e-05, 5.68359375) (6.114696502685546e-05, 5.685546875) (6.336482238769531e-05, 5.6875) (6.548910522460938e-05, 5.689453125) (6.751282501220703e-05, 5.69140625) (6.94289093017578e-05, 5.693359375) (7.123024749755859e-05, 5.6953125) (7.29097671508789e-05, 5.697265625) (7.446044158935547e-05, 5.69921875) (7.58753662109375e-05, 5.701171875) (7.714774322509765e-05, 5.703125) (7.827096557617187e-05, 5.705078125) (7.923863220214844e-05, 5.70703125) (8.004460144042968e-05, 5.708984375) (8.068302917480469e-05, 5.7109375) (8.11484603881836e-05, 5.712890625) (8.143581390380859e-05, 5.71484375) (8.154042053222656e-05, 5.716796875) (8.145808410644531e-05, 5.71875) (8.118510437011718e-05, 5.720703125) (8.071836853027343e-05, 5.72265625) (8.005531311035156e-05, 5.724609375) (7.919403839111327e-05, 5.7265625) (7.813323974609375e-05, 5.728515625) (7.6872314453125e-05, 5.73046875) (7.541132354736327e-05, 5.732421875) (7.375100708007812e-05, 5.734375) (7.189283752441406e-05, 5.736328125) (6.983891296386719e-05, 5.73828125) (6.759199523925781e-05, 5.740234375) (6.515547180175781e-05, 5.7421875) (6.253330230712891e-05, 5.744140625) (5.9730060577392575e-05, 5.74609375) (5.675081634521484e-05, 5.748046875) (5.3601196289062496e-05, 5.75) (5.028724670410156e-05, 5.751953125) (4.6815483093261715e-05, 5.75390625) (4.3192855834960933e-05, 5.755859375) (3.94267349243164e-05, 5.7578125) (3.552492523193359e-05, 5.759765625) (3.149554061889648e-05, 5.76171875) (2.7347007751464842e-05, 5.763671875) (2.308802795410156e-05, 5.765625) (1.8727577209472654e-05, 5.767578125) (1.4274832725524902e-05, 5.76953125) (9.73913860321045e-06, 5.771484375) (5.1299405097961425e-06, 5.7734375) (4.5670557022094726e-07, 5.775390625) (-4.271026611328125e-06, 5.77734375) (-9.043664932250976e-06, 5.779296875) (-1.3851623535156249e-05, 5.78125) (-1.868536376953125e-05, 5.783203125) (-2.3535451889038085e-05, 5.78515625) (-2.8392654418945312e-05, 5.787109375) (-3.324798583984375e-05, 5.7890625) (-3.809271240234375e-05, 5.791015625) (-4.291841506958008e-05, 5.79296875) (-4.7717033386230464e-05, 5.794921875) (-5.248086166381836e-05, 5.796875) (-5.720259475708008e-05, 5.798828125) (-6.187528991699219e-05, 5.80078125) (-6.649228668212891e-05, 5.802734375) (-7.104716491699218e-05, 5.8046875) (-7.553367614746093e-05, 5.806640625) (-7.994577026367188e-05, 5.80859375) (-8.42776641845703e-05, 5.810546875) (-8.852375793457031e-05, 5.8125) (-9.267857360839843e-05, 5.814453125) (-9.673681640625e-05, 5.81640625) (-0.000100693359375, 5.818359375) (-0.00010454331970214843, 5.8203125) (-0.00010828216552734375, 5.822265625) (-0.00011190554809570312, 5.82421875) (-0.00011540917205810547, 5.826171875) (-0.00011878898620605469, 5.828125) (-0.00012204115295410155, 5.830078125) (-0.00012516199493408202, 5.83203125) (-0.00012814804077148438, 5.833984375) (-0.00013099595642089844, 5.8359375) (-0.0001337024383544922, 5.837890625) (-0.00013626451110839842, 5.83984375) (-0.00013867955017089843, 5.841796875) (-0.00014094525146484375, 5.84375) (-0.00014305966186523437, 5.845703125) (-0.0001450211944580078, 5.84765625) (-0.000146828369140625, 5.849609375) (-0.00014847991943359374, 5.8515625) (-0.00014997474670410156, 5.853515625) (-0.00015131182861328124, 5.85546875) (-0.0001524903564453125, 5.857421875) (-0.00015350962829589843, 5.859375) (-0.00015436895751953124, 5.861328125) (-0.00015506787109375, 5.86328125) (-0.0001556061248779297, 5.865234375) (-0.00015598406982421874, 5.8671875) (-0.0001562025451660156, 5.869140625) (-0.00015626292419433592, 5.87109375) (-0.00015616688537597656, 5.873046875) (-0.0001559165344238281, 5.875) (-0.00015551466369628905, 5.876953125) (-0.00015496466064453124, 5.87890625) (-0.00015427044677734374, 5.880859375) (-0.00015343652343749998, 5.8828125) (-0.00015246768188476563, 5.884765625) (-0.00015136940002441406, 5.88671875) (-0.00015014828491210938, 5.888671875) (-0.00014881156921386717, 5.890625) (-0.00014736698913574218, 5.892578125) (-0.00014582324218749998, 5.89453125) (-0.0001441898193359375, 5.896484375) (-0.00014247732543945312, 5.8984375) (-0.00014069801330566405, 5.900390625) (-0.00013886474609375, 5.90234375) (-0.00013699049377441404, 5.904296875) (-0.00013508914184570312, 5.90625) (-0.0001331749572753906, 5.908203125) (-0.0001312623748779297, 5.91015625) (-0.00012936605834960936, 5.912109375) (-0.00012750016021728514, 5.9140625) (-0.0001256774673461914, 5.916015625) (-0.0001239106903076172, 5.91796875) (-0.00012221263122558592, 5.919921875) (-0.00012059603118896484, 5.921875) (-0.00011907446289062499, 5.923828125) (-0.00011766201019287108, 5.92578125) (-0.00011637248992919921, 5.927734375) (-0.00011521908569335937, 5.9296875) (-0.0001142143783569336, 5.931640625) (-0.00011336959838867187, 5.93359375) (-0.00011269523620605468, 5.935546875) (-0.00011219954681396484, 5.9375) (-0.00011188580322265625, 5.939453125) (-0.00011175616455078125, 5.94140625) (-0.00011181266021728515, 5.943359375) (-0.00011206005859374999, 5.9453125) (-0.00011250888061523437, 5.947265625) (-0.00011316909790039062, 5.94921875) (-0.00011404619598388671, 5.951171875) (-0.00011514219665527344, 5.953125) (-0.00011645670318603515, 5.955078125) (-0.00011798223876953124, 5.95703125) (-0.00011970396423339844, 5.958984375) (-0.00012159675598144531, 5.9609375) (-0.0001236205825805664, 5.962890625) (-0.0001257327117919922, 5.96484375) (-0.00012789096069335936, 5.966796875) (-0.00013005699157714844, 5.96875) (-0.00013220193481445312, 5.970703125) (-0.00013429666137695313, 5.97265625) (-0.0001363084716796875, 5.974609375) (-0.0001381962127685547, 5.9765625) (-0.00013990928649902344, 5.978515625) (-0.00014139672851562498, 5.98046875) (-0.00014261820983886718, 5.982421875) (-0.0001435439758300781, 5.984375) (-0.00014414553833007812, 5.986328125) (-0.0001444173126220703, 5.98828125) (-0.0001443831787109375, 5.990234375) (-0.00014410195922851562, 5.9921875) (-0.00014367881774902342, 5.994140625) (-0.00014322335815429688, 5.99609375) (-0.00014282800292968748, 5.998046875) (-0.00014257919311523438, 6.0) (-0.000142564208984375, 6.001953125) (-0.00014287890625, 6.00390625) (-0.00014363600158691405, 6.005859375) (-0.00014495065307617186, 6.0078125) (-0.0001469118957519531, 6.009765625) (-0.00014963845825195313, 6.01171875) (-0.00015327732849121093, 6.013671875) (-0.000157908447265625, 6.015625) (-0.00016352066040039063, 6.017578125) (-0.0001699091796875, 6.01953125) (-0.00017664413452148436, 6.021484375) (-0.00018320504760742186, 6.0234375) (-0.0001890647277832031, 6.025390625) (-0.00019364697265624999, 6.02734375) (-0.00019631500244140623, 6.029296875) (-0.00019657521057128905, 6.03125) (-0.0001942388916015625, 6.033203125) (-0.00018967242431640625, 6.03515625) (-0.0001837906036376953, 6.037109375) (-0.00017770190429687498, 6.0390625) (-0.0001724553527832031, 6.041015625) (-0.00016895159912109375, 6.04296875) (-0.00016809877014160155, 6.044921875) (-0.00017058860778808592, 6.046875) (-0.00017633737182617186, 6.048828125) (-0.00018402377319335936, 6.05078125) (-0.00019130043029785156, 6.052734375) (-0.00019527143859863282, 6.0546875) (-0.00019273507690429687, 6.056640625) (-0.00018060394287109375, 6.05859375) (-0.0001557308349609375, 6.060546875) (-0.00011467494964599608, 6.0625) (-5.6186168670654294e-05, 6.064453125) (1.719443130493164e-05, 6.06640625) (0.00010189649963378906, 6.068359375) (0.00019345578002929686, 6.0703125) (0.0002890423583984375, 6.072265625) (0.00039136071777343747, 6.07421875) (0.000501083740234375, 6.076171875) (0.0006120842895507812, 6.078125) (0.0007135054931640625, 6.080078125) (0.0007862476196289062, 6.08203125) (0.0008100268554687499, 6.083984375) (0.0007770559082031249, 6.0859375) (0.0006869056396484374, 6.087890625) (0.000547869873046875, 6.08984375) (0.00038077978515625, 6.091796875) (0.0002031873321533203, 6.09375) (3.405848693847656e-05, 6.095703125) (-0.0001050921173095703, 6.09765625) (-0.00020709579467773437, 6.099609375) (-0.00027069683837890624, 6.1015625) (-0.0003029296264648437, 6.103515625) (-0.0003220394287109375, 6.10546875) (-0.00033728671264648437, 6.107421875) (-0.00035125201416015626, 6.109375) (-0.0003619241943359375, 6.111328125) (-0.00036034292602539063, 6.11328125) (-0.00034448236083984375, 6.115234375) (-0.0003181513977050781, 6.1171875) (-0.0002858252868652344, 6.119140625) (-0.00025411247253417967, 6.12109375) (-0.00022635748291015623, 6.123046875) (-0.00020288694763183593, 6.125) (-0.00018470593261718748, 6.126953125) (-0.00017201492309570313, 6.12890625) (-0.00016412869262695312, 6.130859375) (-0.00016050085449218748, 6.1328125) (-0.00015996658325195313, 6.134765625) (-0.00016092411804199218, 6.13671875) (-0.00016248345947265623, 6.138671875) (-0.0001637066955566406, 6.140625) (-0.00016312423706054687, 6.142578125) (-0.00015995338439941405, 6.14453125) (-0.00015405543518066405, 6.146484375) (-0.0001455054016113281, 6.1484375) (-0.00013492457580566405, 6.150390625) (-0.00012313340759277343, 6.15234375) (-0.00011066076660156249, 6.154296875) (-9.828433227539062e-05, 6.15625) (-8.707433319091797e-05, 6.158203125) (-7.761197662353515e-05, 6.16015625) (-7.014638519287109e-05, 6.162109375) (-6.47462158203125e-05, 6.1640625) (-6.112178802490234e-05, 6.166015625) (-5.893827056884765e-05, 6.16796875) (-5.795130920410156e-05, 6.169921875) (-5.7748416900634766e-05, 6.171875) (-5.779882431030273e-05, 6.173828125) (-5.7766777038574213e-05, 6.17578125) (-5.74286994934082e-05, 6.177734375) (-5.663684844970703e-05, 6.1796875) (-5.539226913452148e-05, 6.181640625) (-5.367342758178711e-05, 6.18359375) (-5.141426849365234e-05, 6.185546875) (-4.8599063873291015e-05, 6.1875) (-4.524623107910156e-05, 6.189453125) (-4.136809539794922e-05, 6.19140625) (-3.6991397857666014e-05, 6.193359375) (-3.214631652832031e-05, 6.1953125) (-2.6847730636596677e-05, 6.197265625) (-2.1147857666015623e-05, 6.19921875) (-1.5126699447631835e-05, 6.201171875) (-8.869898796081543e-06, 6.203125) (-2.4793343544006348e-06, 6.205078125) (3.959352016448974e-06, 6.20703125) (1.037204360961914e-05, 6.208984375) (1.6678131103515626e-05, 6.2109375) (2.2815212249755858e-05, 6.212890625) (2.8738611221313476e-05, 6.21484375) (3.440754699707031e-05, 6.216796875) (3.979163360595703e-05, 6.21875) (4.487403106689453e-05, 6.220703125) (4.96411018371582e-05, 6.22265625) (5.409086608886719e-05, 6.224609375) (5.8237285614013666e-05, 6.2265625) (6.209463500976563e-05, 6.228515625) (6.568266296386718e-05, 6.23046875) (6.902783966064452e-05, 6.232421875) (7.21585693359375e-05, 6.234375) (7.511041259765624e-05, 6.236328125) (7.791954040527344e-05, 6.23828125) (8.06226806640625e-05, 6.240234375) (8.32601318359375e-05, 6.2421875) (8.586488342285156e-05, 6.244140625) (8.846291351318359e-05, 6.24609375) (9.107862854003906e-05, 6.248046875) (9.373220825195312e-05, 6.25) (9.64400177001953e-05, 6.251953125) (9.921855163574218e-05, 6.25390625) (0.00010207925415039062, 6.255859375) (0.00010502694702148436, 6.2578125) (0.00010806860351562499, 6.259765625) (0.00011121160888671874, 6.26171875) (0.00011446170043945312, 6.263671875) (0.00011782499694824218, 6.265625) (0.00012130450439453124, 6.267578125) (0.00012489968109130858, 6.26953125) (0.00012860841369628906, 6.271484375) (0.00013242666625976562, 6.2734375) (0.00013634963989257813, 6.275390625) (0.00014037216186523437, 6.27734375) (0.00014448791503906248, 6.279296875) (0.00014868943786621093, 6.28125) (0.0001529683380126953, 6.283203125) (0.00015731491088867187, 6.28515625) (0.00016171917724609375, 6.287109375) (0.00016617100524902344, 6.2890625) (0.0001706576690673828, 6.291015625) (0.00017516448974609376, 6.29296875) (0.00017967523193359374, 6.294921875) (0.00018417202758789063, 6.296875) (0.00018863644409179687, 6.298828125) (0.00019304969787597656, 6.30078125) (0.00019739199829101563, 6.302734375) (0.00020164274597167967, 6.3046875) (0.0002057814483642578, 6.306640625) (0.00020978778076171875, 6.30859375) (0.00021364164733886717, 6.310546875) (0.0002173233947753906, 6.3125) (0.00022081338500976562, 6.314453125) (0.0002240919952392578, 6.31640625) (0.00022714022827148437, 6.318359375) (0.0002299397277832031, 6.3203125) (0.0002324729766845703, 6.322265625) (0.00023472344970703124, 6.32421875) (0.0002366757354736328, 6.326171875) (0.00023831558227539062, 6.328125) (0.000239630126953125, 6.330078125) (0.00024060809326171873, 6.33203125) (0.000241239990234375, 6.333984375) (0.00024151800537109373, 6.3359375) (0.0002414359130859375, 6.337890625) (0.00024098930358886717, 6.33984375) (0.00024017535400390624, 6.341796875) (0.00023899304199218748, 6.34375) (0.000237443359375, 6.345703125) (0.00023552911376953123, 6.34765625) (0.00023325489807128906, 6.349609375) (0.00023062704467773437, 6.3515625) (0.00022765359497070313, 6.353515625) (0.00022434423828125, 6.35546875) (0.00022071034240722656, 6.357421875) (0.00021676466369628905, 6.359375) (0.00021252134704589841, 6.361328125) (0.0002079956817626953, 6.36328125) (0.00020320429992675782, 6.365234375) (0.0001981649169921875, 6.3671875) (0.0001928963623046875, 6.369140625) (0.0001874183349609375, 6.37109375) (0.00018175135803222655, 6.373046875) (0.00017591680908203125, 6.375) (0.00016993666076660154, 6.376953125) (0.0001638335418701172, 6.37890625) (0.0001576305236816406, 6.380859375) (0.00015135086059570312, 6.3828125) (0.00014501806640625, 6.384765625) (0.00013865562438964844, 6.38671875) (0.00013228692626953125, 6.388671875) 