(-1.6627817153930664e-05, 0.0) (-1.0641613960266113e-05, 0.001953125) (-4.672657012939453e-06, 0.00390625) (1.2641074657440185e-06, 0.005859375) (7.156926155090332e-06, 0.0078125) (1.299054718017578e-05, 0.009765625) (1.8746152877807615e-05, 0.01171875) (2.44051513671875e-05, 0.013671875) (2.994810676574707e-05, 0.015625) (3.535431289672851e-05, 0.017578125) (4.06024169921875e-05, 0.01953125) (4.566786193847656e-05, 0.021484375) (5.0523651123046875e-05, 0.0234375) (5.514605712890625e-05, 0.025390625) (5.951347732543945e-05, 0.02734375) (6.360492706298828e-05, 0.029296875) (6.74005126953125e-05, 0.03125) (7.087939453124999e-05, 0.033203125) (7.402145385742187e-05, 0.03515625) (7.680913543701172e-05, 0.037109375) (7.922589874267578e-05, 0.0390625) (8.125528717041015e-05, 0.041015625) (8.288247680664062e-05, 0.04296875) (8.409497833251953e-05, 0.044921875) (8.488376617431641e-05, 0.046875) (8.52442169189453e-05, 0.048828125) (8.517214965820312e-05, 0.05078125) (8.466325378417968e-05, 0.052734375) (8.37157211303711e-05, 0.0546875) (8.232942199707031e-05, 0.056640625) (8.050741577148437e-05, 0.05859375) (7.825677490234375e-05, 0.060546875) (7.558502960205078e-05, 0.0625) (7.250110626220703e-05, 0.064453125) (6.901896667480468e-05, 0.06640625) (6.515572357177735e-05, 0.068359375) (6.093275451660156e-05, 0.0703125) (5.637753677368164e-05, 0.072265625) (5.151295471191406e-05, 0.07421875) (4.635596847534179e-05, 0.076171875) (4.0920494079589844e-05, 0.078125) (3.5211875915527344e-05, 0.080078125) (2.9238338470458984e-05, 0.08203125) (2.301804733276367e-05, 0.083984375) (1.6567461013793945e-05, 0.0859375) (9.90273380279541e-06, 0.087890625) (3.048786878585815e-06, 0.08984375) (-3.964826583862304e-06, 0.091796875) (-1.1095952987670898e-05, 0.09375) (-1.8281902313232422e-05, 0.095703125) (-2.5464714050292966e-05, 0.09765625) (-3.259220504760742e-05, 0.099609375) (-3.960832214355469e-05, 0.1015625) (-4.6467887878417965e-05, 0.103515625) (-5.311775207519531e-05, 0.10546875) (-5.948886108398437e-05, 0.107421875) (-6.551409149169921e-05, 0.109375) (-7.111595153808594e-05, 0.111328125) (-7.622320556640624e-05, 0.11328125) (-8.079911041259765e-05, 0.115234375) (-8.482081604003905e-05, 0.1171875) (-8.827183532714843e-05, 0.119140625) (-9.115293884277343e-05, 0.12109375) (-9.346300506591796e-05, 0.123046875) (-9.523510742187499e-05, 0.125) (-9.658016967773437e-05, 0.126953125) (-9.761669158935547e-05, 0.12890625) (-9.845788574218749e-05, 0.130859375) (-9.921520996093749e-05, 0.1328125) (-9.99393310546875e-05, 0.134765625) (-0.00010075148773193359, 0.13671875) (-0.00010190763092041015, 0.138671875) (-0.00010358783721923828, 0.140625) (-0.00010587371826171875, 0.142578125) (-0.00010873416900634765, 0.14453125) (-0.00011189314270019531, 0.146484375) (-0.00011507070922851562, 0.1484375) (-0.00011813253784179687, 0.150390625) (-0.00012072129821777343, 0.15234375) (-0.00012226445770263672, 0.154296875) (-0.00012241699981689453, 0.15625) (-0.00012105783081054687, 0.158203125) (-0.00011846793365478515, 0.16015625) (-0.0001155469970703125, 0.162109375) (-0.00011331651306152344, 0.1640625) (-0.0001126929702758789, 0.166015625) (-0.00011499129486083984, 0.16796875) (-0.00012194281768798828, 0.169921875) (-0.00013337277221679686, 0.171875) (-0.00014691494750976563, 0.173828125) (-0.0001600755920410156, 0.17578125) (-0.00016925769042968748, 0.177734375) (-0.00017508706665039062, 0.1796875) (-0.00018369314575195311, 0.181640625) (-0.00019586730957031249, 0.18359375) (-0.0002088160400390625, 0.185546875) (-0.0002131202697753906, 0.1875) (-0.00018952926635742187, 0.189453125) (-0.00012805201721191405, 0.19140625) (-2.68402099609375e-05, 0.193359375) (0.00011083668518066406, 0.1953125) (0.0002676190490722656, 0.197265625) (0.00042618560791015623, 0.19921875) (0.0005693291625976562, 0.201171875) (0.0006726222534179687, 0.203125) (0.0007203502807617187, 0.205078125) (0.0007085347900390625, 0.20703125) (0.0006419745483398437, 0.208984375) (0.0005412511596679687, 0.2109375) (0.00042709896850585933, 0.212890625) (0.0003056820983886719, 0.21484375) (0.00018016220092773437, 0.216796875) (4.986341476440429e-05, 0.21875) (-8.127525329589844e-05, 0.220703125) (-0.00019250970458984374, 0.22265625) (-0.0002670541381835937, 0.224609375) (-0.000297555908203125, 0.2265625) (-0.0002880020141601562, 0.228515625) (-0.00025865011596679685, 0.23046875) (-0.00022560386657714842, 0.232421875) (-0.00019661544799804686, 0.234375) (-0.0001733367004394531, 0.236328125) (-0.00014963027954101562, 0.23828125) (-0.00012392430877685546, 0.240234375) (-9.922743225097655e-05, 0.2421875) (-7.872776794433594e-05, 0.244140625) (-6.702748107910156e-05, 0.24609375) (-6.546520233154297e-05, 0.248046875) (-7.214679718017578e-05, 0.25) (-8.500731658935546e-05, 0.251953125) (-0.00010128099060058593, 0.25390625) (-0.00011801603698730469, 0.255859375) (-0.00013316842651367187, 0.2578125) (-0.00014529739379882812, 0.259765625) (-0.00015334510803222655, 0.26171875) (-0.00015709425354003904, 0.263671875) (-0.00015689418029785155, 0.265625) (-0.00015330728149414062, 0.267578125) (-0.0001472670440673828, 0.26953125) (-0.0001400711212158203, 0.271484375) (-0.00013294190979003907, 0.2734375) (-0.00012670408630371092, 0.275390625) (-0.00012192837524414063, 0.27734375) (-0.00011881393432617187, 0.279296875) (-0.00011727610778808593, 0.28125) (-0.00011719747924804687, 0.283203125) (-0.0001183311996459961, 0.28515625) (-0.00012024864196777343, 0.287109375) (-0.00012248954772949217, 0.2890625) (-0.0001247232666015625, 0.291015625) (-0.00012670503234863282, 0.29296875) (-0.00012831646728515624, 0.294921875) (-0.00012955172729492187, 0.296875) (-0.00013037893676757812, 0.298828125) (-0.00013078124999999998, 0.30078125) (-0.00013078428649902343, 0.302734375) (-0.00013041656494140624, 0.3046875) (-0.00012970121765136717, 0.306640625) (-0.00012866180419921874, 0.30859375) (-0.00012730674743652344, 0.310546875) (-0.00012563325500488282, 0.3125) (-0.0001236589660644531, 0.314453125) (-0.00012141046142578124, 0.31640625) (-0.00011892767333984374, 0.318359375) (-0.00011626860046386718, 0.3203125) (-0.00011349230957031249, 0.322265625) (-0.00011066033172607421, 0.32421875) (-0.00010782228088378906, 0.326171875) (-0.00010501029968261718, 0.328125) (-0.00010224966430664062, 0.330078125) (-9.955780029296874e-05, 0.33203125) (-9.694499969482421e-05, 0.333984375) (-9.44163589477539e-05, 0.3359375) (-9.196717834472656e-05, 0.337890625) (-8.958204650878906e-05, 0.33984375) (-8.72454376220703e-05, 0.341796875) (-8.494403076171875e-05, 0.34375) (-8.266355895996094e-05, 0.345703125) (-8.039009094238281e-05, 0.34765625) (-7.810491180419921e-05, 0.349609375) (-7.578372192382812e-05, 0.3515625) (-7.340091705322265e-05, 0.353515625) (-7.09310302734375e-05, 0.35546875) (-6.83514175415039e-05, 0.357421875) (-6.564128875732422e-05, 0.359375) (-6.278018569946289e-05, 0.361328125) (-5.974822616577148e-05, 0.36328125) (-5.65252685546875e-05, 0.365234375) (-5.3092006683349606e-05, 0.3671875) (-4.943177795410156e-05, 0.369140625) (-4.5528568267822266e-05, 0.37109375) (-4.136685180664062e-05, 0.373046875) (-3.6932861328125e-05, 0.375) (-3.2208763122558594e-05, 0.376953125) (-2.717443084716797e-05, 0.37890625) (-2.1808700561523437e-05, 0.380859375) (-1.6086711883544922e-05, 0.3828125) (-9.991476058959961e-06, 0.384765625) (-3.5166215896606444e-06, 0.38671875) (3.3408968448638915e-06, 0.388671875) (1.0578435897827147e-05, 0.390625) (1.8184186935424802e-05, 0.392578125) (2.614121627807617e-05, 0.39453125) (3.4418849945068355e-05, 0.396484375) (4.2969970703125e-05, 0.3984375) (5.175467681884766e-05, 0.400390625) (6.073881149291992e-05, 0.40234375) (6.98909683227539e-05, 0.404296875) (7.919087982177734e-05, 0.40625) (8.860653686523437e-05, 0.408203125) (9.809455108642577e-05, 0.41015625) (0.00010761636352539062, 0.412109375) (0.00011713275146484375, 0.4140625) (0.00012661764526367188, 0.416015625) (0.00013606634521484375, 0.41796875) (0.0001454779052734375, 0.419921875) (0.00015485328674316406, 0.421875) (0.00016421969604492188, 0.423828125) (0.0001736211242675781, 0.42578125) (0.00018311724853515624, 0.427734375) (0.00019279359436035157, 0.4296875) (0.00020270367431640625, 0.431640625) (0.00021286494445800781, 0.43359375) (0.00022328431701660155, 0.435546875) (0.0002339416046142578, 0.4375) (0.0002448182373046875, 0.439453125) (0.0002559027099609375, 0.44140625) (0.00026715396118164064, 0.443359375) (0.00027850524902343747, 0.4453125) (0.00028987277221679685, 0.447265625) (0.00030114474487304686, 0.44921875) (0.00031219305419921873, 0.451171875) (0.00032288555908203124, 0.453125) (0.00033303939819335934, 0.455078125) (0.00034243231201171875, 0.45703125) (0.0003508392333984375, 0.458984375) (0.00035801751708984373, 0.4609375) (0.00036377481079101563, 0.462890625) (0.0003679825439453125, 0.46484375) (0.00037052758789062496, 0.466796875) (0.00037133117675781246, 0.46875) (0.00037033575439453123, 0.470703125) (0.00036749493408203123, 0.47265625) (0.0003628095703125, 0.474609375) (0.0003563303527832031, 0.4765625) (0.00034812268066406247, 0.478515625) (0.00033827520751953126, 0.48046875) (0.0003269112548828125, 0.482421875) (0.0003141688842773437, 0.484375) (0.00030024960327148435, 0.486328125) (0.0002854120178222656, 0.48828125) (0.00026990499877929685, 0.490234375) (0.00025398060607910157, 0.4921875) (0.00023785414123535156, 0.494140625) (0.00022168682861328125, 0.49609375) (0.00020563296508789062, 0.498046875) (0.00018982994079589844, 0.5) (0.0001743875274658203, 0.501953125) (0.00015939866638183594, 0.50390625) (0.00014492788696289063, 0.505859375) (0.00013100418090820313, 0.5078125) (0.0001176582794189453, 0.509765625) (0.0001049205093383789, 0.51171875) (9.279202270507812e-05, 0.513671875) (8.126174926757812e-05, 0.515625) (7.027816009521484e-05, 0.517578125) (5.974874877929687e-05, 0.51953125) (4.959981918334961e-05, 0.521484375) (3.976968765258789e-05, 0.5234375) (3.0213008880615234e-05, 0.525390625) (2.091293716430664e-05, 0.52734375) (1.1855180740356445e-05, 0.529296875) (3.0280830860137936e-06, 0.53125) (-5.559301376342773e-06, 0.533203125) (-1.388368797302246e-05, 0.53515625) (-2.1919342041015623e-05, 0.537109375) (-2.9632219314575195e-05, 0.5390625) (-3.6998771667480465e-05, 0.541015625) (-4.400840759277343e-05, 0.54296875) (-5.0639072418212886e-05, 0.544921875) (-5.6865234375e-05, 0.546875) (-6.265253448486328e-05, 0.548828125) (-6.795487213134766e-05, 0.55078125) (-7.274243927001953e-05, 0.552734375) (-7.700055694580077e-05, 0.5546875) (-8.072100830078125e-05, 0.556640625) (-8.390676879882813e-05, 0.55859375) (-8.656666564941406e-05, 0.560546875) (-8.871250915527343e-05, 0.5625) (-9.036930847167968e-05, 0.564453125) (-9.157341003417968e-05, 0.56640625) (-9.235867309570312e-05, 0.568359375) (-9.27587890625e-05, 0.5703125) (-9.280468749999999e-05, 0.572265625) (-9.252195739746093e-05, 0.57421875) (-9.194079589843749e-05, 0.576171875) (-9.109436035156249e-05, 0.578125) (-9.001556396484375e-05, 0.580078125) (-8.873846435546875e-05, 0.58203125) (-8.729402923583985e-05, 0.583984375) (-8.570935821533203e-05, 0.5859375) (-8.401161193847655e-05, 0.587890625) (-8.222735595703125e-05, 0.58984375) (-8.038046264648437e-05, 0.591796875) (-7.849320220947266e-05, 0.59375) (-7.658439636230468e-05, 0.595703125) (-7.466902160644531e-05, 0.59765625) (-7.276284790039062e-05, 0.599609375) (-7.088198852539063e-05, 0.6015625) (-6.904125976562499e-05, 0.603515625) (-6.725485229492187e-05, 0.60546875) (-6.553510284423828e-05, 0.607421875) (-6.38921890258789e-05, 0.609375) (-6.233566665649413e-05, 0.611328125) (-6.0874320983886714e-05, 0.61328125) (-5.951457977294921e-05, 0.615234375) (-5.8260848999023436e-05, 0.6171875) (-5.7115802764892576e-05, 0.619140625) (-5.6080150604248045e-05, 0.62109375) (-5.515357971191406e-05, 0.623046875) (-5.433482360839843e-05, 0.625) (-5.362111663818359e-05, 0.626953125) (-5.300847625732422e-05, 0.62890625) (-5.24920654296875e-05, 0.630859375) (-5.206620788574218e-05, 0.6328125) (-5.1724708557128906e-05, 0.634765625) (-5.1461063385009766e-05, 0.63671875) (-5.126823425292969e-05, 0.638671875) (-5.113883590698242e-05, 0.640625) (-5.106544494628906e-05, 0.642578125) (-5.104060363769531e-05, 0.64453125) (-5.1056968688964844e-05, 0.646484375) (-5.110743713378906e-05, 0.6484375) (-5.118482208251953e-05, 0.650390625) (-5.128195953369141e-05, 0.65234375) (-5.1392078399658204e-05, 0.654296875) (-5.150875091552734e-05, 0.65625) (-5.162603759765625e-05, 0.658203125) (-5.173860168457031e-05, 0.66015625) (-5.1841453552246094e-05, 0.662109375) (-5.1930023193359376e-05, 0.6640625) (-5.200043869018555e-05, 0.666015625) (-5.204940032958984e-05, 0.66796875) (-5.207402038574218e-05, 0.669921875) (-5.2071838378906246e-05, 0.671875) (-5.20406265258789e-05, 0.673828125) (-5.197837448120117e-05, 0.67578125) (-5.1883705139160154e-05, 0.677734375) (-5.175580596923828e-05, 0.6796875) (-5.159432220458984e-05, 0.681640625) (-5.13993911743164e-05, 0.68359375) (-5.1171607971191405e-05, 0.685546875) (-5.09119758605957e-05, 0.6875) (-5.0622081756591796e-05, 0.689453125) (-5.03039436340332e-05, 0.69140625) (-4.9959800720214845e-05, 0.693359375) (-4.9592071533203123e-05, 0.6953125) (-4.920332336425781e-05, 0.697265625) (-4.879621887207031e-05, 0.69921875) (-4.837360382080078e-05, 0.701171875) (-4.7938480377197263e-05, 0.703125) (-4.7493873596191406e-05, 0.705078125) (-4.704284286499023e-05, 0.70703125) (-4.658847045898437e-05, 0.708984375) (-4.613381195068359e-05, 0.7109375) (-4.568188858032226e-05, 0.712890625) (-4.523561859130859e-05, 0.71484375) (-4.479764175415039e-05, 0.716796875) (-4.437029266357422e-05, 0.71875) (-4.395558929443359e-05, 0.720703125) (-4.355522155761719e-05, 0.72265625) (-4.317061614990234e-05, 0.724609375) (-4.2802963256835936e-05, 0.7265625) (-4.245322799682617e-05, 0.728515625) (-4.2122230529785156e-05, 0.73046875) (-4.18107681274414e-05, 0.732421875) (-4.151967620849609e-05, 0.734375) (-4.1249904632568356e-05, 0.736328125) (-4.1002471923828125e-05, 0.73828125) (-4.0778430938720704e-05, 0.740234375) (-4.0578857421875e-05, 0.7421875) (-4.04048843383789e-05, 0.744140625) (-4.0257701873779295e-05, 0.74609375) (-4.0138549804687496e-05, 0.748046875) (-4.004866790771484e-05, 0.75) (-3.9989303588867186e-05, 0.751953125) (-3.996171188354492e-05, 0.75390625) (-3.996722030639648e-05, 0.755859375) (-4.0007213592529295e-05, 0.7578125) (-4.008307647705078e-05, 0.759765625) (-4.0196128845214845e-05, 0.76171875) (-4.034757995605469e-05, 0.763671875) (-4.0538444519042964e-05, 0.765625) (-4.0769592285156245e-05, 0.767578125) (-4.1041725158691405e-05, 0.76953125) (-4.135530090332031e-05, 0.771484375) (-4.1710624694824216e-05, 0.7734375) (-4.210789108276367e-05, 0.775390625) (-4.254719543457031e-05, 0.77734375) (-4.3028617858886716e-05, 0.779296875) (-4.355231094360351e-05, 0.78125) (-4.411837387084961e-05, 0.783203125) (-4.4726921081542965e-05, 0.78515625) (-4.5378036499023433e-05, 0.787109375) (-4.607154846191406e-05, 0.7890625) (-4.6807052612304684e-05, 0.791015625) (-4.7583862304687495e-05, 0.79296875) (-4.840080642700195e-05, 0.794921875) (-4.9256179809570313e-05, 0.796875) (-5.01478042602539e-05, 0.798828125) (-5.107286834716797e-05, 0.80078125) (-5.202799987792969e-05, 0.802734375) (-5.300928878784179e-05, 0.8046875) (-5.40121955871582e-05, 0.806640625) (-5.50314712524414e-05, 0.80859375) (-5.606125259399414e-05, 0.810546875) (-5.7094993591308593e-05, 0.8125) (-5.812546539306641e-05, 0.814453125) (-5.9144889831542964e-05, 0.81640625) (-6.0144794464111325e-05, 0.818359375) (-6.111611175537109e-05, 0.8203125) (-6.204949188232422e-05, 0.822265625) (-6.293524169921875e-05, 0.82421875) (-6.376348876953124e-05, 0.826171875) (-6.452444458007812e-05, 0.828125) (-6.52083740234375e-05, 0.830078125) (-6.580567169189453e-05, 0.83203125) (-6.630716705322266e-05, 0.833984375) (-6.670382690429687e-05, 0.8359375) (-6.698674011230468e-05, 0.837890625) (-6.714744567871094e-05, 0.83984375) (-6.717777252197266e-05, 0.841796875) (-6.706962585449219e-05, 0.84375) (-6.681536102294921e-05, 0.845703125) (-6.640754699707031e-05, 0.84765625) (-6.583894348144532e-05, 0.849609375) (-6.510321044921875e-05, 0.8515625) (-6.419482421875e-05, 0.853515625) (-6.310886001586914e-05, 0.85546875) (-6.184153366088867e-05, 0.857421875) (-6.039016342163086e-05, 0.859375) (-5.875298690795898e-05, 0.861328125) (-5.6929695129394526e-05, 0.86328125) (-5.4921291351318354e-05, 0.865234375) (-5.2729736328124995e-05, 0.8671875) (-5.0358512878417966e-05, 0.869140625) (-4.781267929077148e-05, 0.87109375) (-4.5098594665527345e-05, 0.873046875) (-4.2224365234375e-05, 0.875) (-3.919976806640625e-05, 0.876953125) (-3.603589630126953e-05, 0.87890625) (-3.27457389831543e-05, 0.880859375) (-2.934407043457031e-05, 0.8828125) (-2.5846752166748044e-05, 0.884765625) (-2.2271196365356444e-05, 0.88671875) (-1.8636047363281248e-05, 0.888671875) (-1.4960439682006836e-05, 0.890625) (-1.1264440536499023e-05, 0.892578125) (-7.56868028640747e-06, 0.89453125) (-3.893604755401611e-06, 0.896484375) (-2.601386308670044e-07, 0.8984375) (3.3103439807891846e-06, 0.900390625) (6.797001838684082e-06, 0.90234375) (1.017884635925293e-05, 0.904296875) (1.343382453918457e-05, 0.90625) (1.6539573669433594e-05, 0.908203125) (1.947261810302734e-05, 0.91015625) (2.2208045959472656e-05, 0.912109375) (2.4721965789794922e-05, 0.9140625) (2.699131393432617e-05, 0.916015625) (2.8992706298828122e-05, 0.91796875) (3.070402908325195e-05, 0.919921875) (3.2105632781982423e-05, 0.921875) (3.318016815185547e-05, 0.923828125) (3.3914257049560545e-05, 0.92578125) (3.429850006103515e-05, 0.927734375) (3.4323455810546875e-05, 0.9296875) (3.39800910949707e-05, 0.931640625) (3.326200866699219e-05, 0.93359375) (3.216419219970703e-05, 0.935546875) (3.0684820175170895e-05, 0.9375) (2.8825897216796873e-05, 0.939453125) (2.6590543746948242e-05, 0.94140625) (2.3984886169433593e-05, 0.943359375) (2.1020214080810545e-05, 0.9453125) (1.771116828918457e-05, 0.947265625) (1.4076610565185547e-05, 0.94921875) (1.0139873504638671e-05, 0.951171875) (5.920090198516846e-06, 0.953125) (1.4309523105621338e-06, 0.955078125) (-3.3179340362548826e-06, 0.95703125) (-8.326421737670898e-06, 0.958984375) (-1.3591110229492186e-05, 0.9609375) (-1.9098236083984375e-05, 0.962890625) (-2.483462905883789e-05, 0.96484375) (-3.078475570678711e-05, 0.966796875) (-3.6925041198730465e-05, 0.96875) (-4.322800827026367e-05, 0.970703125) (-4.965415573120117e-05, 0.97265625) (-5.6145473480224604e-05, 0.974609375) (-6.264656066894531e-05, 0.9765625) (-6.91091079711914e-05, 0.978515625) (-7.548146057128907e-05, 0.98046875) (-8.171978759765625e-05, 0.982421875) (-8.777423095703124e-05, 0.984375) (-9.357427978515625e-05, 0.986328125) (-9.904531860351562e-05, 0.98828125) (-0.00010410433959960937, 0.990234375) (-0.00010867653656005859, 0.9921875) (-0.00011272241973876952, 0.994140625) (-0.00011621815490722656, 0.99609375) (-0.00011914202880859374, 0.998046875) (-0.00012147815704345702, 1.0) (-0.00012321891784667968, 1.001953125) (-0.00012439627075195312, 1.00390625) (-0.0001250996856689453, 1.005859375) (-0.00012543316650390625, 1.0078125) (-0.00012548556518554688, 1.009765625) (-0.00012534503936767577, 1.01171875) (-0.0001250957794189453, 1.013671875) (-0.00012490277099609374, 1.015625) (-0.00012504256439208983, 1.017578125) (-0.0001256952133178711, 1.01953125) (-0.00012694250488281248, 1.021484375) (-0.00012874839782714843, 1.0234375) (-0.0001308338623046875, 1.025390625) (-0.0001328893127441406, 1.02734375) (-0.00013465060424804688, 1.029296875) (-0.00013562741088867186, 1.03125) (-0.0001351806640625, 1.033203125) (-0.00013307342529296875, 1.03515625) (-0.0001293125305175781, 1.037109375) (-0.00012419023132324218, 1.0390625) (-0.00011900485992431641, 1.041015625) (-0.00011519542694091796, 1.04296875) (-0.0001139656982421875, 1.044921875) (-0.00011732769775390625, 1.046875) (-0.00012578335571289062, 1.048828125) (-0.00013730882263183594, 1.05078125) (-0.00015049507141113281, 1.052734375) (-0.00016339091491699218, 1.0546875) (-0.00017656051635742186, 1.056640625) (-0.00019509861755371094, 1.05859375) (-0.0002188839874267578, 1.060546875) (-0.00024214703369140623, 1.0625) (-0.0002523201904296875, 1.064453125) (-0.00023116468811035156, 1.06640625) (-0.00017074862670898438, 1.068359375) (-7.349161529541015e-05, 1.0703125) (5.002238464355469e-05, 1.072265625) (0.0001842728271484375, 1.07421875) (0.00032107794189453124, 1.076171875) (0.0004539493713378906, 1.078125) (0.0005731080322265625, 1.080078125) (0.0006651420898437499, 1.08203125) (0.0007127794189453124, 1.083984375) (0.0007055419921875, 1.0859375) (0.0006454302978515624, 1.087890625) (0.0005437637939453124, 1.08984375) (0.0004152218017578125, 1.091796875) (0.0002733375549316406, 1.09375) (0.00012820266723632812, 1.095703125) (-8.778663635253906e-06, 1.09765625) (-0.0001217347183227539, 1.099609375) (-0.00019977360534667967, 1.1015625) (-0.0002388913879394531, 1.103515625) (-0.00024525048828125, 1.10546875) (-0.00023571063232421873, 1.107421875) (-0.0002218804931640625, 1.109375) (-0.00020828826904296875, 1.111328125) (-0.00019442327880859374, 1.11328125) (-0.0001744173889160156, 1.115234375) (-0.00014760569763183593, 1.1171875) (-0.0001182873306274414, 1.119140625) (-9.099212646484375e-05, 1.12109375) (-7.048810577392577e-05, 1.123046875) (-5.862233734130859e-05, 1.125) (-5.493659210205078e-05, 1.126953125) (-5.847465133666992e-05, 1.12890625) (-6.738716125488282e-05, 1.130859375) (-7.9578369140625e-05, 1.1328125) (-9.279380798339844e-05, 1.134765625) (-0.00010490533447265625, 1.13671875) (-0.00011486189270019531, 1.138671875) (-0.00012215335083007813, 1.140625) (-0.00012625428771972656, 1.142578125) (-0.00012711764526367186, 1.14453125) (-0.000125063232421875, 1.146484375) (-0.00012071520233154296, 1.1484375) (-0.00011529977416992188, 1.150390625) (-0.00011006753540039062, 1.15234375) (-0.0001056209259033203, 1.154296875) (-0.00010227210235595703, 1.15625) (-0.0001002711944580078, 1.158203125) (-9.9621826171875e-05, 1.16015625) (-0.00010028758239746093, 1.162109375) (-0.00010213603210449219, 1.1640625) (-0.00010469808959960937, 1.166015625) (-0.00010743089294433594, 1.16796875) (-0.00010999937438964844, 1.169921875) (-0.00011220272827148437, 1.171875) (-0.00011395186614990234, 1.173828125) (-0.0001152631607055664, 1.17578125) (-0.00011611308288574218, 1.177734375) (-0.0001164660415649414, 1.1796875) (-0.00011636249542236327, 1.181640625) (-0.00011586807250976562, 1.18359375) (-0.00011503977966308593, 1.185546875) (-0.00011392300415039062, 1.1875) (-0.0001125263442993164, 1.189453125) (-0.00011083895111083984, 1.19140625) (-0.00010887223815917968, 1.193359375) (-0.00010666537475585937, 1.1953125) (-0.00010427509307861327, 1.197265625) (-0.00010177309417724608, 1.19921875) (-9.922957611083984e-05, 1.201171875) (-9.669168090820313e-05, 1.203125) (-9.418997955322265e-05, 1.205078125) (-9.174766540527343e-05, 1.20703125) (-8.938131713867187e-05, 1.208984375) (-8.710250091552734e-05, 1.2109375) (-8.491632080078124e-05, 1.212890625) (-8.28150863647461e-05, 1.21484375) (-8.077838897705078e-05, 1.216796875) (-7.878929138183593e-05, 1.21875) (-7.683757019042969e-05, 1.220703125) (-7.49134063720703e-05, 1.22265625) (-7.300604248046875e-05, 1.224609375) (-7.109713745117188e-05, 1.2265625) (-6.916011047363281e-05, 1.228515625) (-6.716618347167969e-05, 1.23046875) (-6.508917999267578e-05, 1.232421875) (-6.290582656860352e-05, 1.234375) (-6.059442138671875e-05, 1.236328125) (-5.813336181640625e-05, 1.23828125) (-5.549985122680664e-05, 1.240234375) (-5.267307662963867e-05, 1.2421875) (-4.963416290283203e-05, 1.244140625) (-4.636548614501953e-05, 1.24609375) (-4.28509407043457e-05, 1.248046875) (-3.907183837890625e-05, 1.25) (-3.500598526000976e-05, 1.251953125) (-3.063335800170898e-05, 1.25390625) (-2.5936573028564453e-05, 1.255859375) (-2.089564514160156e-05, 1.2578125) (-1.5492073059082032e-05, 1.259765625) (-9.70540428161621e-06, 1.26171875) (-3.5107672214508057e-06, 1.263671875) (3.105887174606323e-06, 1.265625) (1.0147695541381836e-05, 1.267578125) (1.7613548278808594e-05, 1.26953125) (2.549432373046875e-05, 1.271484375) (3.377253341674804e-05, 1.2734375) (4.2426044464111324e-05, 1.275390625) (5.141802215576172e-05, 1.27734375) (6.069929504394531e-05, 1.279296875) (7.022872924804687e-05, 1.28125) (7.996471405029297e-05, 1.283203125) (8.987210083007812e-05, 1.28515625) (9.992594909667968e-05, 1.287109375) (0.00011008795166015624, 1.2890625) (0.00012032150268554686, 1.291015625) (0.0001305933837890625, 1.29296875) (0.0001408603973388672, 1.294921875) (0.00015109326171874998, 1.296875) (0.000161283447265625, 1.298828125) (0.00017142095947265626, 1.30078125) (0.00018150567626953125, 1.302734375) (0.00019156405639648438, 1.3046875) (0.0002016199951171875, 1.306640625) (0.00021171737670898437, 1.30859375) (0.0002219235076904297, 1.310546875) (0.00023227163696289062, 1.3125) (0.0002427829132080078, 1.314453125) (0.0002534618225097656, 1.31640625) (0.00026428002929687497, 1.318359375) (0.0002752114562988281, 1.3203125) (0.0002862118835449219, 1.322265625) (0.0002972108459472656, 1.32421875) (0.00030813980102539063, 1.326171875) (0.00031891802978515623, 1.328125) (0.0003294298095703125, 1.330078125) (0.00033956445312499997, 1.33203125) (0.00034919934082031247, 1.333984375) (0.0003581632690429687, 1.3359375) (0.00036630422973632813, 1.337890625) (0.00037345294189453126, 1.33984375) (0.0003794047241210937, 1.341796875) (0.0003839997253417969, 1.34375) (0.00038709201049804684, 1.345703125) (0.0003885501098632812, 1.34765625) (0.0003882884521484375, 1.349609375) (0.00038624957275390623, 1.3515625) (0.00038241259765625, 1.353515625) (0.00037680419921875, 1.35546875) (0.00036946875, 1.357421875) (0.00036045712280273435, 1.359375) (0.0003498642883300781, 1.361328125) (0.0003377848205566406, 1.36328125) (0.00032432702636718747, 1.365234375) (0.00030965411376953126, 1.3671875) (0.00029389892578125, 1.369140625) (0.00027721337890624997, 1.37109375) (0.00025979910278320313, 1.373046875) (0.00024184481811523437, 1.375) (0.00022355400085449217, 1.376953125) (0.00020514596557617186, 1.37890625) (0.00018681974792480468, 1.380859375) (0.00016873280334472657, 1.3828125) (0.00015101354980468748, 1.384765625) (0.0001337524871826172, 1.38671875) (0.00011701629638671875, 1.388671875) (0.00010087976837158203, 1.390625) (8.538701629638671e-05, 1.392578125) (7.058425903320312e-05, 1.39453125) (5.6514892578125e-05, 1.396484375) (4.319867706298828e-05, 1.3984375) (3.0694501876831056e-05, 1.400390625) (1.904779243469238e-05, 1.40234375) (8.262475967407226e-06, 1.404296875) (-1.6802070140838622e-06, 1.40625) (-1.0836170196533203e-05, 1.408203125) (-1.9297847747802735e-05, 1.41015625) (-2.716989707946777e-05, 1.412109375) (-3.4521854400634766e-05, 1.4140625) (-4.141020965576172e-05, 1.416015625) (-4.787266159057617e-05, 1.41796875) (-5.3924659729003904e-05, 1.419921875) (-5.959181976318359e-05, 1.421875) (-6.488558197021484e-05, 1.423828125) (-6.981834411621094e-05, 1.42578125) (-7.440675354003906e-05, 1.427734375) (-7.867859649658202e-05, 1.4296875) (-8.269799041748046e-05, 1.431640625) (-8.65257568359375e-05, 1.43359375) (-9.020624542236328e-05, 1.435546875) (-9.375584411621093e-05, 1.4375) (-9.716035461425781e-05, 1.439453125) (-0.0001003784408569336, 1.44140625) (-0.00010334999084472656, 1.443359375) (-0.00010603624725341796, 1.4453125) (-0.00010840547180175781, 1.447265625) (-0.00011043785095214843, 1.44921875) (-0.00011213441467285155, 1.451171875) (-0.0001134991226196289, 1.453125) (-0.00011454702758789062, 1.455078125) (-0.00011530113220214844, 1.45703125) (-0.0001157877197265625, 1.458984375) (-0.00011601827239990234, 1.4609375) (-0.00011598672485351561, 1.462890625) (-0.00011568815612792968, 1.46484375) (-0.00011511959075927733, 1.466796875) (-0.00011429501342773436, 1.46875) (-0.00011324388885498046, 1.470703125) (-0.00011200713348388672, 1.47265625) (-0.00011063702392578124, 1.474609375) (-0.00010918051147460936, 1.4765625) (-0.00010768254089355468, 1.478515625) (-0.00010618211364746093, 1.48046875) (-0.00010470738220214843, 1.482421875) (-0.00010327979278564453, 1.484375) (-0.00010191334533691405, 1.486328125) (-0.00010061421966552734, 1.48828125) (-9.938229370117187e-05, 1.490234375) (-9.82228775024414e-05, 1.4921875) (-9.714503479003906e-05, 1.494140625) (-9.615740966796875e-05, 1.49609375) (-9.527012634277343e-05, 1.498046875) (-9.448807525634766e-05, 1.5) (-9.381141662597656e-05, 1.501953125) (-9.323793029785156e-05, 1.50390625) (-9.276185607910156e-05, 1.505859375) (-9.237538146972656e-05, 1.5078125) (-9.206929016113281e-05, 1.509765625) (-9.183453369140624e-05, 1.51171875) (-9.16629180908203e-05, 1.513671875) (-9.154796600341796e-05, 1.515625) (-9.14847183227539e-05, 1.517578125) (-9.146981811523437e-05, 1.51953125) (-9.150161743164062e-05, 1.521484375) (-9.15775146484375e-05, 1.5234375) (-9.169395446777343e-05, 1.525390625) (-9.184652709960938e-05, 1.52734375) (-9.202933502197266e-05, 1.529296875) (-9.223614501953124e-05, 1.53125) (-9.246064758300781e-05, 1.533203125) (-9.269593048095703e-05, 1.53515625) (-9.29347152709961e-05, 1.537109375) (-9.317057800292969e-05, 1.5390625) (-9.33977813720703e-05, 1.541015625) (-9.361117553710937e-05, 1.54296875) (-9.380662536621094e-05, 1.544921875) (-9.39803009033203e-05, 1.546875) (-9.412863159179687e-05, 1.548828125) (-9.424864196777344e-05, 1.55078125) (-9.433772277832031e-05, 1.552734375) (-9.439341735839843e-05, 1.5546875) (-9.441375732421875e-05, 1.556640625) (-9.439720916748047e-05, 1.55859375) (-9.434243011474609e-05, 1.560546875) (-9.424853515625e-05, 1.5625) (-9.411495208740234e-05, 1.564453125) (-9.394139099121094e-05, 1.56640625) (-9.372795867919921e-05, 1.568359375) (-9.347523498535155e-05, 1.5703125) (-9.318407440185547e-05, 1.572265625) (-9.285554504394531e-05, 1.57421875) (-9.249089813232421e-05, 1.576171875) (-9.209156799316405e-05, 1.578125) (-9.165918731689452e-05, 1.580078125) (-9.119547271728515e-05, 1.58203125) (-9.070222473144531e-05, 1.583984375) (-9.018125915527344e-05, 1.5859375) (-8.963450622558593e-05, 1.587890625) (-8.906402587890625e-05, 1.58984375) (-8.847217559814452e-05, 1.591796875) (-8.786154174804687e-05, 1.59375) (-8.723493194580078e-05, 1.595703125) (-8.659536743164062e-05, 1.59765625) (-8.594598388671875e-05, 1.599609375) (-8.528987121582031e-05, 1.6015625) (-8.462997436523438e-05, 1.603515625) (-8.396916961669922e-05, 1.60546875) (-8.331007385253906e-05, 1.607421875) (-8.265517425537109e-05, 1.609375) (-8.200685882568358e-05, 1.611328125) (-8.136734008789062e-05, 1.61328125) (-8.073880004882812e-05, 1.615234375) (-8.012352752685547e-05, 1.6171875) (-7.952387237548827e-05, 1.619140625) (-7.894230651855468e-05, 1.62109375) (-7.838143920898437e-05, 1.623046875) (-7.784390258789062e-05, 1.625) (-7.733244323730469e-05, 1.626953125) (-7.6849853515625e-05, 1.62890625) (-7.639897155761719e-05, 1.630859375) (-7.598255920410155e-05, 1.6328125) (-7.560342407226563e-05, 1.634765625) (-7.526420593261718e-05, 1.63671875) (-7.496751403808593e-05, 1.638671875) (-7.47158203125e-05, 1.640625) (-7.451137542724609e-05, 1.642578125) (-7.435629272460937e-05, 1.64453125) (-7.425254821777343e-05, 1.646484375) (-7.420176696777343e-05, 1.6484375) (-7.420533752441406e-05, 1.650390625) (-7.426434326171875e-05, 1.65234375) (-7.437950134277344e-05, 1.654296875) (-7.455120849609375e-05, 1.65625) (-7.477953338623047e-05, 1.658203125) (-7.506407928466797e-05, 1.66015625) (-7.540402221679687e-05, 1.662109375) (-7.579820251464844e-05, 1.6640625) (-7.624505615234375e-05, 1.666015625) (-7.674263000488281e-05, 1.66796875) (-7.728856658935547e-05, 1.669921875) (-7.788003540039062e-05, 1.671875) (-7.851382446289062e-05, 1.673828125) (-7.918630981445311e-05, 1.67578125) (-7.989324951171874e-05, 1.677734375) (-8.062984466552734e-05, 1.6796875) (-8.139064788818359e-05, 1.681640625) (-8.216946411132812e-05, 1.68359375) (-8.295948028564452e-05, 1.685546875) (-8.375323486328124e-05, 1.6875) (-8.45424575805664e-05, 1.689453125) (-8.531819152832032e-05, 1.69140625) (-8.607098388671874e-05, 1.693359375) (-8.679078674316405e-05, 1.6953125) (-8.746711730957031e-05, 1.697265625) (-8.808935546874999e-05, 1.69921875) (-8.86466064453125e-05, 1.701171875) (-8.912789154052735e-05, 1.703125) (-8.952236175537109e-05, 1.705078125) (-8.981906127929686e-05, 1.70703125) (-9.000714874267578e-05, 1.708984375) (-9.007618713378907e-05, 1.7109375) (-9.001605224609375e-05, 1.712890625) (-8.981684112548828e-05, 1.71484375) (-8.94690704345703e-05, 1.716796875) (-8.896351623535155e-05, 1.71875) (-8.829143524169922e-05, 1.720703125) (-8.74450454711914e-05, 1.72265625) (-8.641740417480468e-05, 1.724609375) (-8.520219421386719e-05, 1.7265625) (-8.379411315917969e-05, 1.728515625) (-8.218876647949219e-05, 1.73046875) (-8.038290405273437e-05, 1.732421875) (-7.837464141845702e-05, 1.734375) (-7.616304016113281e-05, 1.736328125) (-7.374803161621094e-05, 1.73828125) (-7.113104248046875e-05, 1.740234375) (-6.831488037109374e-05, 1.7421875) (-6.530380249023437e-05, 1.744140625) (-6.210392761230469e-05, 1.74609375) (-5.8722648620605466e-05, 1.748046875) (-5.5168754577636714e-05, 1.75) (-5.1453193664550776e-05, 1.751953125) (-4.758882141113281e-05, 1.75390625) (-4.358998870849609e-05, 1.755859375) (-3.9472972869873045e-05, 1.7578125) (-3.5255504608154293e-05, 1.759765625) (-3.0955997467041016e-05, 1.76171875) (-2.6594223022460935e-05, 1.763671875) (-2.2191024780273436e-05, 1.765625) (-1.7767608642578124e-05, 1.767578125) (-1.334627342224121e-05, 1.76953125) (-8.949933052062988e-06, 1.771484375) (-4.600974559783935e-06, 1.7734375) (-3.2201695442199704e-07, 1.775390625) (3.863096714019775e-06, 1.77734375) (7.929702758789062e-06, 1.779296875) (1.185182762145996e-05, 1.78125) (1.560246467590332e-05, 1.783203125) (1.915584945678711e-05, 1.78515625) (2.248689079284668e-05, 1.787109375) (2.556998062133789e-05, 1.7890625) (2.8380306243896483e-05, 1.791015625) (3.0894861221313474e-05, 1.79296875) (3.309326171875e-05, 1.794921875) (3.49598388671875e-05, 1.796875) (3.6482048034667966e-05, 1.798828125) (3.7647323608398434e-05, 1.80078125) (3.844425964355468e-05, 1.802734375) (3.88621826171875e-05, 1.8046875) (3.889178466796875e-05, 1.806640625) (3.852752304077148e-05, 1.80859375) (3.776594924926758e-05, 1.810546875) (3.660423278808594e-05, 1.8125) (3.504331970214844e-05, 1.814453125) (3.3088951110839845e-05, 1.81640625) (3.074919319152832e-05, 1.818359375) (2.8039501190185545e-05, 1.8203125) (2.49809455871582e-05, 1.822265625) (2.15909423828125e-05, 1.82421875) (1.7885974884033203e-05, 1.826171875) (1.3876443862915038e-05, 1.828125) (9.563194274902343e-06, 1.830078125) (4.950981140136718e-06, 1.83203125) (5.343198776245117e-08, 1.833984375) (-5.112443923950195e-06, 1.8359375) (-1.052581787109375e-05, 1.837890625) (-1.615758514404297e-05, 1.83984375) (-2.1975841522216797e-05, 1.841796875) (-2.7934459686279297e-05, 1.84375) (-3.3970321655273436e-05, 1.845703125) (-4.0025802612304686e-05, 1.84765625) (-4.6041839599609375e-05, 1.849609375) (-5.1964683532714844e-05, 1.8515625) (-5.7753978729248045e-05, 1.853515625) (-6.336354446411132e-05, 1.85546875) (-6.87440185546875e-05, 1.857421875) (-7.383985137939452e-05, 1.859375) (-7.85756607055664e-05, 1.861328125) (-8.287288665771483e-05, 1.86328125) (-8.668989562988281e-05, 1.865234375) (-9.001337432861328e-05, 1.8671875) (-9.283924865722656e-05, 1.869140625) (-9.519097900390625e-05, 1.87109375) (-9.707579040527343e-05, 1.873046875) (-9.8501953125e-05, 1.875) (-9.955372619628906e-05, 1.876953125) (-0.00010034608459472656, 1.87890625) (-0.00010099394226074218, 1.880859375) (-0.00010160855865478515, 1.8828125) (-0.00010225809478759765, 1.884765625) (-0.00010297550964355469, 1.88671875) (-0.00010388117980957031, 1.888671875) (-0.00010520861053466796, 1.890625) (-0.00010709950256347655, 1.892578125) (-0.0001095684814453125, 1.89453125) (-0.0001124419708251953, 1.896484375) (-0.00011530358123779297, 1.8984375) (-0.00011778774261474609, 1.900390625) (-0.00011962627410888671, 1.90234375) (-0.00012039959716796874, 1.904296875) (-0.00011953324890136718, 1.90625) (-0.0001167171401977539, 1.908203125) (-0.00011205612182617187, 1.91015625) (-0.0001061326675415039, 1.912109375) (-0.00010011143493652343, 1.9140625) (-9.527801513671875e-05, 1.916015625) (-9.285612487792969e-05, 1.91796875) (-9.42746353149414e-05, 1.919921875) (-0.00010089096832275391, 1.921875) (-0.00011180642700195312, 1.923828125) (-0.00012395590209960937, 1.92578125) (-0.0001344098358154297, 1.927734375) (-0.00014055001831054687, 1.9296875) (-0.0001438711700439453, 1.931640625) (-0.00014855258178710936, 1.93359375) (-0.00015321128845214842, 1.935546875) (-0.0001512718811035156, 1.9375) (-0.00013116851806640624, 1.939453125) (-7.994656372070312e-05, 1.94140625) (5.661394119262695e-06, 1.943359375) (0.00011912870025634765, 1.9453125) (0.0002493455810546875, 1.947265625) (0.0003829657897949219, 1.94921875) (0.0005076973571777343, 1.951171875) (0.0006139632568359374, 1.953125) (0.0006895242919921874, 1.955078125) (0.00071951708984375, 1.95703125) (0.0006969746704101563, 1.958984375) (0.0006199051513671875, 1.9609375) (0.0004940735168457031, 1.962890625) (0.00033914208984374997, 1.96484375) (0.00017301716613769532, 1.966796875) (1.619871139526367e-05, 1.96875) (-0.00010785955810546874, 1.970703125) (-0.00019163436889648437, 1.97265625) (-0.0002338298645019531, 1.974609375) (-0.0002422781982421875, 1.9765625) (-0.00023767961120605468, 1.978515625) (-0.00023018179321289062, 1.98046875) (-0.0002228009338378906, 1.982421875) (-0.0002150860137939453, 1.984375) (-0.0001986139221191406, 1.986328125) (-0.0001719120635986328, 1.98828125) (-0.00013997427368164062, 1.990234375) (-0.0001071963882446289, 1.9921875) (-7.947621154785155e-05, 1.994140625) (-6.022057342529296e-05, 1.99609375) (-4.9298351287841794e-05, 1.998046875) (-4.601707458496093e-05, 2.0) (-4.923884582519531e-05, 2.001953125) (-5.708447647094726e-05, 2.00390625) (-6.753028869628906e-05, 2.005859375) (-7.902992248535155e-05, 2.0078125) (-9.014022827148437e-05, 2.009765625) (-9.941104888916015e-05, 2.01171875) (-0.00010592411041259765, 2.013671875) (-0.0001092729034423828, 2.015625) (-0.00010933438873291015, 2.017578125) (-0.00010657794952392577, 2.01953125) (-0.00010189706420898437, 2.021484375) (-9.595869445800781e-05, 2.0234375) (-8.94898681640625e-05, 2.025390625) (-8.342027282714843e-05, 2.02734375) (-7.835215759277344e-05, 2.029296875) (-7.460403442382812e-05, 2.03125) (-7.234709930419921e-05, 2.033203125) (-7.144090270996093e-05, 2.03515625) (-7.158167266845703e-05, 2.037109375) (-7.255657958984374e-05, 2.0390625) (-7.404730224609374e-05, 2.041015625) (-7.559036254882812e-05, 2.04296875) (-7.690862274169922e-05, 2.044921875) (-7.784272003173827e-05, 2.046875) (-7.829434204101562e-05, 2.048828125) (-7.831756591796875e-05, 2.05078125) (-7.795915222167968e-05, 2.052734375) (-7.721048736572265e-05, 2.0546875) (-7.61161651611328e-05, 2.056640625) (-7.47521514892578e-05, 2.05859375) (-7.315660095214844e-05, 2.060546875) (-7.13677978515625e-05, 2.0625) (-6.940830993652344e-05, 2.064453125) (-6.726197814941406e-05, 2.06640625) (-6.495011901855469e-05, 2.068359375) (-6.25204963684082e-05, 2.0703125) (-6.0024723052978514e-05, 2.072265625) (-5.7532081604003906e-05, 2.07421875) (-5.508815002441406e-05, 2.076171875) (-5.2713233947753905e-05, 2.078125) (-5.0425811767578124e-05, 2.080078125) (-4.823589324951172e-05, 2.08203125) (-4.614660263061523e-05, 2.083984375) (-4.4159156799316405e-05, 2.0859375) (-4.2261310577392574e-05, 2.087890625) (-4.042800903320312e-05, 2.08984375) (-3.8641101837158204e-05, 2.091796875) (-3.688389205932617e-05, 2.09375) (-3.5137741088867186e-05, 2.095703125) (-3.3387691497802734e-05, 2.09765625) (-3.161059761047363e-05, 2.099609375) (-2.9776447296142576e-05, 2.1015625) (-2.7855243682861328e-05, 2.103515625) (-2.5815643310546875e-05, 2.10546875) (-2.3629512786865233e-05, 2.107421875) (-2.1274629592895508e-05, 2.109375) (-1.8730859756469724e-05, 2.111328125) (-1.597785758972168e-05, 2.11328125) (-1.299698257446289e-05, 2.115234375) (-9.769588470458985e-06, 2.1171875) (-6.277357578277587e-06, 2.119140625) (-2.5047221183776855e-06, 2.12109375) (1.5654582977294922e-06, 2.123046875) (5.9530820846557615e-06, 2.125) (1.0677823066711425e-05, 2.126953125) (1.575923728942871e-05, 2.12890625) (2.1216312408447264e-05, 2.130859375) (2.706140327453613e-05, 2.1328125) (3.330108642578125e-05, 2.134765625) (3.994264984130859e-05, 2.13671875) (4.699054718017578e-05, 2.138671875) (5.44503173828125e-05, 2.140625) (6.233084106445312e-05, 2.142578125) (7.06302490234375e-05, 2.14453125) (7.933596801757812e-05, 2.146484375) (8.843196105957031e-05, 2.1484375) (9.789498138427735e-05, 2.150390625) (0.00010769715881347655, 2.15234375) (0.0001178099594116211, 2.154296875) (0.00012818777465820313, 2.15625) (0.00013876937866210936, 2.158203125) (0.00014949591064453125, 2.16015625) (0.00016030697631835936, 2.162109375) (0.00017115753173828124, 2.1640625) (0.00018202348327636718, 2.166015625) (0.00019287138366699217, 2.16796875) (0.0002036629638671875, 2.169921875) (0.00021436012268066405, 2.171875) (0.0002249163818359375, 2.173828125) (0.00023530755615234374, 2.17578125) (0.0002455359954833984, 2.177734375) (0.0002555925750732422, 2.1796875) (0.00026546319580078126, 2.181640625) (0.00027513873291015625, 2.18359375) (0.00028460382080078126, 2.185546875) (0.00029387509155273433, 2.1875) (0.00030300204467773436, 2.189453125) (0.0003120165405273437, 2.19140625) (0.00032094024658203124, 2.193359375) (0.0003297646484375, 2.1953125) (0.0003384376525878906, 2.197265625) (0.000346920654296875, 2.19921875) (0.00035518429565429687, 2.201171875) (0.0003631827392578125, 2.203125) (0.00037087152099609375, 2.205078125) (0.0003781665344238281, 2.20703125) (0.0003849337463378906, 2.208984375) (0.000391069580078125, 2.2109375) (0.00039649258422851563, 2.212890625) (0.0004011106262207031, 2.21484375) (0.00040484027099609374, 2.216796875) (0.0004075591430664062, 2.21875) (0.00040910107421875, 2.220703125) (0.0004093291015625, 2.22265625) (0.0004081286010742187, 2.224609375) (0.00040541204833984375, 2.2265625) (0.0004011387329101562, 2.228515625) (0.0003952633666992187, 2.23046875) (0.0003877376403808594, 2.232421875) (0.00037855096435546876, 2.234375) (0.00036770941162109374, 2.236328125) (0.00035527465820312497, 2.23828125) (0.00034137939453125, 2.240234375) (0.000326133544921875, 2.2421875) (0.0003096321716308594, 2.244140625) (0.0002919998168945312, 2.24609375) (0.0002733703918457031, 2.248046875) (0.0002539216156005859, 2.25) (0.00023388330078125, 2.251953125) (0.00021347660827636717, 2.25390625) (0.00019291293334960938, 2.255859375) (0.00017241342163085935, 2.2578125) (0.00015218945312499998, 2.259765625) (0.00013245007324218748, 2.26171875) (0.00011340355682373046, 2.263671875) (9.522702026367187e-05, 2.265625) (7.807813262939452e-05, 2.267578125) (6.20703773498535e-05, 2.26953125) (4.7257781982421875e-05, 2.271484375) (3.3695945739746094e-05, 2.2734375) (2.143636703491211e-05, 2.275390625) (1.0499067306518554e-05, 2.27734375) (8.839662075042724e-07, 2.279296875) (-7.442920207977294e-06, 2.28125) (-1.455738639831543e-05, 2.283203125) (-2.0551471710205077e-05, 2.28515625) (-2.5525062561035156e-05, 2.287109375) (-2.961446762084961e-05, 2.2890625) (-3.298041534423828e-05, 2.291015625) (-3.5773353576660156e-05, 2.29296875) (-3.813697433471679e-05, 2.294921875) (-4.0202636718749996e-05, 2.296875) (-4.2089805603027345e-05, 2.298828125) (-4.389746856689453e-05, 2.30078125) (-4.569678497314453e-05, 2.302734375) (-4.754510116577148e-05, 2.3046875) (-4.9483695983886714e-05, 2.306640625) (-5.154158401489258e-05, 2.30859375) (-5.373751068115234e-05, 2.310546875) (-5.607698059082031e-05, 2.3125) (-5.854911804199219e-05, 2.314453125) (-6.112442779541016e-05, 2.31640625) (-6.376403045654296e-05, 2.318359375) (-6.64029312133789e-05, 2.3203125) (-6.89542236328125e-05, 2.322265625) (-7.134858703613281e-05, 2.32421875) (-7.353166198730468e-05, 2.326171875) (-7.54552230834961e-05, 2.328125) (-7.708155822753905e-05, 2.330078125) (-7.838272094726563e-05, 2.33203125) (-7.934033203125e-05, 2.333984375) (-7.995487976074219e-05, 2.3359375) (-8.024534606933594e-05, 2.337890625) (-8.022979736328124e-05, 2.33984375) (-7.992704010009765e-05, 2.341796875) (-7.935862731933593e-05, 2.34375) (-7.854769897460937e-05, 2.345703125) (-7.75285415649414e-05, 2.34765625) (-7.634167480468749e-05, 2.349609375) (-7.503530883789062e-05, 2.3515625) (-7.366490173339843e-05, 2.353515625) (-7.227481079101562e-05, 2.35546875) (-7.089874267578125e-05, 2.357421875) (-6.956677246093749e-05, 2.359375) (-6.830235290527343e-05, 2.361328125) (-6.712354278564453e-05, 2.36328125) (-6.604508972167968e-05, 2.365234375) (-6.507070922851562e-05, 2.3671875) (-6.419371032714843e-05, 2.369140625) (-6.341069793701171e-05, 2.37109375) (-6.272024154663085e-05, 2.373046875) (-6.212041473388671e-05, 2.375) (-6.161045455932618e-05, 2.376953125) (-6.118540954589843e-05, 2.37890625) (-6.08369140625e-05, 2.380859375) (-6.055661010742187e-05, 2.3828125) (-6.033566284179687e-05, 2.384765625) (-6.016647720336914e-05, 2.38671875) (-6.004308700561523e-05, 2.388671875) (-5.995970916748046e-05, 2.390625) (-5.991129302978515e-05, 2.392578125) (-5.989421081542969e-05, 2.39453125) (-5.990547943115234e-05, 2.396484375) (-5.994379425048828e-05, 2.3984375) (-6.000948333740234e-05, 2.400390625) (-6.0101051330566404e-05, 2.40234375) (-6.021546173095703e-05, 2.404296875) (-6.034941864013672e-05, 2.40625) (-6.0498821258544916e-05, 2.408203125) (-6.0659851074218746e-05, 2.41015625) (-6.082926940917969e-05, 2.412109375) (-6.100312805175781e-05, 2.4140625) (-6.117693328857422e-05, 2.416015625) (-6.134725952148437e-05, 2.41796875) (-6.151153564453125e-05, 2.419921875) (-6.16677017211914e-05, 2.421875) (-6.181440734863281e-05, 2.423828125) (-6.195020675659179e-05, 2.42578125) (-6.207352066040039e-05, 2.427734375) (-6.218338012695312e-05, 2.4296875) (-6.227932357788086e-05, 2.431640625) (-6.236100006103516e-05, 2.43359375) (-6.242826843261719e-05, 2.435546875) (-6.24810333251953e-05, 2.4375) (-6.251923370361328e-05, 2.439453125) (-6.254299926757812e-05, 2.44140625) (-6.255262756347656e-05, 2.443359375) (-6.254837799072265e-05, 2.4453125) (-6.253049087524414e-05, 2.447265625) (-6.24991226196289e-05, 2.44921875) (-6.24543228149414e-05, 2.451171875) (-6.239611053466797e-05, 2.453125) (-6.232441329956055e-05, 2.455078125) (-6.223920440673828e-05, 2.45703125) (-6.214051055908203e-05, 2.458984375) (-6.20283432006836e-05, 2.4609375) (-6.190276336669922e-05, 2.462890625) (-6.176399230957031e-05, 2.46484375) (-6.16124267578125e-05, 2.466796875) (-6.144856262207031e-05, 2.46875) (-6.127303314208984e-05, 2.470703125) (-6.108660888671875e-05, 2.47265625) (-6.0890129089355465e-05, 2.474609375) (-6.068468856811523e-05, 2.4765625) (-6.047156524658203e-05, 2.478515625) (-6.0251953124999996e-05, 2.48046875) (-6.0026943206787106e-05, 2.482421875) (-5.97977066040039e-05, 2.484375) (-5.956542205810547e-05, 2.486328125) (-5.9331428527832026e-05, 2.48828125) (-5.909721755981445e-05, 2.490234375) (-5.8864330291748044e-05, 2.4921875) (-5.8634349822998045e-05, 2.494140625) (-5.840911102294922e-05, 2.49609375) (-5.819068145751953e-05, 2.498046875) (-5.7981369018554686e-05, 2.5) (-5.778372192382812e-05, 2.501953125) (-5.7600341796875e-05, 2.50390625) (-5.743395233154297e-05, 2.505859375) (-5.728736114501953e-05, 2.5078125) (-5.7163459777832026e-05, 2.509765625) (-5.706520843505859e-05, 2.51171875) (-5.699562835693359e-05, 2.513671875) (-5.695769500732422e-05, 2.515625) (-5.695429992675781e-05, 2.517578125) (-5.698826217651367e-05, 2.51953125) (-5.706229019165039e-05, 2.521484375) (-5.717896270751953e-05, 2.5234375) (-5.7340675354003905e-05, 2.525390625) (-5.754948806762695e-05, 2.52734375) (-5.78070068359375e-05, 2.529296875) (-5.811442184448242e-05, 2.53125) (-5.847246170043945e-05, 2.533203125) (-5.888137817382812e-05, 2.53515625) (-5.934084701538086e-05, 2.537109375) (-5.985000610351562e-05, 2.5390625) (-6.04073257446289e-05, 2.541015625) (-6.1010742187499996e-05, 2.54296875) (-6.16577033996582e-05, 2.544921875) (-6.234504699707031e-05, 2.546875) (-6.306893157958984e-05, 2.548828125) (-6.382481384277344e-05, 2.55078125) (-6.460740661621093e-05, 2.552734375) (-6.541067504882813e-05, 2.5546875) (-6.622789764404296e-05, 2.556640625) (-6.705165100097656e-05, 2.55859375) (-6.787371826171874e-05, 2.560546875) (-6.868520355224609e-05, 2.5625) (-6.947657775878906e-05, 2.564453125) (-7.023785400390625e-05, 2.56640625) (-7.095877075195313e-05, 2.568359375) (-7.162876892089843e-05, 2.5703125) (-7.223716735839844e-05, 2.572265625) (-7.277308654785156e-05, 2.57421875) (-7.322544860839844e-05, 2.576171875) (-7.358320617675781e-05, 2.578125) (-7.383558654785156e-05, 2.580078125) (-7.3971923828125e-05, 2.58203125) (-7.39816436767578e-05, 2.583984375) (-7.385443115234374e-05, 2.5859375) (-7.358013153076172e-05, 2.587890625) (-7.314925384521484e-05, 2.58984375) (-7.25533447265625e-05, 2.591796875) (-7.178482818603515e-05, 2.59375) (-7.083688354492187e-05, 2.595703125) (-6.97037353515625e-05, 2.59765625) (-6.83807373046875e-05, 2.599609375) (-6.686433410644531e-05, 2.6015625) (-6.515245056152344e-05, 2.603515625) (-6.324415588378906e-05, 2.60546875) (-6.11394157409668e-05, 2.607421875) (-5.8839454650878906e-05, 2.609375) (-5.6346958160400386e-05, 2.611328125) (-5.366610717773437e-05, 2.61328125) (-5.0802772521972654e-05, 2.615234375) (-4.776456832885742e-05, 2.6171875) (-4.456042861938476e-05, 2.619140625) (-4.1200912475585933e-05, 2.62109375) (-3.7698471069335934e-05, 2.623046875) (-3.406714248657226e-05, 2.625) (-3.032270050048828e-05, 2.626953125) (-2.6482143402099607e-05, 2.62890625) (-2.2563068389892576e-05, 2.630859375) (-1.858405876159668e-05, 2.6328125) (-1.4564592361450195e-05, 2.634765625) (-1.0525025367736816e-05, 2.63671875) (-6.486848354339599e-06, 2.638671875) (-2.4718074798583983e-06, 2.640625) (1.4989210367202758e-06, 2.642578125) (5.403285980224609e-06, 2.64453125) (9.218049049377441e-06, 2.646484375) (1.2919053077697754e-05, 2.6484375) (1.648046875e-05, 2.650390625) (1.987668228149414e-05, 2.65234375) (2.3083662033081055e-05, 2.654296875) (2.6077365875244138e-05, 2.65625) (2.8833446502685546e-05, 2.658203125) (3.1329120635986326e-05, 2.66015625) (3.354328155517578e-05, 2.662109375) (3.5458068847656246e-05, 2.6640625) (3.7060916900634764e-05, 2.666015625) (3.8340675354003904e-05, 2.66796875) (3.928623199462891e-05, 2.669921875) (3.988745498657226e-05, 2.671875) (4.0134391784667966e-05, 2.673828125) (4.0019454956054686e-05, 2.67578125) (3.9538734436035154e-05, 2.677734375) (3.869009780883789e-05, 2.6796875) (3.747222900390625e-05, 2.681640625) (3.588689422607422e-05, 2.68359375) (3.3939361572265626e-05, 2.685546875) (3.164125823974609e-05, 2.6875) (2.9011940002441405e-05, 2.689453125) (2.607010459899902e-05, 2.69140625) (2.2832489013671873e-05, 2.693359375) (1.930943489074707e-05, 2.6953125) (1.5501659393310546e-05, 2.697265625) (1.141259479522705e-05, 2.69921875) (7.049779415130615e-06, 2.701171875) (2.4232494831085206e-06, 2.703125) (-2.4507460594177245e-06, 2.705078125) (-7.550392150878906e-06, 2.70703125) (-1.284836196899414e-05, 2.708984375) (-1.8302152633666992e-05, 2.7109375) (-2.3852638244628905e-05, 2.712890625) (-2.9439445495605467e-05, 2.71484375) (-3.500260162353516e-05, 2.716796875) (-4.049118041992187e-05, 2.71875) (-4.586513900756836e-05, 2.720703125) (-5.107965087890625e-05, 2.72265625) (-5.608973693847656e-05, 2.724609375) (-6.0838981628417965e-05, 2.7265625) (-6.525685119628906e-05, 2.728515625) (-6.928044128417969e-05, 2.73046875) (-7.285064697265624e-05, 2.732421875) (-7.592364501953125e-05, 2.734375) (-7.849117279052733e-05, 2.736328125) (-8.056781768798827e-05, 2.73828125) (-8.218672943115234e-05, 2.740234375) (-8.340909576416015e-05, 2.7421875) (-8.431198120117187e-05, 2.744140625) (-8.4994384765625e-05, 2.74609375) (-8.557952117919922e-05, 2.748046875) (-8.61723403930664e-05, 2.75) (-8.686349487304688e-05, 2.751953125) (-8.772499084472655e-05, 2.75390625) (-8.879079437255859e-05, 2.755859375) (-9.019351196289061e-05, 2.7578125) (-9.21630859375e-05, 2.759765625) (-9.482925415039062e-05, 2.76171875) (-9.82645263671875e-05, 2.763671875) (-0.00010239348602294922, 2.765625) (-0.00010685125732421875, 2.767578125) (-0.00011129055786132812, 2.76953125) (-0.00011543058776855468, 2.771484375) (-0.00011869888305664062, 2.7734375) (-0.00012042547607421874, 2.775390625) (-0.00012024838256835937, 2.77734375) (-0.0001179065933227539, 2.779296875) (-0.00011359302520751952, 2.78125) (-0.00010847140502929687, 2.783203125) (-0.00010383584594726562, 2.78515625) (-0.00010094075012207031, 2.787109375) (-0.0001017804946899414, 2.7890625) (-0.00010695245361328124, 2.791015625) (-0.0001144012451171875, 2.79296875) (-0.00012204757690429687, 2.794921875) (-0.00012696906280517577, 2.796875) (-0.0001283596649169922, 2.798828125) (-0.00013245565795898438, 2.80078125) (-0.00014419529724121093, 2.802734375) (-0.00016341764831542967, 2.8046875) (-0.00018363308715820312, 2.806640625) (-0.00018425141906738281, 2.80859375) (-0.00014354795837402342, 2.810546875) (-5.021172332763672e-05, 2.8125) (9.751717376708984e-05, 2.814453125) (0.00028186163330078123, 2.81640625) (0.0004740448608398437, 2.818359375) (0.0006473176879882813, 2.8203125) (0.0007756721191406249, 2.822265625) (0.0008429614257812499, 2.82421875) (0.0008442132568359374, 2.826171875) (0.0007807845458984374, 2.828125) (0.0006616025390625, 2.830078125) (0.0005017507934570312, 2.83203125) (0.00031942041015625, 2.833984375) (0.00013413180541992187, 2.8359375) (-3.2438209533691406e-05, 2.837890625) (-0.00016369903564453125, 2.83984375) (-0.00025113778686523434, 2.841796875) (-0.000292578125, 2.84375) (-0.0002976177062988281, 2.845703125) (-0.00027899755859375, 2.84765625) (-0.0002472276916503906, 2.849609375) (-0.00021344042968749998, 2.8515625) (-0.0001811871643066406, 2.853515625) (-0.00015140542602539063, 2.85546875) (-0.00012607862091064452, 2.857421875) (-0.00010232781982421875, 2.859375) (-8.036093139648438e-05, 2.861328125) (-6.18362159729004e-05, 2.86328125) (-4.6576206207275386e-05, 2.865234375) (-3.828103256225586e-05, 2.8671875) (-3.828689575195312e-05, 2.869140625) (-4.526042175292968e-05, 2.87109375) (-5.834420776367187e-05, 2.873046875) (-7.388043212890624e-05, 2.875) (-8.873648071289062e-05, 2.876953125) (-0.00010134300231933593, 2.87890625) (-0.00011004124450683593, 2.880859375) (-0.00011452494812011718, 2.8828125) (-0.00011516960906982422, 2.884765625) (-0.00011226540374755859, 2.88671875) (-0.00010665429687499999, 2.888671875) (-9.939845275878906e-05, 2.890625) (-9.145290374755859e-05, 2.892578125) (-8.394985961914062e-05, 2.89453125) (-7.774856567382812e-05, 2.896484375) (-7.319694519042969e-05, 2.8984375) (-7.042494201660155e-05, 2.900390625) (-6.932172393798827e-05, 2.90234375) (-6.959613037109375e-05, 2.904296875) (-7.09436798095703e-05, 2.90625) (-7.299651336669921e-05, 2.908203125) (-7.526546478271484e-05, 2.91015625) (-7.737274169921874e-05, 2.912109375) (-7.912638854980469e-05, 2.9140625) (-8.042346954345703e-05, 2.916015625) (-8.127809143066406e-05, 2.91796875) (-8.173139190673828e-05, 2.919921875) (-8.17769317626953e-05, 2.921875) (-8.142913818359374e-05, 2.923828125) (-8.073835754394531e-05, 2.92578125) (-7.974459838867187e-05, 2.927734375) (-7.84744644165039e-05, 2.9296875) (-7.694539642333984e-05, 2.931640625) (-7.515037536621093e-05, 2.93359375) (-7.309251403808594e-05, 2.935546875) (-7.08106460571289e-05, 2.9375) (-6.83572769165039e-05, 2.939453125) (-6.57982177734375e-05, 2.94140625) (-6.320218658447265e-05, 2.943359375) (-6.0612945556640624e-05, 2.9453125) (-5.805770492553711e-05, 2.947265625) (-5.5557884216308594e-05, 2.94921875) (-5.312598419189453e-05, 2.951171875) (-5.076872253417968e-05, 2.953125) (-4.8487506866455077e-05, 2.955078125) (-4.627048110961914e-05, 2.95703125) (-4.4095340728759765e-05, 2.958984375) (-4.194405364990234e-05, 2.9609375) (-3.980179214477539e-05, 2.962890625) (-3.765434646606445e-05, 2.96484375) (-3.548828125e-05, 2.966796875) (-3.328337860107422e-05, 2.96875) (-3.10140266418457e-05, 2.970703125) (-2.8654794692993164e-05, 2.97265625) (-2.6182004928588866e-05, 2.974609375) (-2.3574859619140625e-05, 2.9765625) (-2.0813541412353513e-05, 2.978515625) (-1.787672233581543e-05, 2.98046875) (-1.4742908477783202e-05, 2.982421875) (-1.1392916679382324e-05, 2.984375) (-7.80898666381836e-06, 2.986328125) (-3.975385189056396e-06, 2.98828125) (1.2290501594543457e-07, 2.990234375) (4.504443645477295e-06, 2.9921875) (9.184736251831054e-06, 2.994140625) (1.4173934936523436e-05, 2.99609375) (1.9484075546264647e-05, 2.998046875) (2.5126449584960938e-05, 3.0) (3.11155948638916e-05, 3.001953125) (3.7472438812255856e-05, 3.00390625) (4.4208679199218746e-05, 3.005859375) (5.132399749755859e-05, 3.0078125) (5.881406784057617e-05, 3.009765625) (6.666767883300781e-05, 3.01171875) (7.486818695068359e-05, 3.013671875) (8.339807128906249e-05, 3.015625) (9.222193908691406e-05, 3.017578125) (0.00010128691864013672, 3.01953125) (0.00011054281616210937, 3.021484375) (0.00011993911743164062, 3.0234375) (0.00012944195556640624, 3.025390625) (0.00013903968811035156, 3.02734375) (0.00014871177673339843, 3.029296875) (0.0001584324035644531, 3.03125) (0.00016817541503906248, 3.033203125) (0.00017790545654296875, 3.03515625) (0.00018760989379882812, 3.037109375) (0.00019730343627929686, 3.0390625) (0.00020698692321777343, 3.041015625) (0.00021665313720703125, 3.04296875) (0.000226301513671875, 3.044921875) (0.0002359253234863281, 3.046875) (0.0002455538330078125, 3.048828125) (0.0002552542724609375, 3.05078125) (0.00026506878662109376, 3.052734375) (0.000275019287109375, 3.0546875) (0.00028509249877929686, 3.056640625) (0.00029522460937499997, 3.05859375) (0.0003053581848144531, 3.060546875) (0.00031544067382812497, 3.0625) (0.00032539300537109375, 3.064453125) (0.00033512701416015623, 3.06640625) (0.00034451690673828125, 3.068359375) (0.0003533902282714844, 3.0703125) (0.0003616112060546875, 3.072265625) (0.0003690772705078125, 3.07421875) (0.00037567709350585935, 3.076171875) (0.00038131259155273434, 3.078125) (0.0003858448486328125, 3.080078125) (0.00038908605957031246, 3.08203125) (0.0003908965454101562, 3.083984375) (0.00039118099975585935, 3.0859375) (0.0003898824768066406, 3.087890625) (0.0003870048828125, 3.08984375) (0.000382554931640625, 3.091796875) (0.00037653784179687497, 3.09375) (0.0003690150451660156, 3.095703125) (0.0003600857849121094, 3.09765625) (0.0003498923645019531, 3.099609375) (0.0003386311340332031, 3.1015625) (0.0003264573974609375, 3.103515625) (0.0003134837646484375, 3.10546875) (0.0002998365478515625, 3.107421875) (0.0002856350402832031, 3.109375) (0.0002710314636230469, 3.111328125) (0.0002562229919433594, 3.11328125) (0.00024136364746093748, 3.115234375) (0.00022656564331054687, 3.1171875) (0.00021192819213867187, 3.119140625) (0.00019751840209960938, 3.12109375) (0.00018340435791015623, 3.123046875) (0.0001696629180908203, 3.125) (0.00015632156372070313, 3.126953125) (0.00014336923217773436, 3.12890625) (0.00013077239990234374, 3.130859375) (0.00011846607971191406, 3.1328125) (0.00010641854095458984, 3.134765625) (9.463624572753906e-05, 3.13671875) (8.311800384521484e-05, 3.138671875) (7.186693572998047e-05, 3.140625) (6.0875617980957025e-05, 3.142578125) (5.011589813232422e-05, 3.14453125) (3.958559799194336e-05, 3.146484375) (2.930865478515625e-05, 3.1484375) (1.9302467346191405e-05, 3.150390625) (9.58683681488037e-06, 3.15234375) (1.7728781700134278e-07, 3.154296875) (-8.921947479248047e-06, 3.15625) (-1.7683767318725584e-05, 3.158203125) (-2.6061325073242186e-05, 3.16015625) (-3.400664520263672e-05, 3.162109375) (-4.1466293334960935e-05, 3.1640625) (-4.84050064086914e-05, 3.166015625) (-5.480980682373047e-05, 3.16796875) (-6.06691665649414e-05, 3.169921875) (-6.597650909423828e-05, 3.171875) (-7.07315673828125e-05, 3.173828125) (-7.493563842773437e-05, 3.17578125) (-7.860334777832031e-05, 3.177734375) (-8.176316833496093e-05, 3.1796875) (-8.44392852783203e-05, 3.181640625) (-8.66531753540039e-05, 3.18359375) (-8.842720031738281e-05, 3.185546875) (-8.978128051757812e-05, 3.1875) (-9.074314880371094e-05, 3.189453125) (-9.134854125976562e-05, 3.19140625) (-9.163230895996093e-05, 3.193359375) (-9.162933349609375e-05, 3.1953125) (-9.137287902832031e-05, 3.197265625) (-9.0892822265625e-05, 3.19921875) (-9.021930694580078e-05, 3.201171875) (-8.938258361816406e-05, 3.203125) (-8.840935516357421e-05, 3.205078125) (-8.73235092163086e-05, 3.20703125) (-8.6146484375e-05, 3.208984375) (-8.489672851562499e-05, 3.2109375) (-8.359381103515624e-05, 3.212890625) (-8.225849151611328e-05, 3.21484375) (-8.09103775024414e-05, 3.216796875) (-7.956837463378906e-05, 3.21875) (-7.824993896484375e-05, 3.220703125) (-7.697064208984374e-05, 3.22265625) (-7.57453155517578e-05, 3.224609375) (-7.458790588378905e-05, 3.2265625) (-7.350985717773437e-05, 3.228515625) (-7.252018737792969e-05, 3.23046875) (-7.16259536743164e-05, 3.232421875) (-7.083210754394531e-05, 3.234375) (-7.014224243164062e-05, 3.236328125) (-6.95587158203125e-05, 3.23828125) (-6.908220672607422e-05, 3.240234375) (-6.871173095703124e-05, 3.2421875) (-6.844510650634766e-05, 3.244140625) (-6.827896118164063e-05, 3.24609375) (-6.820876312255859e-05, 3.248046875) (-6.822904205322265e-05, 3.25) (-6.833321380615235e-05, 3.251953125) (-6.851374816894531e-05, 3.25390625) (-6.876261901855468e-05, 3.255859375) (-6.9071533203125e-05, 3.2578125) (-6.9431884765625e-05, 3.259765625) (-6.983499145507812e-05, 3.26171875) (-7.027220153808594e-05, 3.263671875) (-7.07349395751953e-05, 3.265625) (-7.121501922607421e-05, 3.267578125) (-7.170477294921875e-05, 3.26953125) (-7.219672393798828e-05, 3.271484375) (-7.268370056152343e-05, 3.2734375) (-7.315873718261719e-05, 3.275390625) (-7.361505889892578e-05, 3.27734375) (-7.404643249511718e-05, 3.279296875) (-7.444717407226562e-05, 3.28125) (-7.481201934814453e-05, 3.283203125) (-7.513612365722656e-05, 3.28515625) (-7.541516113281249e-05, 3.287109375) (-7.564521789550781e-05, 3.2890625) (-7.582322692871094e-05, 3.291015625) (-7.594688415527343e-05, 3.29296875) (-7.601448059082031e-05, 3.294921875) (-7.602487182617187e-05, 3.296875) (-7.597744750976562e-05, 3.298828125) (-7.587206268310546e-05, 3.30078125) (-7.570923614501953e-05, 3.302734375) (-7.549018096923828e-05, 3.3046875) (-7.521660614013672e-05, 3.306640625) (-7.489068603515625e-05, 3.30859375) (-7.45151138305664e-05, 3.310546875) (-7.409292602539063e-05, 3.3125) (-7.36276397705078e-05, 3.314453125) (-7.31231918334961e-05, 3.31640625) (-7.258369445800782e-05, 3.318359375) (-7.201335906982421e-05, 3.3203125) (-7.141642761230468e-05, 3.322265625) (-7.079709625244141e-05, 3.32421875) (-7.015953826904296e-05, 3.326171875) (-6.950792694091797e-05, 3.328125) (-6.884630584716797e-05, 3.330078125) (-6.81785888671875e-05, 3.33203125) (-6.750859069824218e-05, 3.333984375) (-6.683995056152343e-05, 3.3359375) (-6.617626190185547e-05, 3.337890625) (-6.552102661132812e-05, 3.33984375) (-6.487754821777343e-05, 3.341796875) (-6.424897766113281e-05, 3.34375) (-6.363822937011718e-05, 3.345703125) (-6.30480499267578e-05, 3.34765625) (-6.248111343383788e-05, 3.349609375) (-6.194004440307617e-05, 3.3515625) (-6.142737579345703e-05, 3.353515625) (-6.094557189941406e-05, 3.35546875) (-6.049710464477539e-05, 3.357421875) (-6.0084438323974606e-05, 3.359375) (-5.971009063720703e-05, 3.361328125) (-5.937662124633789e-05, 3.36328125) (-5.908649444580078e-05, 3.365234375) (-5.8842041015624995e-05, 3.3671875) (-5.864547729492187e-05, 3.369140625) (-5.849884796142578e-05, 3.37109375) (-5.8404022216796875e-05, 3.373046875) (-5.836277389526367e-05, 3.375) (-5.8376613616943354e-05, 3.376953125) (-5.844685363769531e-05, 3.37890625) (-5.857463073730468e-05, 3.380859375) (-5.8760875701904294e-05, 3.3828125) (-5.900640869140625e-05, 3.384765625) (-5.931195831298828e-05, 3.38671875) (-5.967801666259765e-05, 3.388671875) (-6.010476684570312e-05, 3.390625) (-6.0592216491699213e-05, 3.392578125) (-6.114004135131835e-05, 3.39453125) (-6.174773406982422e-05, 3.396484375) (-6.241457748413086e-05, 3.3984375) (-6.313945388793945e-05, 3.400390625) (-6.392079925537109e-05, 3.40234375) (-6.47567367553711e-05, 3.404296875) (-6.564498138427733e-05, 3.40625) (-6.658284759521485e-05, 3.408203125) (-6.756729888916015e-05, 3.41015625) (-6.859470367431641e-05, 3.412109375) (-6.966078186035156e-05, 3.4140625) (-7.076076507568359e-05, 3.416015625) (-7.188919067382812e-05, 3.41796875) (-7.303990173339843e-05, 3.419921875) (-7.420614624023437e-05, 3.421875) (-7.538037872314453e-05, 3.423828125) (-7.655425262451171e-05, 3.42578125) (-7.771887969970703e-05, 3.427734375) (-7.886470031738282e-05, 3.4296875) (-7.998159790039062e-05, 3.431640625) (-8.105915069580078e-05, 3.43359375) (-8.208648681640625e-05, 3.435546875) (-8.30523452758789e-05, 3.4375) (-8.394544219970702e-05, 3.439453125) (-8.475439453124999e-05, 3.44140625) (-8.546789550781249e-05, 3.443359375) (-8.607495117187499e-05, 3.4453125) (-8.65645751953125e-05, 3.447265625) (-8.692573547363281e-05, 3.44921875) (-8.714797210693359e-05, 3.451171875) (-8.722122955322265e-05, 3.453125) (-8.713572692871094e-05, 3.455078125) (-8.688226318359375e-05, 3.45703125) (-8.645195770263672e-05, 3.458984375) (-8.583611297607421e-05, 3.4609375) (-8.502713012695312e-05, 3.462890625) (-8.40184097290039e-05, 3.46484375) (-8.280406188964844e-05, 3.466796875) (-8.137937927246094e-05, 3.46875) (-7.974071502685547e-05, 3.470703125) (-7.78853530883789e-05, 3.47265625) (-7.58121337890625e-05, 3.474609375) (-7.352131652832031e-05, 3.4765625) (-7.101425170898437e-05, 3.478515625) (-6.829382324218749e-05, 3.48046875) (-6.536451721191406e-05, 3.482421875) (-6.223213577270507e-05, 3.484375) (-5.890433502197265e-05, 3.486328125) (-5.5390663146972654e-05, 3.48828125) (-5.170204925537109e-05, 3.490234375) (-4.785147094726562e-05, 3.4921875) (-4.385367584228515e-05, 3.494140625) (-3.972466659545898e-05, 3.49609375) (-3.548220443725586e-05, 3.498046875) (-3.114556312561035e-05, 3.5) (-2.6734710693359372e-05, 3.501953125) (-2.227067756652832e-05, 3.50390625) (-1.7775205612182616e-05, 3.505859375) (-1.327004623413086e-05, 3.5078125) (-8.777737617492675e-06, 3.509765625) (-4.321620941162109e-06, 3.51171875) (7.538890838623047e-08, 3.513671875) (4.3902587890625e-06, 3.515625) (8.598812103271484e-06, 3.517578125) (1.267643928527832e-05, 3.51953125) (1.6597274780273436e-05, 3.521484375) (2.03338565826416e-05, 3.5234375) (2.3859725952148438e-05, 3.525390625) (2.714949798583984e-05, 3.52734375) (3.017739677429199e-05, 3.529296875) (3.2918624877929686e-05, 3.53125) (3.5350887298583984e-05, 3.533203125) (3.7453990936279297e-05, 3.53515625) (3.921185302734375e-05, 3.537109375) (4.0612907409667964e-05, 3.5390625) (4.164563751220703e-05, 3.541015625) (4.2298980712890624e-05, 3.54296875) (4.256446075439453e-05, 3.544921875) (4.2434608459472653e-05, 3.546875) (4.190482330322265e-05, 3.548828125) (4.0974639892578125e-05, 3.55078125) (3.9644287109375e-05, 3.552734375) (3.7916141510009766e-05, 3.5546875) (3.579821014404297e-05, 3.556640625) (3.330118942260742e-05, 3.55859375) (3.0440782546997068e-05, 3.560546875) (2.7239772796630858e-05, 3.5625) (2.3716732025146484e-05, 3.564453125) (1.988528251647949e-05, 3.56640625) (1.5755397796630858e-05, 3.568359375) (1.1326558113098144e-05, 3.5703125) (6.60143518447876e-06, 3.572265625) (1.594258666038513e-06, 3.57421875) (-3.6812524795532225e-06, 3.576171875) (-9.209421157836913e-06, 3.578125) (-1.4963721275329589e-05, 3.580078125) (-2.09135684967041e-05, 3.58203125) (-2.7014102935791014e-05, 3.583984375) (-3.3196395874023434e-05, 3.5859375) (-3.9396053314208985e-05, 3.587890625) (-4.555501937866211e-05, 3.58984375) (-5.161339569091797e-05, 3.591796875) (-5.7527343749999995e-05, 3.59375) (-6.324767303466797e-05, 3.595703125) (-6.870586395263671e-05, 3.59765625) (-7.383241271972655e-05, 3.599609375) (-7.854869079589844e-05, 3.6015625) (-8.278173828125e-05, 3.603515625) (-8.649588775634765e-05, 3.60546875) (-8.96720733642578e-05, 3.607421875) (-9.228961181640625e-05, 3.609375) (-9.434492492675781e-05, 3.611328125) (-9.584657287597656e-05, 3.61328125) (-9.684158325195313e-05, 3.615234375) (-9.744813537597656e-05, 3.6171875) (-9.779293060302734e-05, 3.619140625) (-9.798332977294921e-05, 3.62109375) (-9.812102508544921e-05, 3.623046875) (-9.828352355957031e-05, 3.625) (-9.861055755615234e-05, 3.626953125) (-9.933580017089844e-05, 3.62890625) (-0.00010062446594238281, 3.630859375) (-0.00010256704711914062, 3.6328125) (-0.0001051532745361328, 3.634765625) (-0.00010817153930664062, 3.63671875) (-0.00011136068725585936, 3.638671875) (-0.00011446873474121094, 3.640625) (-0.0001170348892211914, 3.642578125) (-0.0001184493179321289, 3.64453125) (-0.00011833587646484375, 3.646484375) (-0.0001164324722290039, 3.6484375) (-0.00011275177001953124, 3.650390625) (-0.00010810516357421874, 3.65234375) (-0.00010354308319091796, 3.654296875) (-0.00010021395874023438, 3.65625) (-9.996605682373047e-05, 3.658203125) (-0.00010341812133789063, 3.66015625) (-0.00010928910064697265, 3.662109375) (-0.00011676583862304687, 3.6640625) (-0.00012431942749023436, 3.666015625) (-0.00013324819946289063, 3.66796875) (-0.00014876075744628905, 3.669921875) (-0.00017067204284667968, 3.671875) (-0.0001945321807861328, 3.673828125) (-0.0002079317169189453, 3.67578125) (-0.00019157077026367187, 3.677734375) (-0.00013810635375976563, 3.6796875) (-4.9210762023925776e-05, 3.681640625) (6.434862518310547e-05, 3.68359375) (0.00018411991882324219, 3.685546875) (0.0003055482788085937, 3.6875) (0.0004293565673828125, 3.689453125) (0.0005520701904296875, 3.69140625) (0.0006679522705078124, 3.693359375) (0.0007554615478515624, 3.6953125) (0.0007889652099609375, 3.697265625) (0.0007581636962890625, 3.69921875) (0.0006641337890624999, 3.701171875) (0.000522049560546875, 3.703125) (0.0003572313232421875, 3.705078125) (0.00018818516540527344, 3.70703125) (3.0113536834716794e-05, 3.708984375) (-0.0001009710235595703, 3.7109375) (-0.00019608502197265623, 3.712890625) (-0.0002504106903076172, 3.71484375) (-0.00026502093505859374, 3.716796875) (-0.0002528927764892578, 3.71875) (-0.00022869073486328124, 3.720703125) (-0.00020115219116210938, 3.72265625) (-0.00017520732116699218, 3.724609375) (-0.00014931362915039062, 3.7265625) (-0.00011952702331542969, 3.728515625) (-8.77308349609375e-05, 3.73046875) (-5.778012466430664e-05, 3.732421875) (-3.3417110443115233e-05, 3.734375) (-1.8947044372558592e-05, 3.736328125) (-1.5085654258728027e-05, 3.73828125) (-1.9926139831542967e-05, 3.740234375) (-3.150086212158203e-05, 3.7421875) (-4.703218460083008e-05, 3.744140625) (-6.346247100830077e-05, 3.74609375) (-7.864051818847656e-05, 3.748046875) (-9.110240173339843e-05, 3.75) (-9.971117401123047e-05, 3.751953125) (-0.00010415899658203124, 3.75390625) (-0.00010473204040527343, 3.755859375) (-0.00010190876770019531, 3.7578125) (-9.66200714111328e-05, 3.759765625) (-9.02244873046875e-05, 3.76171875) (-8.396940612792969e-05, 3.763671875) (-7.866043090820312e-05, 3.765625) (-7.483375549316406e-05, 3.767578125) (-7.265163421630859e-05, 3.76953125) (-7.201074981689452e-05, 3.771484375) (-7.279409790039062e-05, 3.7734375) (-7.472784423828124e-05, 3.775390625) (-7.733839416503907e-05, 3.77734375) (-8.011306762695312e-05, 3.779296875) (-8.267750549316406e-05, 3.78125) (-8.480654144287109e-05, 3.783203125) (-8.642862701416015e-05, 3.78515625) (-8.757190704345703e-05, 3.787109375) (-8.823435974121094e-05, 3.7890625) (-8.841290283203124e-05, 3.791015625) (-8.814151763916016e-05, 3.79296875) (-8.747744750976562e-05, 3.794921875) (-8.647857666015625e-05, 3.796875) (-8.518328857421875e-05, 3.798828125) (-8.36045913696289e-05, 3.80078125) (-8.173758697509766e-05, 3.802734375) (-7.959528350830078e-05, 3.8046875) (-7.72185821533203e-05, 3.806640625) (-7.466311645507812e-05, 3.80859375) (-7.19979248046875e-05, 3.810546875) (-6.928990173339843e-05, 3.8125) (-6.658426666259765e-05, 3.814453125) (-6.391120147705077e-05, 3.81640625) (-6.129344177246094e-05, 3.818359375) (-5.874646759033203e-05, 3.8203125) (-5.6281791687011716e-05, 3.822265625) (-5.390627288818359e-05, 3.82421875) (-5.161470794677734e-05, 3.826171875) (-4.939093780517578e-05, 3.828125) (-4.7220466613769526e-05, 3.830078125) (-4.509162902832031e-05, 3.83203125) (-4.2994132995605463e-05, 3.833984375) (-4.0916900634765625e-05, 3.8359375) (-3.884118270874023e-05, 3.837890625) (-3.674199676513672e-05, 3.83984375) (-3.45909309387207e-05, 3.841796875) (-3.236188888549805e-05, 3.84375) (-3.003464889526367e-05, 3.845703125) (-2.7589874267578125e-05, 3.84765625) (-2.5008163452148438e-05, 3.849609375) (-2.226949119567871e-05, 3.8515625) (-1.9352943420410156e-05, 3.853515625) (-1.623975372314453e-05, 3.85546875) (-1.2914109230041504e-05, 3.857421875) (-9.360013961791992e-06, 3.859375) (-5.558618545532227e-06, 3.861328125) (-1.4897402524948119e-06, 3.86328125) (2.8691399097442625e-06, 3.865234375) (7.537618160247802e-06, 3.8671875) (1.2529794692993164e-05, 3.869140625) (1.7862480163574218e-05, 3.87109375) (2.3552278518676757e-05, 3.873046875) (2.961783981323242e-05, 3.875) (3.6081169128417965e-05, 3.876953125) (4.295276260375976e-05, 3.87890625) (5.0230522155761715e-05, 3.880859375) (5.7907707214355464e-05, 3.8828125) (6.59715576171875e-05, 3.884765625) (7.440140533447266e-05, 3.88671875) (8.317250061035156e-05, 3.888671875) (9.224475097656249e-05, 3.890625) (0.00010156449890136718, 3.892578125) (0.0001110868911743164, 3.89453125) (0.00012076919555664062, 3.896484375) (0.00013057693481445312, 3.8984375) (0.00014048593139648436, 3.900390625) (0.0001504580383300781, 3.90234375) (0.00016045440673828124, 3.904296875) (0.00017043882751464844, 3.90625) (0.00018036723327636718, 3.908203125) (0.0001902124786376953, 3.91015625) (0.00019997003173828124, 3.912109375) (0.00020963397216796874, 3.9140625) (0.00021920756530761717, 3.916015625) (0.00022871871948242187, 3.91796875) (0.00023819702148437499, 3.919921875) (0.00024769796752929687, 3.921875) (0.0002572991638183594, 3.923828125) (0.00026703955078125, 3.92578125) (0.0002769361572265625, 3.927734375) (0.0002869832153320312, 3.9296875) (0.00029714990234375, 3.931640625) (0.00030742120361328123, 3.93359375) (0.00031777056884765625, 3.935546875) (0.00032814349365234375, 3.9375) (0.000338484130859375, 3.939453125) (0.00034871588134765624, 3.94140625) (0.00035873626708984375, 3.943359375) (0.000368454345703125, 3.9453125) (0.00037775628662109375, 3.947265625) (0.000386473388671875, 3.94921875) (0.00039443344116210936, 3.951171875) (0.0004014293212890625, 3.953125) (0.00040723144531249996, 3.955078125) (0.0004116748657226562, 3.95703125) (0.00041462460327148436, 3.958984375) (0.0004159709167480469, 3.9609375) (0.0004156331787109375, 3.962890625) (0.00041351611328125, 3.96484375) (0.00040955847167968747, 3.966796875) (0.0004037595825195312, 3.96875) (0.000396135498046875, 3.970703125) (0.00038672238159179683, 3.97265625) (0.000375571533203125, 3.974609375) (0.0003627121276855469, 3.9765625) (0.0003482236633300781, 3.978515625) (0.00033227215576171873, 3.98046875) (0.00031504232788085937, 3.982421875) (0.0002967664794921875, 3.984375) (0.00027769805908203126, 3.986328125) (0.00025803680419921873, 3.98828125) (0.00023798629760742187, 3.990234375) (0.00021775695800781248, 3.9921875) (0.00019755587768554686, 3.994140625) (0.00017761723327636717, 3.99609375) (0.00015813391113281248, 3.998046875) (0.00013923089599609373, 4.0) (0.00012102410888671875, 4.001953125) (0.00010362388610839843, 4.00390625) (8.715154266357421e-05, 4.005859375) (7.176579284667968e-05, 4.0078125) (5.756700134277343e-05, 4.009765625) (4.457051849365234e-05, 4.01171875) (3.27728385925293e-05, 4.013671875) (2.2128856658935546e-05, 4.015625) (1.2583248138427733e-05, 4.017578125) (4.110446453094483e-06, 4.01953125) (-3.3562660217285155e-06, 4.021484375) (-9.921672821044921e-06, 4.0234375) (-1.5708059310913087e-05, 4.025390625) (-2.0870603561401367e-05, 4.02734375) (-2.5525508880615232e-05, 4.029296875) (-2.9733123779296872e-05, 4.03125) (-3.355830383300781e-05, 4.033203125) (-3.7069400787353514e-05, 4.03515625) (-4.0355316162109374e-05, 4.037109375) (-4.354168319702148e-05, 4.0390625) (-4.6709930419921876e-05, 4.041015625) (-4.9885654449462885e-05, 4.04296875) (-5.309142303466797e-05, 4.044921875) (-5.633194732666015e-05, 4.046875) (-5.961397171020508e-05, 4.048828125) (-6.296076202392578e-05, 4.05078125) (-6.635218048095703e-05, 4.052734375) (-6.972994232177734e-05, 4.0546875) (-7.30235137939453e-05, 4.056640625) (-7.61435089111328e-05, 4.05859375) (-7.903236389160156e-05, 4.060546875) (-8.167256164550781e-05, 4.0625) (-8.40431900024414e-05, 4.064453125) (-8.612492370605468e-05, 4.06640625) (-8.78935317993164e-05, 4.068359375) (-8.931039428710937e-05, 4.0703125) (-9.036424255371094e-05, 4.072265625) (-9.107368469238281e-05, 4.07421875) (-9.145218658447265e-05, 4.076171875) (-9.151515197753905e-05, 4.078125) (-9.127613067626953e-05, 4.080078125) (-9.074120330810546e-05, 4.08203125) (-8.994146728515625e-05, 4.083984375) (-8.893048858642578e-05, 4.0859375) (-8.776461029052734e-05, 4.087890625) (-8.650572204589844e-05, 4.08984375) (-8.5200927734375e-05, 4.091796875) (-8.387865447998046e-05, 4.09375) (-8.256792449951172e-05, 4.095703125) (-8.129504394531249e-05, 4.09765625) (-8.008122253417969e-05, 4.099609375) (-7.894671630859375e-05, 4.1015625) (-7.790029907226562e-05, 4.103515625) (-7.693873596191407e-05, 4.10546875) (-7.606346130371094e-05, 4.107421875) (-7.527875518798828e-05, 4.109375) (-7.458820343017578e-05, 4.111328125) (-7.399761199951171e-05, 4.11328125) (-7.35052032470703e-05, 4.115234375) (-7.310144805908203e-05, 4.1171875) (-7.277726745605468e-05, 4.119140625) (-7.252308654785156e-05, 4.12109375) (-7.233061218261719e-05, 4.123046875) (-7.21944122314453e-05, 4.125) (-7.210812377929687e-05, 4.126953125) (-7.206468963623047e-05, 4.12890625) (-7.205965423583984e-05, 4.130859375) (-7.209024047851562e-05, 4.1328125) (-7.215501403808594e-05, 4.134765625) (-7.225447082519531e-05, 4.13671875) (-7.238670349121093e-05, 4.138671875) (-7.254745483398437e-05, 4.140625) (-7.273243713378905e-05, 4.142578125) (-7.293649291992187e-05, 4.14453125) (-7.315441131591797e-05, 4.146484375) (-7.338150787353516e-05, 4.1484375) (-7.361235809326172e-05, 4.150390625) (-7.384098052978516e-05, 4.15234375) (-7.40624771118164e-05, 4.154296875) (-7.427272033691406e-05, 4.15625) (-7.446814727783203e-05, 4.158203125) (-7.46461944580078e-05, 4.16015625) (-7.4804443359375e-05, 4.162109375) (-7.49406509399414e-05, 4.1640625) (-7.505322265624999e-05, 4.166015625) (-7.514102935791015e-05, 4.16796875) (-7.520348358154296e-05, 4.169921875) (-7.524053955078124e-05, 4.171875) (-7.525256347656249e-05, 4.173828125) (-7.524022674560546e-05, 4.17578125) (-7.520460510253906e-05, 4.177734375) (-7.514710998535156e-05, 4.1796875) (-7.506928253173828e-05, 4.181640625) (-7.497282409667969e-05, 4.18359375) (-7.485943603515625e-05, 4.185546875) (-7.473085021972656e-05, 4.1875) (-7.458879089355468e-05, 4.189453125) (-7.443498992919921e-05, 4.19140625) (-7.427105712890624e-05, 4.193359375) (-7.40983657836914e-05, 4.1953125) (-7.391841125488282e-05, 4.197265625) (-7.373265838623047e-05, 4.19921875) (-7.35426025390625e-05, 4.201171875) (-7.334977722167968e-05, 4.203125) (-7.315562438964844e-05, 4.205078125) (-7.296147918701172e-05, 4.20703125) (-7.276874542236327e-05, 4.208984375) (-7.257888793945312e-05, 4.2109375) (-7.239334869384765e-05, 4.212890625) (-7.22136459350586e-05, 4.21484375) (-7.204110717773438e-05, 4.216796875) (-7.187679290771484e-05, 4.21875) (-7.172166442871093e-05, 4.220703125) (-7.157648468017578e-05, 4.22265625) (-7.144179534912109e-05, 4.224609375) (-7.131803131103516e-05, 4.2265625) (-7.120536804199218e-05, 4.228515625) (-7.110375976562499e-05, 4.23046875) (-7.101305389404296e-05, 4.232421875) (-7.093307495117188e-05, 4.234375) (-7.086367797851562e-05, 4.236328125) (-7.080485534667968e-05, 4.23828125) (-7.075670623779296e-05, 4.240234375) (-7.071945190429687e-05, 4.2421875) (-7.069351196289062e-05, 4.244140625) (-7.067947387695312e-05, 4.24609375) (-7.067810821533203e-05, 4.248046875) (-7.069036865234375e-05, 4.25) (-7.07173080444336e-05, 4.251953125) (-7.076007080078125e-05, 4.25390625) (-7.081983184814453e-05, 4.255859375) (-7.08978042602539e-05, 4.2578125) (-7.099516296386718e-05, 4.259765625) (-7.111316680908203e-05, 4.26171875) (-7.125313568115234e-05, 4.263671875) (-7.141632843017578e-05, 4.265625) (-7.160392761230469e-05, 4.267578125) (-7.181704711914063e-05, 4.26953125) (-7.205657958984375e-05, 4.271484375) (-7.232334899902344e-05, 4.2734375) (-7.261796569824218e-05, 4.275390625) (-7.294065856933594e-05, 4.27734375) (-7.329130554199218e-05, 4.279296875) (-7.366943359374999e-05, 4.28125) (-7.407421112060546e-05, 4.283203125) (-7.45045166015625e-05, 4.28515625) (-7.49590072631836e-05, 4.287109375) (-7.543595886230469e-05, 4.2890625) (-7.593329620361328e-05, 4.291015625) (-7.644863891601562e-05, 4.29296875) (-7.697914123535156e-05, 4.294921875) (-7.752147674560547e-05, 4.296875) (-7.807183074951171e-05, 4.298828125) (-7.862564086914062e-05, 4.30078125) (-7.917758178710938e-05, 4.302734375) (-7.972165679931641e-05, 4.3046875) (-8.02510757446289e-05, 4.306640625) (-8.075833129882812e-05, 4.30859375) (-8.12354736328125e-05, 4.310546875) (-8.167395019531249e-05, 4.3125) (-8.206465911865234e-05, 4.314453125) (-8.239830780029296e-05, 4.31640625) (-8.266531372070312e-05, 4.318359375) (-8.285604095458984e-05, 4.3203125) (-8.296096801757812e-05, 4.322265625) (-8.297042846679687e-05, 4.32421875) (-8.287464904785156e-05, 4.326171875) (-8.266417694091797e-05, 4.328125) (-8.232981109619141e-05, 4.330078125) (-8.186260223388671e-05, 4.33203125) (-8.125413513183593e-05, 4.333984375) (-8.049630737304687e-05, 4.3359375) (-7.9581298828125e-05, 4.337890625) (-7.850234985351563e-05, 4.33984375) (-7.725366210937499e-05, 4.341796875) (-7.583013916015624e-05, 4.34375) (-7.422782897949218e-05, 4.345703125) (-7.244366455078125e-05, 4.34765625) (-7.047531127929687e-05, 4.349609375) (-6.832168579101562e-05, 4.3515625) (-6.598280334472656e-05, 4.353515625) (-6.345944213867187e-05, 4.35546875) (-6.0753662109374996e-05, 4.357421875) (-5.786888122558593e-05, 4.359375) (-5.480961990356445e-05, 4.361328125) (-5.1582042694091794e-05, 4.36328125) (-4.819400405883789e-05, 4.365234375) (-4.465468597412109e-05, 4.3671875) (-4.097525024414062e-05, 4.369140625) (-3.716862487792969e-05, 4.37109375) (-3.324897003173828e-05, 4.373046875) (-2.92321662902832e-05, 4.375) (-2.5135602951049802e-05, 4.376953125) (-2.097747802734375e-05, 4.37890625) (-1.6777206420898436e-05, 4.380859375) (-1.2555081367492675e-05, 4.3828125) (-8.331546783447265e-06, 4.384765625) (-4.127881050109863e-06, 4.38671875) (3.383493423461914e-08, 4.388671875) (4.131886482238769e-06, 4.390625) (8.144405364990234e-06, 4.392578125) (1.2048458099365233e-05, 4.39453125) (1.582082939147949e-05, 4.396484375) (1.94372501373291e-05, 4.3984375) (2.2872142791748044e-05, 4.400390625) (2.6101036071777343e-05, 4.40234375) (2.9100524902343747e-05, 4.404296875) (3.1846891403198244e-05, 4.40625) (3.431742477416992e-05, 4.408203125) (3.649178314208984e-05, 4.41015625) (3.835164642333984e-05, 4.412109375) (3.9882545471191404e-05, 4.4140625) (4.107402801513672e-05, 4.416015625) (4.191540908813476e-05, 4.41796875) (4.239617538452148e-05, 4.419921875) (4.250795745849609e-05, 4.421875) (4.224326705932617e-05, 4.423828125) (4.1597442626953124e-05, 4.42578125) (4.056983566284179e-05, 4.427734375) (3.9160675048828127e-05, 4.4296875) (3.737255859375e-05, 4.431640625) (3.521348571777344e-05, 4.43359375) (3.269429779052734e-05, 4.435546875) (2.9830703735351562e-05, 4.4375) (2.664495086669922e-05, 4.439453125) (2.315516471862793e-05, 4.44140625) (1.9374311447143555e-05, 4.443359375) (1.53112735748291e-05, 4.4453125) (1.0964794158935547e-05, 4.447265625) (6.3368735313415526e-06, 4.44921875) (1.4408375024795531e-06, 4.451171875) (-3.7100641727447507e-06, 4.453125) (-9.100671768188476e-06, 4.455078125) (-1.4706665992736816e-05, 4.45703125) (-2.0501085281372068e-05, 4.458984375) (-2.6444616317749023e-05, 4.4609375) (-3.247701644897461e-05, 4.462890625) (-3.854332733154297e-05, 4.46484375) (-4.459497833251953e-05, 4.466796875) (-5.058167266845703e-05, 4.46875) (-5.6467597961425776e-05, 4.470703125) (-6.221028900146484e-05, 4.47265625) (-6.77471923828125e-05, 4.474609375) (-7.301300048828125e-05, 4.4765625) (-7.792754364013672e-05, 4.478515625) (-8.241180419921874e-05, 4.48046875) (-8.642334747314453e-05, 4.482421875) (-8.993718719482422e-05, 4.484375) (-9.29320831298828e-05, 4.486328125) (-9.540462493896485e-05, 4.48828125) (-9.734998321533203e-05, 4.490234375) (-9.87851104736328e-05, 4.4921875) (-9.980476379394531e-05, 4.494140625) (-0.00010052838134765625, 4.49609375) (-0.00010106541442871094, 4.498046875) (-0.00010152601623535155, 4.5) (-0.00010196463775634765, 4.501953125) (-0.00010246640014648437, 4.50390625) (-0.00010324593353271484, 4.505859375) (-0.00010450148010253906, 4.5078125) (-0.0001063316192626953, 4.509765625) (-0.00010868031311035155, 4.51171875) (-0.00011123913574218749, 4.513671875) (-0.00011361837768554687, 4.515625) (-0.00011555072784423828, 4.517578125) (-0.00011668606567382812, 4.51953125) (-0.0001164923858642578, 4.521484375) (-0.00011458059692382812, 4.5234375) (-0.00011083155822753906, 4.525390625) (-0.00010568400573730469, 4.52734375) (-0.00010031304931640625, 4.529296875) (-9.600553894042968e-05, 4.53125) (-9.401152038574218e-05, 4.533203125) (-9.580310821533203e-05, 4.53515625) (-0.00010285093688964843, 4.537109375) (-0.00011612222290039062, 4.5390625) (-0.00013448112487792968, 4.541015625) (-0.00015445654296874999, 4.54296875) (-0.00017213700866699217, 4.544921875) (-0.00018428199768066406, 4.546875) (-0.00019116406249999998, 4.548828125) (-0.00019482394409179687, 4.55078125) (-0.00019291390991210938, 4.552734375) (-0.00017981922912597655, 4.5546875) (-0.00014682960510253905, 4.556640625) (-8.482633972167968e-05, 4.55859375) (7.041912078857421e-06, 4.560546875) (0.00012389566040039063, 4.5625) (0.00025928018188476563, 4.564453125) (0.00040294256591796873, 4.56640625) (0.000542513916015625, 4.568359375) (0.0006632034912109375, 4.5703125) (0.0007442800903320312, 4.572265625) (0.0007668594970703125, 4.57421875) (0.000725097900390625, 4.576171875) (0.0006240585937499999, 4.578125) (0.0004795163879394531, 4.580078125) (0.00031508920288085936, 4.58203125) (0.00014815635681152342, 4.583984375) (-6.956394195556641e-06, 4.5859375) (-0.0001351930236816406, 4.587890625) (-0.00022916070556640625, 4.58984375) (-0.00028352752685546876, 4.591796875) (-0.0002974378662109375, 4.59375) (-0.000281263671875, 4.595703125) (-0.0002449818420410156, 4.59765625) (-0.00019896572875976562, 4.599609375) (-0.0001550731964111328, 4.6015625) (-0.00011836424255371093, 4.603515625) (-9.32431182861328e-05, 4.60546875) (-8.040314483642578e-05, 4.607421875) (-7.384603881835937e-05, 4.609375) (-6.949825286865235e-05, 4.611328125) (-6.344813537597656e-05, 4.61328125) (-5.5683788299560545e-05, 4.615234375) (-5.130490112304687e-05, 4.6171875) (-5.245027542114258e-05, 4.619140625) (-5.9606830596923825e-05, 4.62109375) (-7.092033386230468e-05, 4.623046875) (-8.187242889404297e-05, 4.625) (-9.048014068603516e-05, 4.626953125) (-9.627610778808594e-05, 4.62890625) (-9.875450134277343e-05, 4.630859375) (-9.844239044189453e-05, 4.6328125) (-9.581677246093749e-05, 4.634765625) (-9.115653991699218e-05, 4.63671875) (-8.554867553710937e-05, 4.638671875) (-8.01982421875e-05, 4.640625) (-7.561776733398438e-05, 4.642578125) (-7.209856414794922e-05, 4.64453125) (-6.989130401611328e-05, 4.646484375) (-6.898225402832031e-05, 4.6484375) (-6.934595489501952e-05, 4.650390625) (-7.089864349365234e-05, 4.65234375) (-7.3193603515625e-05, 4.654296875) (-7.5686767578125e-05, 4.65625) (-7.80579833984375e-05, 4.658203125) (-8.01128921508789e-05, 4.66015625) (-8.176010131835937e-05, 4.662109375) (-8.301742553710937e-05, 4.6640625) (-8.385784149169922e-05, 4.666015625) (-8.423973083496094e-05, 4.66796875) (-8.420224761962891e-05, 4.669921875) (-8.381039428710938e-05, 4.671875) (-8.311817169189453e-05, 4.673828125) (-8.216877746582031e-05, 4.67578125) (-8.096867370605469e-05, 4.677734375) (-7.950517272949219e-05, 4.6796875) (-7.778874206542969e-05, 4.681640625) (-7.585541534423828e-05, 4.68359375) (-7.375784301757813e-05, 4.685546875) (-7.156285095214843e-05, 4.6875) (-6.933431243896483e-05, 4.689453125) (-6.711487579345702e-05, 4.69140625) (-6.493132019042969e-05, 4.693359375) (-6.28021011352539e-05, 4.6953125) (-6.073907852172851e-05, 4.697265625) (-5.874936294555664e-05, 4.69921875) (-5.683311080932617e-05, 4.701171875) (-5.497880935668945e-05, 4.703125) (-5.316350555419922e-05, 4.705078125) (-5.1366088867187496e-05, 4.70703125) (-4.9572059631347656e-05, 4.708984375) (-4.776847076416015e-05, 4.7109375) (-4.5941162109374995e-05, 4.712890625) (-4.406913375854492e-05, 4.71484375) (-4.212475967407226e-05, 4.716796875) (-4.007798385620117e-05, 4.71875) (-3.790153503417969e-05, 4.720703125) (-3.5573760986328124e-05, 4.72265625) (-3.30748062133789e-05, 4.724609375) (-3.038494110107422e-05, 4.7265625) (-2.7484670639038084e-05, 4.728515625) (-2.4355175018310547e-05, 4.73046875) (-2.0979251861572265e-05, 4.732421875) (-1.7342575073242187e-05, 4.734375) (-1.3432204246520995e-05, 4.736328125) (-9.232677459716796e-06, 4.73828125) (-4.7265367507934565e-06, 4.740234375) (1.0475921630859375e-07, 4.7421875) (5.277703762054443e-06, 4.744140625) (1.0804428100585938e-05, 4.74609375) (1.6696979522705077e-05, 4.748046875) (2.2967166900634764e-05, 4.75) (2.9629226684570312e-05, 4.751953125) (3.6700084686279295e-05, 4.75390625) (4.4186874389648435e-05, 4.755859375) (5.2085426330566404e-05, 4.7578125) (6.0385639190673825e-05, 4.759765625) (6.907041931152344e-05, 4.76171875) (7.81153564453125e-05, 4.763671875) (8.749111175537109e-05, 4.765625) (9.715703582763672e-05, 4.767578125) (0.00010706016540527343, 4.76953125) (0.00011714953613281249, 4.771484375) (0.00012737661743164063, 4.7734375) (0.00013769891357421875, 4.775390625) (0.0001480843505859375, 4.77734375) (0.00015850021362304685, 4.779296875) (0.00016891513061523437, 4.78125) (0.00017929307556152342, 4.783203125) (0.0001895895080566406, 4.78515625) (0.00019977822875976562, 4.787109375) (0.00020985311889648437, 4.7890625) (0.00021981518554687498, 4.791015625) (0.0002296754455566406, 4.79296875) (0.00023944989013671873, 4.794921875) (0.0002491526184082031, 4.796875) (0.0002588199768066406, 4.798828125) (0.00026851348876953126, 4.80078125) (0.000278276123046875, 4.802734375) (0.0002881313171386719, 4.8046875) (0.00029807952880859373, 4.806640625) (0.00030808685302734375, 4.80859375) (0.0003181135864257812, 4.810546875) (0.0003281141967773437, 4.8125) (0.00033803424072265624, 4.814453125) (0.00034781756591796873, 4.81640625) (0.00035737774658203125, 4.818359375) (0.0003665969848632812, 4.8203125) (0.0003753529052734375, 4.822265625) (0.00038351751708984376, 4.82421875) (0.00039096258544921874, 4.826171875) (0.0003975698547363281, 4.828125) (0.0004031863403320312, 4.830078125) (0.00040761801147460935, 4.83203125) (0.00041070446777343746, 4.833984375) (0.00041232003784179684, 4.8359375) (0.00041237042236328124, 4.837890625) (0.0004108130493164062, 4.83984375) (0.00040760653686523437, 4.841796875) (0.00040270697021484376, 4.84375) (0.00039610848999023436, 4.845703125) (0.000387835205078125, 4.84765625) (0.00037794772338867183, 4.849609375) (0.0003665487365722656, 4.8515625) (0.00035373825073242184, 4.853515625) (0.0003396092529296875, 4.85546875) (0.00032426806640624997, 4.857421875) (0.00030782513427734376, 4.859375) (0.00029043923950195313, 4.861328125) (0.00027233001708984374, 4.86328125) (0.0002536932373046875, 4.865234375) (0.00023470059204101562, 4.8671875) (0.0002155221252441406, 4.869140625) (0.00019630213928222655, 4.87109375) (0.0001772130432128906, 4.873046875) (0.00015846286010742186, 4.875) (0.00014020794677734375, 4.876953125) (0.0001225586700439453, 4.87890625) (0.000105606201171875, 4.880859375) (8.940893554687499e-05, 4.8828125) (7.404612731933593e-05, 4.884765625) (5.962772369384766e-05, 4.88671875) (4.623549270629883e-05, 4.888671875) (3.392805099487304e-05, 4.890625) (2.2726224899291992e-05, 4.892578125) (1.2595252990722656e-05, 4.89453125) (3.5100982189178463e-06, 4.896484375) (-4.542585372924804e-06, 4.8984375) (-1.1610473632812499e-05, 4.900390625) (-1.7755760192871094e-05, 4.90234375) (-2.3084197998046874e-05, 4.904296875) (-2.7754245758056638e-05, 4.90625) (-3.1877113342285156e-05, 4.908203125) (-3.5517456054687496e-05, 4.91015625) (-3.874038314819336e-05, 4.912109375) (-4.1594711303710934e-05, 4.9140625) (-4.415530014038086e-05, 4.916015625) (-4.653528976440429e-05, 4.91796875) (-4.8816184997558594e-05, 4.919921875) (-5.104955291748047e-05, 4.921875) (-5.327752304077148e-05, 4.923828125) (-5.551656341552734e-05, 4.92578125) (-5.7789882659912105e-05, 4.927734375) (-6.0132667541503905e-05, 4.9296875) (-6.254119873046875e-05, 4.931640625) (-6.49835968017578e-05, 4.93359375) (-6.740251922607422e-05, 4.935546875) (-6.970775604248047e-05, 4.9375) (-7.18442153930664e-05, 4.939453125) (-7.379501342773437e-05, 4.94140625) (-7.554132843017578e-05, 4.943359375) (-7.707367706298827e-05, 4.9453125) (-7.837423706054687e-05, 4.947265625) (-7.940711975097656e-05, 4.94921875) (-8.016259765624999e-05, 4.951171875) (-8.065678405761718e-05, 4.953125) (-8.090058898925781e-05, 4.955078125) (-8.090824890136719e-05, 4.95703125) (-8.06906280517578e-05, 4.958984375) (-8.024925231933594e-05, 4.9609375) (-7.960897827148437e-05, 4.962890625) (-7.881478118896484e-05, 4.96484375) (-7.791685485839843e-05, 4.966796875) (-7.697431945800782e-05, 4.96875) (-7.60306625366211e-05, 4.970703125) (-7.511019897460938e-05, 4.97265625) (-7.423709106445313e-05, 4.974609375) (-7.343138122558594e-05, 4.9765625) (-7.270895385742188e-05, 4.978515625) (-7.208584594726562e-05, 4.98046875) (-7.15652618408203e-05, 4.982421875) (-7.113735961914063e-05, 4.984375) (-7.079722595214844e-05, 4.986328125) (-7.054292297363281e-05, 4.98828125) (-7.037258148193359e-05, 4.990234375) (-7.028753662109375e-05, 4.9921875) (-7.028150177001952e-05, 4.994140625) (-7.03404541015625e-05, 4.99609375) (-7.045127868652344e-05, 4.998046875) (-7.060072326660155e-05, 5.0) (-7.077694702148437e-05, 5.001953125) (-7.097108459472656e-05, 5.00390625) (-7.117355346679687e-05, 5.005859375) (-7.137426757812499e-05, 5.0078125) (-7.1566162109375e-05, 5.009765625) (-7.174441528320313e-05, 5.01171875) (-7.19061279296875e-05, 5.013671875) (-7.205071258544921e-05, 5.015625) (-7.217584228515625e-05, 5.017578125) (-7.227738952636719e-05, 5.01953125) (-7.235152435302735e-05, 5.021484375) (-7.239410400390625e-05, 5.0234375) (-7.240141296386719e-05, 5.025390625) (-7.237055969238281e-05, 5.02734375) (-7.229824829101563e-05, 5.029296875) (-7.218093872070312e-05, 5.03125) (-7.201656341552734e-05, 5.033203125) (-7.180430603027343e-05, 5.03515625) (-7.154420471191406e-05, 5.037109375) (-7.123739624023437e-05, 5.0390625) (-7.088522338867187e-05, 5.041015625) (-7.048919677734375e-05, 5.04296875) (-7.005174255371094e-05, 5.044921875) (-6.957599639892578e-05, 5.046875) (-6.906542205810547e-05, 5.048828125) (-6.852380371093749e-05, 5.05078125) (-6.795524597167968e-05, 5.052734375) (-6.736409759521484e-05, 5.0546875) (-6.675530242919922e-05, 5.056640625) (-6.613429260253905e-05, 5.05859375) (-6.550653839111327e-05, 5.060546875) (-6.487744140625e-05, 5.0625) (-6.425244903564453e-05, 5.064453125) (-6.363697814941406e-05, 5.06640625) (-6.303634643554687e-05, 5.068359375) (-6.245569229125976e-05, 5.0703125) (-6.189961242675781e-05, 5.072265625) (-6.137208557128906e-05, 5.07421875) (-6.087684631347656e-05, 5.076171875) (-6.041729736328125e-05, 5.078125) (-5.999663925170898e-05, 5.080078125) (-5.961786651611328e-05, 5.08203125) (-5.9283500671386716e-05, 5.083984375) (-5.899562454223633e-05, 5.0859375) (-5.875608444213867e-05, 5.087890625) (-5.8566505432128904e-05, 5.08984375) (-5.842820358276367e-05, 5.091796875) (-5.834226608276367e-05, 5.09375) (-5.83091926574707e-05, 5.095703125) (-5.832889556884765e-05, 5.09765625) (-5.840100860595703e-05, 5.099609375) (-5.852490234375e-05, 5.1015625) (-5.869983291625976e-05, 5.103515625) (-5.892495727539062e-05, 5.10546875) (-5.919916152954101e-05, 5.107421875) (-5.9521125793457026e-05, 5.109375) (-5.9889499664306636e-05, 5.111328125) (-6.030294799804687e-05, 5.11328125) (-6.0760063171386715e-05, 5.115234375) (-6.125938034057616e-05, 5.1171875) (-6.179917907714844e-05, 5.119140625) (-6.237753677368164e-05, 5.12109375) (-6.299249649047851e-05, 5.123046875) (-6.364202880859375e-05, 5.125) (-6.432412719726562e-05, 5.126953125) (-6.503673553466797e-05, 5.12890625) (-6.57777099609375e-05, 5.130859375) (-6.654490661621093e-05, 5.1328125) (-6.733627319335937e-05, 5.134765625) (-6.814983367919922e-05, 5.13671875) (-6.898361206054687e-05, 5.138671875) (-6.983567810058593e-05, 5.140625) (-7.070404052734375e-05, 5.142578125) (-7.158670806884766e-05, 5.14453125) (-7.248177337646484e-05, 5.146484375) (-7.338731384277343e-05, 5.1484375) (-7.43013916015625e-05, 5.150390625) (-7.52220458984375e-05, 5.15234375) (-7.614714050292969e-05, 5.154296875) (-7.707435607910156e-05, 5.15625) (-7.800122070312499e-05, 5.158203125) (-7.892500305175782e-05, 5.16015625) (-7.984268188476562e-05, 5.162109375) (-8.075090789794921e-05, 5.1640625) (-8.164573669433593e-05, 5.166015625) (-8.2522705078125e-05, 5.16796875) (-8.337690734863282e-05, 5.169921875) (-8.420290374755859e-05, 5.171875) (-8.499478149414062e-05, 5.173828125) (-8.574618530273437e-05, 5.17578125) (-8.645012664794921e-05, 5.177734375) (-8.709915924072265e-05, 5.1796875) (-8.768558502197265e-05, 5.181640625) (-8.820138549804687e-05, 5.18359375) (-8.863829803466796e-05, 5.185546875) (-8.898803710937499e-05, 5.1875) (-8.924217224121093e-05, 5.189453125) (-8.939225769042968e-05, 5.19140625) (-8.943013763427734e-05, 5.193359375) (-8.934771728515625e-05, 5.1953125) (-8.913711547851562e-05, 5.197265625) (-8.879083251953124e-05, 5.19921875) (-8.830165100097656e-05, 5.201171875) (-8.766256713867187e-05, 5.203125) (-8.686697387695313e-05, 5.205078125) (-8.590847778320312e-05, 5.20703125) (-8.478105163574218e-05, 5.208984375) (-8.347947692871094e-05, 5.2109375) (-8.19990234375e-05, 5.212890625) (-8.033553314208984e-05, 5.21484375) (-7.848583221435547e-05, 5.216796875) (-7.644769287109375e-05, 5.21875) (-7.421998596191406e-05, 5.220703125) (-7.180294036865235e-05, 5.22265625) (-6.919776153564453e-05, 5.224609375) (-6.640657043457031e-05, 5.2265625) (-6.343310546875e-05, 5.228515625) (-6.028254699707031e-05, 5.23046875) (-5.6961524963378905e-05, 5.232421875) (-5.347835922241211e-05, 5.234375) (-4.984260940551757e-05, 5.236328125) (-4.606522369384765e-05, 5.23828125) (-4.2159259796142573e-05, 5.240234375) (-3.813961791992187e-05, 5.2421875) (-3.4022621154785153e-05, 5.244140625) (-2.9826202392578122e-05, 5.24609375) (-2.5569446563720703e-05, 5.248046875) (-2.1272024154663084e-05, 5.25) (-1.6954751968383788e-05, 5.251953125) (-1.2639137268066406e-05, 5.25390625) (-8.34672451019287e-06, 5.255859375) (-4.0996465682983394e-06, 5.2578125) (7.973924279212952e-08, 5.259765625) (4.169420719146729e-06, 5.26171875) (8.147051811218261e-06, 5.263671875) (1.1989243507385254e-05, 5.265625) (1.5672221183776855e-05, 5.267578125) (1.9171245574951172e-05, 5.26953125) (2.2460716247558593e-05, 5.271484375) (2.551626205444336e-05, 5.2734375) (2.831387710571289e-05, 5.275390625) (3.0829463958740234e-05, 5.27734375) (3.304069900512695e-05, 5.279296875) (3.492768096923828e-05, 5.28125) (3.6472938537597654e-05, 5.283203125) (3.766304397583008e-05, 5.28515625) (3.848731994628906e-05, 5.287109375) (3.8934844970703124e-05, 5.2890625) (3.89974136352539e-05, 5.291015625) (3.866958236694336e-05, 5.29296875) (3.79471435546875e-05, 5.294921875) (3.682951354980469e-05, 5.296875) (3.531801605224609e-05, 5.298828125) (3.3414875030517576e-05, 5.30078125) (3.11275749206543e-05, 5.302734375) (2.846881866455078e-05, 5.3046875) (2.545267105102539e-05, 5.306640625) (2.209800910949707e-05, 5.30859375) (1.8426506042480468e-05, 5.310546875) (1.4455643653869628e-05, 5.3125) (1.0204078674316406e-05, 5.314453125) (5.686429977416992e-06, 5.31640625) (9.08222496509552e-07, 5.318359375) (-4.120096206665039e-06, 5.3203125) (-9.384563446044921e-06, 5.322265625) (-1.4872804641723632e-05, 5.32421875) (-2.0565256118774413e-05, 5.326171875) (-2.6435516357421874e-05, 5.328125) (-3.24541015625e-05, 5.330078125) (-3.857641220092773e-05, 5.33203125) (-4.474633026123047e-05, 5.333984375) (-5.091086959838867e-05, 5.3359375) (-5.700956344604492e-05, 5.337890625) (-6.298189544677734e-05, 5.33984375) (-6.877626800537109e-05, 5.341796875) (-7.433563232421874e-05, 5.34375) (-7.960531616210937e-05, 5.345703125) (-8.452881622314452e-05, 5.34765625) (-8.903167724609374e-05, 5.349609375) (-9.304714965820313e-05, 5.3515625) (-9.653173828124999e-05, 5.353515625) (-9.945276641845703e-05, 5.35546875) (-0.00010178997039794921, 5.357421875) (-0.00010353009033203125, 5.359375) (-0.00010466665649414062, 5.361328125) (-0.00010523403167724609, 5.36328125) (-0.00010532194519042968, 5.365234375) (-0.00010505424499511718, 5.3671875) (-0.00010455976867675781, 5.369140625) (-0.00010394277191162109, 5.37109375) (-0.00010330908966064453, 5.373046875) (-0.00010280204010009765, 5.375) (-0.00010254557800292969, 5.376953125) (-0.00010261228942871094, 5.37890625) (-0.00010298197937011719, 5.380859375) (-0.00010346524810791015, 5.3828125) (-0.00010381990814208984, 5.384765625) (-0.00010386862182617187, 5.38671875) (-0.0001034000015258789, 5.388671875) (-0.0001021253204345703, 5.390625) (-9.98228759765625e-05, 5.392578125) (-9.644685363769531e-05, 5.39453125) (-9.232374572753906e-05, 5.396484375) (-8.826478576660156e-05, 5.3984375) (-8.518840026855468e-05, 5.400390625) (-8.374848937988281e-05, 5.40234375) (-8.464041900634765e-05, 5.404296875) (-8.881542205810546e-05, 5.40625) (-9.709825134277343e-05, 5.408203125) (-0.00010991702270507812, 5.41015625) (-0.0001253779296875, 5.412109375) (-0.00013914300537109375, 5.4140625) (-0.00014696205139160155, 5.416015625) (-0.0001450579833984375, 5.41796875) (-0.00013492445373535156, 5.419921875) (-0.00012247839355468748, 5.421875) (-0.00011099346923828125, 5.423828125) (-0.00010258445739746094, 5.42578125) (-8.904872131347656e-05, 5.427734375) (-5.210450744628906e-05, 5.4296875) (2.1578561782836913e-05, 5.431640625) (0.00014208102416992188, 5.43359375) (0.00030201806640625, 5.435546875) (0.00047145941162109374, 5.4375) (0.0006189678955078124, 5.439453125) (0.0007125613403320312, 5.44140625) (0.0007339416503906249, 5.443359375) (0.0006905528564453124, 5.4453125) (0.000596534423828125, 5.447265625) (0.0004706829833984375, 5.44921875) (0.000333509033203125, 5.451171875) (0.00019416415405273436, 5.453125) (6.347941589355468e-05, 5.455078125) (-4.346549224853515e-05, 5.45703125) (-0.0001208443603515625, 5.458984375) (-0.00016451441955566405, 5.4609375) (-0.00017852090454101562, 5.462890625) (-0.00018003652954101562, 5.46484375) (-0.00017904678344726562, 5.466796875) (-0.00018015899658203123, 5.46875) (-0.0001837495422363281, 5.470703125) (-0.00018147634887695312, 5.47265625) (-0.00017010635375976562, 5.474609375) (-0.00015211236572265624, 5.4765625) (-0.00013091038513183593, 5.478515625) (-0.00011172149658203124, 5.48046875) (-9.704235076904296e-05, 5.482421875) (-8.658236694335937e-05, 5.484375) (-7.976457214355468e-05, 5.486328125) (-7.597978973388671e-05, 5.48828125) (-7.514082336425781e-05, 5.490234375) (-7.701908874511719e-05, 5.4921875) (-8.065940856933593e-05, 5.494140625) (-8.526573181152344e-05, 5.49609375) (-9.015338897705078e-05, 5.498046875) (-9.451935577392578e-05, 5.5) (-9.81298599243164e-05, 5.501953125) (-0.00010073341369628906, 5.50390625) (-0.00010167845153808593, 5.505859375) (-0.00010079833984374999, 5.5078125) (-9.835681915283202e-05, 5.509765625) (-9.457845306396485e-05, 5.51171875) (-9.004319763183594e-05, 5.513671875) (-8.555684661865235e-05, 5.515625) (-8.143605041503906e-05, 5.517578125) (-7.790885925292969e-05, 5.51953125) (-7.534091186523437e-05, 5.521484375) (-7.378202056884766e-05, 5.5234375) (-7.318517303466796e-05, 5.525390625) (-7.352057647705078e-05, 5.52734375) (-7.443281555175781e-05, 5.529296875) (-7.542697143554688e-05, 5.53125) (-7.625482940673828e-05, 5.533203125) (-7.6749755859375e-05, 5.53515625) (-7.680269622802734e-05, 5.537109375) (-7.646302795410156e-05, 5.5390625) (-7.572365570068359e-05, 5.541015625) (-7.454313659667968e-05, 5.54296875) (-7.29874267578125e-05, 5.544921875) (-7.114987182617188e-05, 5.546875) (-6.909447479248046e-05, 5.548828125) (-6.688183593749999e-05, 5.55078125) (-6.452665710449218e-05, 5.552734375) (-6.20063362121582e-05, 5.5546875) (-5.934089660644531e-05, 5.556640625) (-5.657525253295898e-05, 5.55859375) (-5.376667785644531e-05, 5.560546875) (-5.09900894165039e-05, 5.5625) (-4.829005813598633e-05, 5.564453125) (-4.568549728393555e-05, 5.56640625) (-4.3191833496093745e-05, 5.568359375) (-4.081497955322265e-05, 5.5703125) (-3.8559371948242186e-05, 5.572265625) (-3.642629241943359e-05, 5.57421875) (-3.43989028930664e-05, 5.576171875) (-3.244852066040039e-05, 5.578125) (-3.055183792114258e-05, 5.580078125) (-2.868975257873535e-05, 5.58203125) (-2.6848602294921874e-05, 5.583984375) (-2.5018150329589844e-05, 5.5859375) (-2.3177845001220703e-05, 5.587890625) (-2.1301246643066405e-05, 5.58984375) (-1.9360889434814453e-05, 5.591796875) (-1.732639503479004e-05, 5.59375) (-1.5172088623046874e-05, 5.595703125) (-1.287580394744873e-05, 5.59765625) (-1.0413702011108399e-05, 5.599609375) (-7.76346445083618e-06, 5.6015625) (-4.90452241897583e-06, 5.603515625) (-1.8160457611083983e-06, 5.60546875) (1.5200291872024535e-06, 5.607421875) (5.119597434997558e-06, 5.609375) (9.002952575683593e-06, 5.611328125) (1.318962001800537e-05, 5.61328125) (1.769591522216797e-05, 5.615234375) (2.2541973114013672e-05, 5.6171875) (2.774604034423828e-05, 5.619140625) (3.332688140869141e-05, 5.62109375) (3.930767822265625e-05, 5.623046875) (4.570158767700195e-05, 5.625) (5.250956344604492e-05, 5.626953125) (5.972789001464843e-05, 5.62890625) (6.734596252441405e-05, 5.630859375) (7.534473419189452e-05, 5.6328125) (8.370126342773437e-05, 5.634765625) (9.237786102294921e-05, 5.63671875) (0.00010132325744628906, 5.638671875) (0.00011049371337890624, 5.640625) (0.00011984629821777344, 5.642578125) (0.00012934507751464843, 5.64453125) (0.00013896366882324218, 5.646484375) (0.00014866212463378906, 5.6484375) (0.00015840069580078125, 5.650390625) (0.00016814274597167967, 5.65234375) (0.00017784408569335936, 5.654296875) (0.00018747740173339844, 5.65625) (0.00019703773498535156, 5.658203125) (0.00020651969909667967, 5.66015625) (0.00021592797851562498, 5.662109375) (0.00022529203796386717, 5.6640625) (0.00023464248657226563, 5.666015625) (0.0002440345764160156, 5.66796875) (0.00025354518127441403, 5.669921875) (0.0002632138977050781, 5.671875) (0.0002730610046386719, 5.673828125) (0.00028308560180664063, 5.67578125) (0.0002932627258300781, 5.677734375) (0.0003035821838378906, 5.6796875) (0.00031401983642578125, 5.681640625) (0.00032452227783203125, 5.68359375) (0.00033503350830078123, 5.685546875) (0.00034547604370117186, 5.6875) (0.00035574481201171873, 5.689453125) (0.00036574395751953125, 5.69140625) (0.00037535174560546876, 5.693359375) (0.00038439166259765625, 5.6953125) (0.00039268536376953125, 5.697265625) (0.0004000227355957031, 5.69921875) (0.00040617294311523435, 5.701171875) (0.00041096859741210937, 5.703125) (0.00041426885986328124, 5.705078125) (0.00041595651245117187, 5.70703125) (0.0004159426574707031, 5.708984375) (0.0004141257629394531, 5.7109375) (0.00041044015502929683, 5.712890625) (0.0004048820190429687, 5.71484375) (0.0003974649658203125, 5.716796875) (0.00038822384643554686, 5.71875) (0.00037721240234375, 5.720703125) (0.0003644662170410156, 5.72265625) (0.00035007403564453124, 5.724609375) (0.00033421151733398436, 5.7265625) (0.00031706903076171876, 5.728515625) (0.0002988806762695312, 5.73046875) (0.0002798994445800781, 5.732421875) (0.0002603248901367187, 5.734375) (0.00024036283874511718, 5.736328125) (0.00022022674560546874, 5.73828125) (0.00020012664794921874, 5.740234375) (0.00018029885864257811, 5.7421875) (0.00016093789672851563, 5.744140625) (0.00014217054748535154, 5.74609375) (0.0001241145782470703, 5.748046875) (0.0001068807373046875, 5.75) (9.05869903564453e-05, 5.751953125) (7.538495635986327e-05, 5.75390625) (6.136610412597655e-05, 5.755859375) (4.853747940063476e-05, 5.7578125) (3.689080047607422e-05, 5.759765625) (2.6379840850830078e-05, 5.76171875) (1.6950241088867188e-05, 5.763671875) (8.578269004821776e-06, 5.765625) (1.1988804340362547e-06, 5.767578125) (-5.29082202911377e-06, 5.76953125) (-1.1010997772216796e-05, 5.771484375) (-1.611526298522949e-05, 5.7734375) (-2.0719257354736327e-05, 5.775390625) (-2.4883893966674804e-05, 5.77734375) (-2.8674882888793945e-05, 5.779296875) (-3.2160484313964845e-05, 5.78125) (-3.542721939086914e-05, 5.783203125) (-3.8596221923828125e-05, 5.78515625) (-4.174383544921875e-05, 5.787109375) (-4.489105224609375e-05, 5.7890625) (-4.805770111083984e-05, 5.791015625) (-5.12479019165039e-05, 5.79296875) (-5.446926879882812e-05, 5.794921875) (-5.7747325897216793e-05, 5.796875) (-6.106512451171875e-05, 5.798828125) (-6.436825561523437e-05, 5.80078125) (-6.759001159667968e-05, 5.802734375) (-7.064382934570312e-05, 5.8046875) (-7.347377777099609e-05, 5.806640625) (-7.606287384033202e-05, 5.80859375) (-7.839034271240233e-05, 5.810546875) (-8.04370880126953e-05, 5.8125) (-8.217973327636718e-05, 5.814453125) (-8.358107757568359e-05, 5.81640625) (-8.463136291503905e-05, 5.818359375) (-8.535071563720703e-05, 5.8203125) (-8.5753662109375e-05, 5.822265625) (-8.585592651367187e-05, 5.82421875) (-8.567062377929688e-05, 5.826171875) (-8.520238494873046e-05, 5.828125) (-8.448013305664062e-05, 5.830078125) (-8.355467987060547e-05, 5.83203125) (-8.247959899902343e-05, 5.833984375) (-8.131445312499999e-05, 5.8359375) (-8.01044921875e-05, 5.837890625) (-7.887675476074218e-05, 5.83984375) (-7.76591339111328e-05, 5.841796875) (-7.647708129882812e-05, 5.84375) (-7.535098266601562e-05, 5.845703125) (-7.430033874511718e-05, 5.84765625) (-7.333309936523437e-05, 5.849609375) (-7.24449462890625e-05, 5.8515625) (-7.163619995117187e-05, 5.853515625) (-7.091009521484375e-05, 5.85546875) (-7.026931762695313e-05, 5.857421875) (-6.971905517578125e-05, 5.859375) (-6.925714111328125e-05, 5.861328125) (-6.887388610839844e-05, 5.86328125) (-6.856027221679687e-05, 5.865234375) (-6.830681610107422e-05, 5.8671875) (-6.810545349121093e-05, 5.869140625) (-6.795098876953124e-05, 5.87109375) (-6.783724975585937e-05, 5.873046875) (-6.775736236572266e-05, 5.875) (-6.770707702636718e-05, 5.876953125) (-6.768377685546874e-05, 5.87890625) (-6.768635559082031e-05, 5.880859375) (-6.771571350097656e-05, 5.8828125) (-6.77705078125e-05, 5.884765625) (-6.784716796875e-05, 5.88671875) (-6.794222259521484e-05, 5.888671875) (-6.805145263671875e-05, 5.890625) (-6.817068481445312e-05, 5.892578125) (-6.829624938964843e-05, 5.89453125) (-6.842368316650391e-05, 5.896484375) (-6.85478744506836e-05, 5.8984375) (-6.866462707519531e-05, 5.900390625) (-6.877040100097656e-05, 5.90234375) (-6.886212921142577e-05, 5.904296875) (-6.893756103515625e-05, 5.90625) (-6.899452209472657e-05, 5.908203125) (-6.903088378906249e-05, 5.91015625) (-6.904505920410156e-05, 5.912109375) (-6.903593444824218e-05, 5.9140625) (-6.900296020507812e-05, 5.916015625) (-6.894607543945312e-05, 5.91796875) (-6.886559295654297e-05, 5.919921875) (-6.876205444335937e-05, 5.921875) (-6.863630676269531e-05, 5.923828125) (-6.848944854736327e-05, 5.92578125) (-6.83226547241211e-05, 5.927734375) (-6.813720703125e-05, 5.9296875) (-6.7934326171875e-05, 5.931640625) (-6.771521759033203e-05, 5.93359375) (-6.748100280761719e-05, 5.935546875) (-6.723289489746094e-05, 5.9375) (-6.697195434570312e-05, 5.939453125) (-6.66990966796875e-05, 5.94140625) (-6.641537475585937e-05, 5.943359375) (-6.612172698974608e-05, 5.9453125) (-6.581901550292968e-05, 5.947265625) (-6.550814819335937e-05, 5.94921875) (-6.518990325927734e-05, 5.951171875) (-6.486495971679687e-05, 5.953125) (-6.453409576416015e-05, 5.955078125) (-6.419821166992188e-05, 5.95703125) (-6.385820770263672e-05, 5.958984375) (-6.351537704467774e-05, 5.9609375) (-6.31712417602539e-05, 5.962890625) (-6.282736587524414e-05, 5.96484375) (-6.248548889160155e-05, 5.966796875) (-6.214748382568359e-05, 5.96875) (-6.18152961730957e-05, 5.970703125) (-6.149106979370117e-05, 5.97265625) (-6.117717742919922e-05, 5.974609375) (-6.087577056884765e-05, 5.9765625) (-6.0588768005371094e-05, 5.978515625) (-6.031789398193359e-05, 5.98046875) (-6.006478881835937e-05, 5.982421875) (-5.9831245422363276e-05, 5.984375) (-5.9619140625e-05, 5.986328125) (-5.943030929565429e-05, 5.98828125) (-5.926654434204101e-05, 5.990234375) (-5.9129543304443355e-05, 5.9921875) (-5.9021171569824214e-05, 5.994140625) (-5.894357299804687e-05, 5.99609375) (-5.889907073974609e-05, 5.998046875) (-5.8889869689941406e-05, 6.0) (-5.89180679321289e-05, 6.001953125) (-5.898554229736328e-05, 6.00390625) (-5.909400939941406e-05, 6.005859375) (-5.924537658691406e-05, 6.0078125) (-5.944183349609375e-05, 6.009765625) (-5.9685478210449215e-05, 6.01171875) (-5.997822570800781e-05, 6.013671875) (-6.032197570800781e-05, 6.015625) (-6.0718536376953124e-05, 6.017578125) (-6.116962432861327e-05, 6.01953125) (-6.167697143554687e-05, 6.021484375) (-6.224158477783202e-05, 6.0234375) (-6.286309051513671e-05, 6.025390625) (-6.354034423828125e-05, 6.02734375) (-6.42715835571289e-05, 6.029296875) (-6.505388641357422e-05, 6.03125) (-6.588323974609375e-05, 6.033203125) (-6.67542266845703e-05, 6.03515625) (-6.765956115722656e-05, 6.037109375) (-6.859172058105469e-05, 6.0390625) (-6.954386901855469e-05, 6.041015625) (-7.050892639160156e-05, 6.04296875) (-7.147933197021484e-05, 6.044921875) (-7.244743347167969e-05, 6.046875) (-7.340566253662108e-05, 6.048828125) (-7.434731292724608e-05, 6.05078125) (-7.526731872558593e-05, 6.052734375) (-7.615966796875e-05, 6.0546875) (-7.701605224609375e-05, 6.056640625) (-7.782605743408202e-05, 6.05859375) (-7.857763671875e-05, 6.060546875) (-7.925883483886718e-05, 6.0625) (-7.985762023925781e-05, 6.064453125) (-8.036080932617187e-05, 6.06640625) (-8.075382995605468e-05, 6.068359375) (-8.102124023437499e-05, 6.0703125) (-8.114804077148438e-05, 6.072265625) (-8.112344360351562e-05, 6.07421875) (-8.094099426269531e-05, 6.076171875) (-8.059173583984374e-05, 6.078125) (-8.006449890136718e-05, 6.080078125) (-7.93438491821289e-05, 6.08203125) (-7.840925598144531e-05, 6.083984375) (-7.724817657470702e-05, 6.0859375) (-7.585749053955078e-05, 6.087890625) (-7.423726654052733e-05, 6.08984375) (-7.238954925537109e-05, 6.091796875) (-7.032036590576172e-05, 6.09375) (-6.804283905029296e-05, 6.095703125) (-6.558438110351562e-05, 6.09765625) (-6.298980331420898e-05, 6.099609375) (-6.0301498413085933e-05, 6.1015625) (-5.754776000976562e-05, 6.103515625) (-5.473906707763672e-05, 6.10546875) (-5.187050247192383e-05, 6.107421875) (-4.894190979003906e-05, 6.109375) (-4.595522308349609e-05, 6.111328125) (-4.291528701782226e-05, 6.11328125) (-3.9826457977294923e-05, 6.115234375) (-3.6671745300292966e-05, 6.1171875) (-3.342763519287109e-05, 6.119140625) (-3.008030319213867e-05, 6.12109375) (-2.6625431060791015e-05, 6.123046875) (-2.3055171966552735e-05, 6.125) (-1.9345243453979492e-05, 6.126953125) (-1.543943405151367e-05, 6.12890625) (-1.1247588157653808e-05, 6.130859375) (-6.698366165161133e-06, 6.1328125) (-1.7620294094085692e-06, 6.134765625) (3.551465034484863e-06, 6.13671875) (9.20003604888916e-06, 6.138671875) (1.5140140533447264e-05, 6.140625) (2.1315761566162108e-05, 6.142578125) (2.7653818130493163e-05, 6.14453125) (3.405284881591797e-05, 6.146484375) (4.037135696411133e-05, 6.1484375) (4.6477779388427734e-05, 6.150390625) (5.227214431762695e-05, 6.15234375) (5.768058776855468e-05, 6.154296875) (6.263201904296875e-05, 6.15625) (6.703073120117188e-05, 6.158203125) (7.073756408691406e-05, 6.16015625) (7.357908630371093e-05, 6.162109375) (7.541880798339844e-05, 6.1640625) (7.617361450195312e-05, 6.166015625) (7.580491638183593e-05, 6.16796875) (7.430614471435547e-05, 6.169921875) (7.167410278320312e-05, 6.171875) (6.793850708007812e-05, 6.173828125) (6.317296600341796e-05, 6.17578125) (5.7507804870605464e-05, 6.177734375) (5.11220474243164e-05, 6.1796875) (4.416502380371094e-05, 6.181640625) (3.6739883422851563e-05, 6.18359375) (2.891750717163086e-05, 6.185546875) (2.075937271118164e-05, 6.1875) (1.2350862503051758e-05, 6.189453125) (3.817191123962402e-06, 6.19140625) (-4.696736335754394e-06, 6.193359375) (-1.3082672119140625e-05, 6.1953125) (-2.1256855010986326e-05, 6.197265625) (-2.915077018737793e-05, 6.19921875) (-3.669869613647461e-05, 6.201171875) (-4.3816261291503905e-05, 6.203125) (-5.045294952392578e-05, 6.205078125) (-5.660340881347656e-05, 6.20703125) (-6.230995941162109e-05, 6.208984375) (-6.764851379394531e-05, 6.2109375) (-7.265585327148437e-05, 6.212890625) (-7.732499694824219e-05, 6.21484375) (-8.162511444091797e-05, 6.216796875) (-8.551607513427734e-05, 6.21875) (-8.896377563476563e-05, 6.220703125) (-9.195937347412109e-05, 6.22265625) (-9.451492309570312e-05, 6.224609375) (-9.662649536132812e-05, 6.2265625) (-9.831599426269531e-05, 6.228515625) (-9.961514282226563e-05, 6.23046875) (-0.0001005540542602539, 6.232421875) (-0.00010121443176269531, 6.234375) (-0.00010168200683593749, 6.236328125) (-0.00010203752136230469, 6.23828125) (-0.00010235461425781249, 6.240234375) (-0.00010268022155761718, 6.2421875) (-0.00010304667663574219, 6.244140625) (-0.00010354852294921875, 6.24609375) (-0.00010438925170898436, 6.248046875) (-0.00010571522521972656, 6.25) (-0.00010756951904296875, 6.251953125) (-0.00010981600189208984, 6.25390625) (-0.0001120631866455078, 6.255859375) (-0.00011391970825195312, 6.2578125) (-0.00011510850524902343, 6.259765625) (-0.00011527569580078125, 6.26171875) (-0.00011390928649902344, 6.263671875) (-0.00011068744659423828, 6.265625) (-0.00010567083740234374, 6.267578125) (-9.953768920898436e-05, 6.26953125) (-9.37162857055664e-05, 6.271484375) (-8.960905456542968e-05, 6.2734375) (-8.8376220703125e-05, 6.275390625) (-9.123886108398437e-05, 6.27734375) (-9.932785034179687e-05, 6.279296875) (-0.00011334420776367187, 6.28125) (-0.00013174844360351563, 6.283203125) (-0.00015049130249023438, 6.28515625) (-0.00016490446472167968, 6.287109375) (-0.00017006440734863282, 6.2890625) (-0.00016598699951171875, 6.291015625) (-0.0001566580810546875, 6.29296875) (-0.00014280947875976562, 6.294921875) (-0.00012525153350830077, 6.296875) (-9.694268798828125e-05, 6.298828125) (-4.2952964782714844e-05, 6.30078125) (4.460000610351562e-05, 6.302734375) (0.00017243218994140625, 6.3046875) (0.00033563629150390624, 6.306640625) (0.0005093292846679688, 6.30859375) (0.0006674613647460937, 6.310546875) (0.0007794090576171875, 6.3125) (0.0008194955444335937, 6.314453125) (0.0007863784790039062, 6.31640625) (0.0006878292236328125, 6.318359375) (0.0005408225097656249, 6.3203125) (0.00037301049804687496, 6.322265625) (0.00020250531005859375, 6.32421875) (4.761332702636719e-05, 6.326171875) (-7.194510650634765e-05, 6.328125) (-0.00015195494079589842, 6.330078125) (-0.0001925968780517578, 6.33203125) (-0.00020343899536132812, 6.333984375) (-0.00020348075866699218, 6.3359375) (-0.00019911512756347655, 6.337890625) (-0.00018978533935546873, 6.33984375) (-0.00016950115966796875, 6.341796875) (-0.00013169224548339843, 6.34375) (-8.34263916015625e-05, 6.345703125) (-3.767781448364258e-05, 6.34765625) (-8.659056663513182e-06, 