(-4.165768432617187e-05, 0.0) (-3.636180114746094e-05, 0.001953125) (-3.126446723937988e-05, 0.00390625) (-2.645588493347168e-05, 0.005859375) (-2.2050548553466794e-05, 0.0078125) (-1.8123897552490233e-05, 0.009765625) (-1.4722284317016601e-05, 0.01171875) (-1.1863409996032714e-05, 0.013671875) (-9.515345573425293e-06, 0.015625) (-7.647571563720703e-06, 0.017578125) (-6.241589546203613e-06, 0.01953125) (-5.256005764007568e-06, 0.021484375) (-4.641530036926269e-06, 0.0234375) (-4.335141658782959e-06, 0.025390625) (-4.24530553817749e-06, 0.02734375) (-4.304873466491699e-06, 0.029296875) (-4.471137046813965e-06, 0.03125) (-4.688760757446289e-06, 0.033203125) (-4.909771919250488e-06, 0.03515625) (-5.074212074279785e-06, 0.037109375) (-5.099026679992676e-06, 0.0390625) (-4.9291019439697264e-06, 0.041015625) (-4.5352463722229e-06, 0.04296875) (-3.90000057220459e-06, 0.044921875) (-3.031790256500244e-06, 0.046875) (-1.9406304359436032e-06, 0.048828125) (-6.284005641937256e-07, 0.05078125) (8.80614161491394e-07, 0.052734375) (2.546400308609009e-06, 0.0546875) (4.32192325592041e-06, 0.056640625) (6.146037578582764e-06, 0.05859375) (7.976995468139648e-06, 0.060546875) (9.795909881591797e-06, 0.0625) (1.157927131652832e-05, 0.064453125) (1.3305362701416016e-05, 0.06640625) (1.4948543548583984e-05, 0.068359375) (1.647267532348633e-05, 0.0703125) (1.7855335235595703e-05, 0.072265625) (1.9088647842407227e-05, 0.07421875) (2.0163421630859373e-05, 0.076171875) (2.1074668884277344e-05, 0.078125) (2.1818201065063477e-05, 0.080078125) (2.2385997772216794e-05, 0.08203125) (2.27822151184082e-05, 0.083984375) (2.302169609069824e-05, 0.0859375) (2.3120630264282227e-05, 0.087890625) (2.3098686218261716e-05, 0.08984375) (2.296758460998535e-05, 0.091796875) (2.272858428955078e-05, 0.09375) (2.2383678436279295e-05, 0.095703125) (2.193490982055664e-05, 0.09765625) (2.138367462158203e-05, 0.099609375) (2.0733459472656248e-05, 0.1015625) (1.9984245300292967e-05, 0.103515625) (1.913155174255371e-05, 0.10546875) (1.8174661636352537e-05, 0.107421875) (1.7115901947021483e-05, 0.109375) (1.5958370208740232e-05, 0.111328125) (1.4706779479980468e-05, 0.11328125) (1.3363521575927734e-05, 0.115234375) (1.1928391456604003e-05, 0.1171875) (1.040219497680664e-05, 0.119140625) (8.787164688110352e-06, 0.12109375) (7.088590145111084e-06, 0.123046875) (5.315658092498779e-06, 0.125) (3.4782028198242187e-06, 0.126953125) (1.5865026712417602e-06, 0.12890625) (-3.494661450386047e-07, 0.130859375) (-2.3218417167663574e-06, 0.1328125) (-4.3217668533325195e-06, 0.134765625) (-6.338827133178711e-06, 0.13671875) (-8.363351821899414e-06, 0.138671875) (-1.0386138916015625e-05, 0.140625) (-1.2395709991455077e-05, 0.142578125) (-1.437752914428711e-05, 0.14453125) (-1.631283950805664e-05, 0.146484375) (-1.8176975250244138e-05, 0.1484375) (-1.9945175170898436e-05, 0.150390625) (-2.1594474792480468e-05, 0.15234375) (-2.3104896545410155e-05, 0.154296875) (-2.4461374282836913e-05, 0.15625) (-2.5648326873779294e-05, 0.158203125) (-2.66510009765625e-05, 0.16015625) (-2.7453069686889647e-05, 0.162109375) (-2.8034389495849608e-05, 0.1640625) (-2.8378036499023437e-05, 0.166015625) (-2.8470680236816406e-05, 0.16796875) (-2.8300786972045896e-05, 0.169921875) (-2.7861265182495117e-05, 0.171875) (-2.7161296844482422e-05, 0.173828125) (-2.6227367401123046e-05, 0.17578125) (-2.5103738784790038e-05, 0.177734375) (-2.385721206665039e-05, 0.1796875) (-2.2551816940307616e-05, 0.181640625) (-2.1245738983154296e-05, 0.18359375) (-2.000501823425293e-05, 0.185546875) (-1.8895572662353516e-05, 0.1875) (-1.7988395690917967e-05, 0.189453125) (-1.7360239028930665e-05, 0.19140625) (-1.7081382751464842e-05, 0.193359375) (-1.7208362579345703e-05, 0.1953125) (-1.7810409545898436e-05, 0.197265625) (-1.8966335296630858e-05, 0.19921875) (-2.0701480865478516e-05, 0.201171875) (-2.2983110427856444e-05, 0.203125) (-2.5664833068847653e-05, 0.205078125) (-2.8468252182006833e-05, 0.20703125) (-3.107976150512695e-05, 0.208984375) (-3.317854309082031e-05, 0.2109375) (-3.4426124572753905e-05, 0.212890625) (-3.4492538452148436e-05, 0.21484375) (-3.316339492797851e-05, 0.216796875) (-3.0381462097167967e-05, 0.21875) (-2.6400184631347654e-05, 0.220703125) (-2.180112075805664e-05, 0.22265625) (-1.7271148681640626e-05, 0.224609375) (-1.3536298751831054e-05, 0.2265625) (-1.1227704048156737e-05, 0.228515625) (-1.0805198669433593e-05, 0.23046875) (-1.2629251480102539e-05, 0.232421875) (-1.6850936889648435e-05, 0.234375) (-2.300651168823242e-05, 0.236328125) (-3.0014421463012694e-05, 0.23828125) (-3.561160659790039e-05, 0.240234375) (-3.6587657928466794e-05, 0.2421875) (-3.030384635925293e-05, 0.244140625) (-1.5184804916381835e-05, 0.24609375) (7.480479717254638e-06, 0.248046875) (3.47547607421875e-05, 0.25) (6.448131561279296e-05, 0.251953125) (9.603111267089844e-05, 0.25390625) (0.00013340969848632813, 0.255859375) (0.00018121630859375, 0.2578125) (0.00024201998901367185, 0.259765625) (0.0003168434448242187, 0.26171875) (0.0003991362915039062, 0.263671875) (0.00047901376342773436, 0.265625) (0.0005444412841796875, 0.267578125) (0.0005775982666015625, 0.26953125) (0.000564447265625, 0.271484375) (0.0004960785522460937, 0.2734375) (0.0003710975646972656, 0.275390625) (0.0002032806701660156, 0.27734375) (1.3369163513183593e-05, 0.279296875) (-0.0001755762023925781, 0.28125) (-0.0003413976135253906, 0.283203125) (-0.000471543701171875, 0.28515625) (-0.0005591537475585938, 0.287109375) (-0.0006015897216796875, 0.2890625) (-0.000602071044921875, 0.291015625) (-0.0005653265380859375, 0.29296875) (-0.0005010888977050781, 0.294921875) (-0.00042360913085937496, 0.296875) (-0.00034601425170898434, 0.298828125) (-0.0002786719055175781, 0.30078125) (-0.00022482630920410155, 0.302734375) (-0.00018037501525878906, 0.3046875) (-0.0001387180633544922, 0.306640625) (-9.559004211425781e-05, 0.30859375) (-5.1644569396972655e-05, 0.310546875) (-1.1540931701660155e-05, 0.3125) (1.8760513305664063e-05, 0.314453125) (3.6309284210205074e-05, 0.31640625) (4.210017395019531e-05, 0.318359375) (3.9105331420898435e-05, 0.3203125) (3.1102245330810545e-05, 0.322265625) (2.119545745849609e-05, 0.32421875) (1.1215860366821288e-05, 0.326171875) (2.5238730907440186e-06, 0.328125) (-3.7983343601226807e-06, 0.330078125) (-7.371325969696045e-06, 0.33203125) (-8.379467964172362e-06, 0.333984375) (-7.279716491699219e-06, 0.3359375) (-4.768625736236572e-06, 0.337890625) (-1.7116403579711913e-06, 0.33984375) (1.1356148719787597e-06, 0.341796875) (3.0154454708099362e-06, 0.34375) (3.1965439319610593e-06, 0.345703125) (1.5158984661102294e-06, 0.34765625) (-1.7931790351867675e-06, 0.349609375) (-6.3663358688354485e-06, 0.3515625) (-1.1670658111572266e-05, 0.353515625) (-1.7224990844726562e-05, 0.35546875) (-2.2664495468139646e-05, 0.357421875) (-2.758030319213867e-05, 0.359375) (-3.158721160888672e-05, 0.361328125) (-3.451921844482422e-05, 0.36328125) (-3.63492431640625e-05, 0.365234375) (-3.714076614379883e-05, 0.3671875) (-3.705452346801758e-05, 0.369140625) (-3.621492004394531e-05, 0.37109375) (-3.4721733093261716e-05, 0.373046875) (-3.2709518432617184e-05, 0.375) (-3.0315059661865235e-05, 0.376953125) (-2.7669981002807615e-05, 0.37890625) (-2.490153884887695e-05, 0.380859375) (-2.211971664428711e-05, 0.3828125) (-1.942070388793945e-05, 0.384765625) (-1.6887796401977537e-05, 0.38671875) (-1.4586668014526367e-05, 0.388671875) (-1.2567388534545898e-05, 0.390625) (-1.086297607421875e-05, 0.392578125) (-9.486440658569335e-06, 0.39453125) (-8.436943054199219e-06, 0.396484375) (-7.697780609130859e-06, 0.3984375) (-7.237422466278076e-06, 0.400390625) (-7.025527954101562e-06, 0.40234375) (-7.029545783996582e-06, 0.404296875) (-7.214014053344726e-06, 0.40625) (-7.545008659362793e-06, 0.408203125) (-7.979321479797363e-06, 0.41015625) (-8.469318389892577e-06, 0.412109375) (-8.96882438659668e-06, 0.4140625) (-9.432448387145996e-06, 0.416015625) (-9.825920104980469e-06, 0.41796875) (-1.0126201629638671e-05, 0.419921875) (-1.0314939498901366e-05, 0.421875) (-1.0379837989807128e-05, 0.423828125) (-1.0315770149230956e-05, 0.42578125) (-1.0121789932250976e-05, 0.427734375) (-9.803019523620606e-06, 0.4296875) (-9.369675636291503e-06, 0.431640625) (-8.828360557556152e-06, 0.43359375) (-8.183552742004393e-06, 0.435546875) (-7.439759254455566e-06, 0.4375) (-6.600255012512207e-06, 0.439453125) (-5.670953750610351e-06, 0.44140625) (-4.65975284576416e-06, 0.443359375) (-3.5741157531738278e-06, 0.4453125) (-2.421553611755371e-06, 0.447265625) (-1.2087557315826416e-06, 0.44921875) (5.8694899082183836e-08, 0.451171875) (1.3750810623168944e-06, 0.453125) (2.7346913814544677e-06, 0.455078125) (4.13284969329834e-06, 0.45703125) (5.565241336822509e-06, 0.458984375) (7.028035640716553e-06, 0.4609375) (8.517807006835938e-06, 0.462890625) (1.0029502868652343e-05, 0.46484375) (1.1556795120239258e-05, 0.466796875) (1.309303569793701e-05, 0.46875) (1.4631117820739745e-05, 0.470703125) (1.6164066314697263e-05, 0.47265625) (1.7685247421264647e-05, 0.474609375) (1.9187828063964844e-05, 0.4765625) (2.0664993286132812e-05, 0.478515625) (2.2110706329345703e-05, 0.48046875) (2.3519575119018554e-05, 0.482421875) (2.4886724472045897e-05, 0.484375) (2.62078800201416e-05, 0.486328125) (2.7479022979736328e-05, 0.48828125) (2.8696426391601563e-05, 0.490234375) (2.985690689086914e-05, 0.4921875) (3.0957775115966795e-05, 0.494140625) (3.199679946899414e-05, 0.49609375) (3.297224426269531e-05, 0.498046875) (3.388285446166992e-05, 0.5) (3.472785186767578e-05, 0.501953125) (3.550698852539062e-05, 0.50390625) (3.622052001953125e-05, 0.505859375) (3.6869194030761715e-05, 0.5078125) (3.74542121887207e-05, 0.509765625) (3.797721862792968e-05, 0.51171875) (3.8440238952636715e-05, 0.513671875) (3.884566497802734e-05, 0.515625) (3.9196193695068355e-05, 0.517578125) (3.949476623535156e-05, 0.51953125) (3.974452972412109e-05, 0.521484375) (3.994878768920898e-05, 0.5234375) (4.011092758178711e-05, 0.525390625) (4.023442840576172e-05, 0.52734375) (4.032276916503906e-05, 0.529296875) (4.0379364013671874e-05, 0.53125) (4.040752792358398e-05, 0.533203125) (4.041044616699219e-05, 0.53515625) (4.039111328125e-05, 0.537109375) (4.035231018066406e-05, 0.5390625) (4.029656219482422e-05, 0.541015625) (4.022599792480468e-05, 0.54296875) (4.014239501953125e-05, 0.544921875) (4.004721069335937e-05, 0.546875) (3.994156646728516e-05, 0.548828125) (3.98262825012207e-05, 0.55078125) (3.9701881408691406e-05, 0.552734375) (3.956857681274414e-05, 0.5546875) (3.942630004882812e-05, 0.556640625) (3.927478408813476e-05, 0.55859375) (3.9113525390625e-05, 0.560546875) (3.894178771972656e-05, 0.5625) (3.875857925415039e-05, 0.564453125) (3.856270217895508e-05, 0.56640625) (3.8352756500244136e-05, 0.568359375) (3.81271858215332e-05, 0.5703125) (3.788426208496094e-05, 0.572265625) (3.7622127532958986e-05, 0.57421875) (3.733881759643555e-05, 0.576171875) (3.7032306671142576e-05, 0.578125) (3.670056533813476e-05, 0.580078125) (3.6341602325439454e-05, 0.58203125) (3.5953475952148434e-05, 0.583984375) (3.5534339904785154e-05, 0.5859375) (3.5082485198974606e-05, 0.587890625) (3.459638977050781e-05, 0.58984375) (3.407478332519531e-05, 0.591796875) (3.3516677856445314e-05, 0.59375) (3.292136001586914e-05, 0.595703125) (3.2288440704345704e-05, 0.59765625) (3.161784744262695e-05, 0.599609375) (3.0909900665283204e-05, 0.6015625) (3.0165279388427734e-05, 0.603515625) (2.9385059356689452e-05, 0.60546875) (2.8570650100708007e-05, 0.607421875) (2.7723785400390624e-05, 0.609375) (2.6846494674682615e-05, 0.611328125) (2.5941110610961912e-05, 0.61328125) (2.50102481842041e-05, 0.615234375) (2.405677604675293e-05, 0.6171875) (2.308376884460449e-05, 0.619140625) (2.2094478607177733e-05, 0.62109375) (2.1092334747314453e-05, 0.623046875) (2.008095169067383e-05, 0.625) (1.906412124633789e-05, 0.626953125) (1.8045772552490233e-05, 0.62890625) (1.7029937744140625e-05, 0.630859375) (1.6020730972290038e-05, 0.6328125) (1.502233600616455e-05, 0.634765625) (1.403900146484375e-05, 0.63671875) (1.3075023651123046e-05, 0.638671875) (1.213469886779785e-05, 0.640625) (1.1222259521484374e-05, 0.642578125) (1.0341849327087402e-05, 0.64453125) (9.497493743896484e-06, 0.646484375) (8.693078041076659e-06, 0.6484375) (7.932301521301269e-06, 0.650390625) (7.218617916107178e-06, 0.65234375) (6.555166244506836e-06, 0.654296875) (5.94473123550415e-06, 0.65625) (5.389721393585205e-06, 0.658203125) (4.892159938812256e-06, 0.66015625) (4.453661918640136e-06, 0.662109375) (4.075393676757812e-06, 0.6640625) (3.758052349090576e-06, 0.666015625) (3.501875400543213e-06, 0.66796875) (3.306666851043701e-06, 0.669921875) (3.1718442440032956e-06, 0.671875) (3.0964629650115964e-06, 0.673828125) (3.079214572906494e-06, 0.67578125) (3.118439674377441e-06, 0.677734375) (3.212158679962158e-06, 0.6796875) (3.358118534088135e-06, 0.681640625) (3.5538272857666016e-06, 0.68359375) (3.7965712547302245e-06, 0.685546875) (4.083412170410156e-06, 0.6875) (4.411181926727295e-06, 0.689453125) (4.776514530181884e-06, 0.69140625) (5.175886154174804e-06, 0.693359375) (5.605648040771484e-06, 0.6953125) (6.062036514282226e-06, 0.697265625) (6.541172981262207e-06, 0.69921875) (7.039070129394531e-06, 0.701171875) (7.551658153533935e-06, 0.703125) (8.074827194213867e-06, 0.705078125) (8.60446834564209e-06, 0.70703125) (9.136499404907226e-06, 0.708984375) (9.666873931884766e-06, 0.7109375) (1.0191608428955078e-05, 0.712890625) (1.070684242248535e-05, 0.71484375) (1.120888614654541e-05, 0.716796875) (1.1694308280944824e-05, 0.71875) (1.2159972190856934e-05, 0.720703125) (1.2603034973144531e-05, 0.72265625) (1.3020967483520507e-05, 0.724609375) (1.3411598205566406e-05, 0.7265625) (1.3773151397705077e-05, 0.728515625) (1.4104261398315429e-05, 0.73046875) (1.4403980255126952e-05, 0.732421875) (1.4671691894531249e-05, 0.734375) (1.4907073974609375e-05, 0.736328125) (1.5110105514526367e-05, 0.73828125) (1.52810640335083e-05, 0.740234375) (1.5420537948608397e-05, 0.7421875) (1.5529375076293944e-05, 0.744140625) (1.5608654022216796e-05, 0.74609375) (1.5659639358520507e-05, 0.748046875) (1.5683788299560545e-05, 0.75) (1.5682788848876954e-05, 0.751953125) (1.5658554077148435e-05, 0.75390625) (1.561318492889404e-05, 0.755859375) (1.5548912048339844e-05, 0.7578125) (1.546806526184082e-05, 0.759765625) (1.5373063087463378e-05, 0.76171875) (1.526642036437988e-05, 0.763671875) (1.515079402923584e-05, 0.765625) (1.5028959274291992e-05, 0.767578125) (1.4903743743896485e-05, 0.76953125) (1.4777993202209472e-05, 0.771484375) (1.4654582977294921e-05, 0.7734375) (1.4536420822143553e-05, 0.775390625) (1.4426428794860838e-05, 0.77734375) (1.4327507019042968e-05, 0.779296875) (1.424235725402832e-05, 0.78125) (1.4173377990722655e-05, 0.783203125) (1.4122695922851562e-05, 0.78515625) (1.4092180252075195e-05, 0.787109375) (1.4083367347717285e-05, 0.7890625) (1.4097427368164062e-05, 0.791015625) (1.4135083198547362e-05, 0.79296875) (1.4196563720703124e-05, 0.794921875) (1.428178882598877e-05, 0.796875) (1.4390497207641601e-05, 0.798828125) (1.4522222518920898e-05, 0.80078125) (1.4676251411437987e-05, 0.802734375) (1.4851572036743163e-05, 0.8046875) (1.5046905517578124e-05, 0.806640625) (1.5260757446289063e-05, 0.80859375) (1.549149227142334e-05, 0.810546875) (1.5737335205078123e-05, 0.8125) (1.599622917175293e-05, 0.814453125) (1.6265789031982422e-05, 0.81640625) (1.6543359756469726e-05, 0.818359375) (1.6826156616210938e-05, 0.8203125) (1.7111339569091794e-05, 0.822265625) (1.7396083831787108e-05, 0.82421875) (1.767751884460449e-05, 0.826171875) (1.795259094238281e-05, 0.828125) (1.821808052062988e-05, 0.830078125) (1.8470760345458982e-05, 0.83203125) (1.870745086669922e-05, 0.833984375) (1.8924953460693357e-05, 0.8359375) (1.9119993209838868e-05, 0.837890625) (1.9289182662963867e-05, 0.83984375) (1.9429073333740234e-05, 0.841796875) (1.9536544799804686e-05, 0.84375) (1.9609066009521482e-05, 0.845703125) (1.9644519805908203e-05, 0.84765625) (1.96411075592041e-05, 0.849609375) (1.9597640991210938e-05, 0.8515625) (1.9513601303100584e-05, 0.853515625) (1.9389328002929688e-05, 0.85546875) (1.9226188659667968e-05, 0.857421875) (1.9025846481323243e-05, 0.859375) (1.8789848327636717e-05, 0.861328125) (1.8519977569580078e-05, 0.86328125) (1.8218389511108396e-05, 0.865234375) (1.7887447357177734e-05, 0.8671875) (1.7529645919799805e-05, 0.869140625) (1.714723587036133e-05, 0.87109375) (1.6741922378540037e-05, 0.873046875) (1.631594467163086e-05, 0.875) (1.587277030944824e-05, 0.876953125) (1.5417038917541503e-05, 0.87890625) (1.4954366683959961e-05, 0.880859375) (1.4490585327148436e-05, 0.8828125) (1.4031696319580077e-05, 0.884765625) (1.3584251403808593e-05, 0.88671875) (1.3155626296997069e-05, 0.888671875) (1.2753808975219725e-05, 0.890625) (1.2386661529541015e-05, 0.892578125) (1.2060303688049315e-05, 0.89453125) (1.1779037475585937e-05, 0.896484375) (1.1548271179199219e-05, 0.8984375) (1.1374610900878906e-05, 0.900390625) (1.1266906738281249e-05, 0.90234375) (1.123628330230713e-05, 0.904296875) (1.1290418624877929e-05, 0.90625) (1.1433034896850585e-05, 0.908203125) (1.1666509628295898e-05, 0.91015625) (1.199236488342285e-05, 0.912109375) (1.2410400390624999e-05, 0.9140625) (1.291716194152832e-05, 0.916015625) (1.3502685546874999e-05, 0.91796875) (1.4149543762207031e-05, 0.919921875) (1.4841459274291992e-05, 0.921875) (1.556820297241211e-05, 0.923828125) (1.632738494873047e-05, 0.92578125) (1.7123306274414062e-05, 0.927734375) (1.7958229064941406e-05, 0.9296875) (1.8833703994750977e-05, 0.931640625) (1.97502384185791e-05, 0.93359375) (2.0708541870117186e-05, 0.935546875) (2.1718473434448242e-05, 0.9375) (2.2792537689208985e-05, 0.939453125) (2.3938587188720702e-05, 0.94140625) (2.5160419464111326e-05, 0.943359375) (2.646356201171875e-05, 0.9453125) (2.7860660552978514e-05, 0.947265625) (2.937839126586914e-05, 0.94921875) (3.1057552337646483e-05, 0.951171875) (3.29299201965332e-05, 0.953125) (3.500956344604492e-05, 0.955078125) (3.729390716552734e-05, 0.95703125) (3.976630783081054e-05, 0.958984375) (4.2409408569335936e-05, 0.9609375) (4.519952011108398e-05, 0.962890625) (4.81039924621582e-05, 0.96484375) (5.1078552246093745e-05, 0.966796875) (5.406290435791015e-05, 0.96875) (5.7000480651855465e-05, 0.970703125) (5.984771347045898e-05, 0.97265625) (6.257105636596679e-05, 0.974609375) (6.513606262207031e-05, 0.9765625) (6.749826049804688e-05, 0.978515625) (6.959608459472656e-05, 0.98046875) (7.135282135009765e-05, 0.982421875) (7.270709991455077e-05, 0.984375) (7.361973571777343e-05, 0.986328125) (7.406892395019531e-05, 0.98828125) (7.4047607421875e-05, 0.990234375) (7.355226898193359e-05, 0.9921875) (7.259284973144531e-05, 0.994140625) (7.119743347167968e-05, 0.99609375) (6.941664886474609e-05, 0.998046875) (6.731877136230469e-05, 1.0) (6.496207427978516e-05, 1.001953125) (6.239007568359374e-05, 1.00390625) (5.9634983062744136e-05, 1.005859375) (5.67283821105957e-05, 1.0078125) (5.371055603027343e-05, 1.009765625) (5.063386535644531e-05, 1.01171875) (4.7560985565185546e-05, 1.013671875) (4.45436897277832e-05, 1.015625) (4.1622165679931636e-05, 1.017578125) (3.882888412475586e-05, 1.01953125) (3.619112777709961e-05, 1.021484375) (3.373522186279297e-05, 1.0234375) (3.147843170166016e-05, 1.025390625) (2.942696189880371e-05, 1.02734375) (2.756735610961914e-05, 1.029296875) (2.587483787536621e-05, 1.03125) (2.4333744049072265e-05, 1.033203125) (2.293651580810547e-05, 1.03515625) (2.1684108734130858e-05, 1.037109375) (2.0581317901611328e-05, 1.0390625) (1.963168716430664e-05, 1.041015625) (1.8834789276123045e-05, 1.04296875) (1.8185836791992187e-05, 1.044921875) (1.7680084228515625e-05, 1.046875) (1.73095760345459e-05, 1.048828125) (1.7065120697021483e-05, 1.05078125) (1.693267822265625e-05, 1.052734375) (1.6892459869384764e-05, 1.0546875) (1.6916475296020507e-05, 1.056640625) (1.6968847274780274e-05, 1.05859375) (1.701656341552734e-05, 1.060546875) (1.7024763107299805e-05, 1.0625) (1.6958396911621092e-05, 1.064453125) (1.67796630859375e-05, 1.06640625) (1.6448848724365235e-05, 1.068359375) (1.5931859970092774e-05, 1.0703125) (1.518954849243164e-05, 1.072265625) (1.4180771827697754e-05, 1.07421875) (1.2863163948059081e-05, 1.076171875) (1.1195176124572753e-05, 1.078125) (9.157116889953612e-06, 1.080078125) (6.76371955871582e-06, 1.08203125) (4.0356321334838866e-06, 1.083984375) (9.78413701057434e-07, 1.0859375) (-2.3538291454315184e-06, 1.087890625) (-5.849920272827148e-06, 1.08984375) (-9.295742988586425e-06, 1.091796875) (-1.2326898574829101e-05, 1.09375) (-1.4592320442199707e-05, 1.095703125) (-1.5819700241088867e-05, 1.09765625) (-1.573721694946289e-05, 1.099609375) (-1.4064369201660156e-05, 1.1015625) (-1.059243106842041e-05, 1.103515625) (-5.229979991912841e-06, 1.10546875) (1.7719004154205322e-06, 1.107421875) (9.643233299255371e-06, 1.109375) (1.7549518585205076e-05, 1.111328125) (2.4802310943603514e-05, 1.11328125) (3.0608638763427733e-05, 1.115234375) (3.422916412353516e-05, 1.1171875) (3.503370666503906e-05, 1.119140625) (3.239504241943359e-05, 1.12109375) (2.7405027389526366e-05, 1.123046875) (2.304660415649414e-05, 1.125) (2.175738716125488e-05, 1.126953125) (2.6191280364990234e-05, 1.12890625) (3.621115112304687e-05, 1.130859375) (4.7944480895996093e-05, 1.1328125) (6.120754623413086e-05, 1.134765625) (7.65076904296875e-05, 1.13671875) (9.670301818847656e-05, 1.138671875) (0.00013095640563964844, 1.140625) (0.0001821248779296875, 1.142578125) (0.00025047805786132814, 1.14453125) (0.00033634155273437496, 1.146484375) (0.0004290833129882812, 1.1484375) (0.000517153564453125, 1.150390625) (0.0005873955078124999, 1.15234375) (0.0006177081909179687, 1.154296875) (0.0005935911254882812, 1.15625) (0.0005097388000488281, 1.158203125) (0.0003676417846679687, 1.16015625) (0.00018581983947753904, 1.162109375) (-1.153817081451416e-05, 1.1640625) (-0.00020292391967773437, 1.166015625) (-0.000366432373046875, 1.16796875) (-0.0004887172241210937, 1.169921875) (-0.0005642404785156249, 1.171875) (-0.0005923661499023437, 1.173828125) (-0.0005796121215820312, 1.17578125) (-0.0005360894775390624, 1.177734375) (-0.0004737998352050781, 1.1796875) (-0.0004030193176269531, 1.181640625) (-0.00033220886230468747, 1.18359375) (-0.00026712954711914064, 1.185546875) (-0.00020848239135742185, 1.1875) (-0.00015604939270019532, 1.189453125) (-0.00010752565765380859, 1.19140625) (-6.083064270019531e-05, 1.193359375) (-1.7715967178344726e-05, 1.1953125) (1.912786293029785e-05, 1.197265625) (4.608655548095703e-05, 1.19921875) (6.11180534362793e-05, 1.201171875) (6.566390991210938e-05, 1.203125) (6.262255096435546e-05, 1.205078125) (5.557416534423828e-05, 1.20703125) (4.74525146484375e-05, 1.208984375) (3.990876770019531e-05, 1.2109375) (3.41060791015625e-05, 1.212890625) (3.085982513427734e-05, 1.21484375) (3.039255142211914e-05, 1.216796875) (3.2440116882324214e-05, 1.21875) (3.637692642211914e-05, 1.220703125) (4.134049606323242e-05, 1.22265625) (4.648108673095703e-05, 1.224609375) (5.109293746948242e-05, 1.2265625) (5.450419998168945e-05, 1.228515625) (5.612498474121094e-05, 1.23046875) (5.581017684936523e-05, 1.232421875) (5.377531433105469e-05, 1.234375) (5.040161514282226e-05, 1.236328125) (4.622295379638672e-05, 1.23828125) (4.1731803894042965e-05, 1.240234375) (3.730422592163086e-05, 1.2421875) (3.3332225799560546e-05, 1.244140625) (3.0176607131958007e-05, 1.24609375) (2.8000139236450196e-05, 1.248046875) (2.6836111068725586e-05, 1.25) (2.6635633468627927e-05, 1.251953125) (2.726112174987793e-05, 1.25390625) (2.8597454071044922e-05, 1.255859375) (3.055400085449218e-05, 1.2578125) (3.300455856323242e-05, 1.259765625) (3.581844711303711e-05, 1.26171875) (3.888481521606445e-05, 1.263671875) (4.20899543762207e-05, 1.265625) (4.5335033416748046e-05, 1.267578125) (4.853246688842773e-05, 1.26953125) (5.15792007446289e-05, 1.271484375) (5.439152526855469e-05, 1.2734375) (5.691225051879883e-05, 1.275390625) (5.909883880615234e-05, 1.27734375) (6.093544769287109e-05, 1.279296875) (6.242180252075195e-05, 1.28125) (6.356406402587891e-05, 1.283203125) (6.438509368896484e-05, 1.28515625) (6.491957092285156e-05, 1.287109375) (6.52027130126953e-05, 1.2890625) (6.527371215820312e-05, 1.291015625) (6.517118835449219e-05, 1.29296875) (6.493132019042969e-05, 1.294921875) (6.459803771972656e-05, 1.296875) (6.421723175048828e-05, 1.298828125) (6.383433532714844e-05, 1.30078125) (6.349555587768554e-05, 1.302734375) (6.323517227172851e-05, 1.3046875) (6.307674407958984e-05, 1.306640625) (6.303931427001953e-05, 1.30859375) (6.31334228515625e-05, 1.310546875) (6.336368560791015e-05, 1.3125) (6.37321548461914e-05, 1.314453125) (6.423416900634765e-05, 1.31640625) (6.486066436767578e-05, 1.318359375) (6.560570526123047e-05, 1.3203125) (6.646435546875e-05, 1.322265625) (6.74320068359375e-05, 1.32421875) (6.85057144165039e-05, 1.326171875) (6.967982482910155e-05, 1.328125) (7.094668579101562e-05, 1.330078125) (7.229899597167969e-05, 1.33203125) (7.37289047241211e-05, 1.333984375) (7.522919464111328e-05, 1.3359375) (7.679366302490234e-05, 1.337890625) (7.841552734375e-05, 1.33984375) (8.008789825439453e-05, 1.341796875) (8.180462646484375e-05, 1.34375) (8.355941009521484e-05, 1.345703125) (8.534626007080078e-05, 1.34765625) (8.715937805175781e-05, 1.349609375) (8.899118041992187e-05, 1.3515625) (9.083271789550781e-05, 1.353515625) (9.267462158203125e-05, 1.35546875) (9.450680541992187e-05, 1.357421875) (9.631913757324218e-05, 1.359375) (9.810165405273436e-05, 1.361328125) (9.984400939941406e-05, 1.36328125) (0.0001015357666015625, 1.365234375) (0.0001031673126220703, 1.3671875) (0.00010472970581054687, 1.369140625) (0.00010621459960937499, 1.37109375) (0.00010761439514160156, 1.373046875) (0.0001089219741821289, 1.375) (0.0001101306915283203, 1.376953125) (0.00011123471069335937, 1.37890625) (0.00011222890472412108, 1.380859375) (0.00011310873413085936, 1.3828125) (0.00011387033081054688, 1.384765625) (0.00011451036071777343, 1.38671875) (0.00011502606964111328, 1.388671875) (0.0001154153594970703, 1.390625) (0.00011567678833007812, 1.392578125) (0.00011580949401855468, 1.39453125) (0.00011581321716308593, 1.396484375) (0.00011568831634521484, 1.3984375) (0.00011543568420410156, 1.400390625) (0.0001150568389892578, 1.40234375) (0.00011455388641357421, 1.404296875) (0.00011392938995361328, 1.40625) (0.00011318640136718749, 1.408203125) (0.00011232847595214843, 1.41015625) (0.00011135952758789061, 1.412109375) (0.00011028395080566406, 1.4140625) (0.00010910661315917969, 1.416015625) (0.00010783269500732421, 1.41796875) (0.00010646766662597656, 1.419921875) (0.00010501735687255859, 1.421875) (0.00010348779296875, 1.423828125) (0.0001018852310180664, 1.42578125) (0.00010021596527099608, 1.427734375) (9.848625183105469e-05, 1.4296875) (9.670215606689453e-05, 1.431640625) (9.486965179443359e-05, 1.43359375) (9.299444580078124e-05, 1.435546875) (9.108208465576171e-05, 1.4375) (8.913792419433594e-05, 1.439453125) (8.716705322265625e-05, 1.44140625) (8.517434692382812e-05, 1.443359375) (8.316452026367187e-05, 1.4453125) (8.114212036132813e-05, 1.447265625) (7.911154174804688e-05, 1.44921875) (7.70770263671875e-05, 1.451171875) (7.504256439208984e-05, 1.453125) (7.301197814941406e-05, 1.455078125) (7.098888397216797e-05, 1.45703125) (6.897667694091796e-05, 1.458984375) (6.697856903076171e-05, 1.4609375) (6.499755096435547e-05, 1.462890625) (6.303643417358398e-05, 1.46484375) (6.109780120849609e-05, 1.466796875) (5.91840591430664e-05, 1.46875) (5.729740524291992e-05, 1.470703125) (5.543980407714843e-05, 1.47265625) (5.361299133300781e-05, 1.474609375) (5.1818458557128905e-05, 1.4765625) (5.0057415008544916e-05, 1.478515625) (4.833080673217773e-05, 1.48046875) (4.663930511474609e-05, 1.482421875) (4.4983322143554683e-05, 1.484375) (4.336305999755859e-05, 1.486328125) (4.177850341796875e-05, 1.48828125) (4.022949981689453e-05, 1.490234375) (3.871577453613281e-05, 1.4921875) (3.723700714111328e-05, 1.494140625) (3.579279327392578e-05, 1.49609375) (3.438266372680664e-05, 1.498046875) (3.3006130218505855e-05, 1.5) (3.166264343261719e-05, 1.501953125) (3.0351619720458982e-05, 1.50390625) (2.9072406768798825e-05, 1.505859375) (2.782427978515625e-05, 1.5078125) (2.6606451034545896e-05, 1.509765625) (2.5418094635009765e-05, 1.51171875) (2.4258331298828124e-05, 1.513671875) (2.3126247406005857e-05, 1.515625) (2.2020906448364257e-05, 1.517578125) (2.094131851196289e-05, 1.51953125) (1.98864631652832e-05, 1.521484375) (1.8855297088623045e-05, 1.5234375) (1.7846738815307617e-05, 1.525390625) (1.6859657287597657e-05, 1.52734375) (1.5892887115478515e-05, 1.529296875) (1.494523239135742e-05, 1.53125) (1.40155029296875e-05, 1.533203125) (1.3102545738220215e-05, 1.53515625) (1.2205262184143066e-05, 1.537109375) (1.1322630882263183e-05, 1.5390625) (1.0453731536865234e-05, 1.541015625) (9.597755432128906e-06, 1.54296875) (8.754019737243652e-06, 1.544921875) (7.921964645385742e-06, 1.546875) (7.1011304855346675e-06, 1.548828125) (6.291131019592285e-06, 1.55078125) (5.491629600524902e-06, 1.552734375) (4.7023220062255855e-06, 1.5546875) (3.922929286956787e-06, 1.556640625) (3.1532063484191893e-06, 1.55859375) (2.3929293155670167e-06, 1.560546875) (1.6418914794921874e-06, 1.5625) (8.999123573303222e-07, 1.564453125) (1.6683851182460783e-07, 1.56640625) (-5.574436783790588e-07, 1.568359375) (-1.2730021476745605e-06, 1.5703125) (-1.9798791408538817e-06, 1.572265625) (-2.6781070232391356e-06, 1.57421875) (-3.3677086830139157e-06, 1.576171875) (-4.048696041107178e-06, 1.578125) (-4.721057415008545e-06, 1.580078125) (-5.384734153747558e-06, 1.58203125) (-6.039621829986572e-06, 1.583984375) (-6.685563087463378e-06, 1.5859375) (-7.322322845458984e-06, 1.587890625) (-7.949591636657715e-06, 1.58984375) (-8.566976547241211e-06, 1.591796875) (-9.174013137817383e-06, 1.59375) (-9.770207405090332e-06, 1.595703125) (-1.0355063438415526e-05, 1.59765625) (-1.0928113937377929e-05, 1.599609375) (-1.1488929748535156e-05, 1.6015625) (-1.2037156105041503e-05, 1.603515625) (-1.257250690460205e-05, 1.60546875) (-1.30947847366333e-05, 1.607421875) (-1.36038818359375e-05, 1.609375) (-1.4099761009216308e-05, 1.611328125) (-1.4582436561584472e-05, 1.61328125) (-1.5051963806152343e-05, 1.615234375) (-1.5508420944213868e-05, 1.6171875) (-1.5951921463012695e-05, 1.619140625) (-1.638261604309082e-05, 1.62109375) (-1.680069351196289e-05, 1.623046875) (-1.7206361770629883e-05, 1.625) (-1.7599853515625e-05, 1.626953125) (-1.798142623901367e-05, 1.62890625) (-1.835135269165039e-05, 1.630859375) (-1.8709926605224607e-05, 1.6328125) (-1.905743408203125e-05, 1.634765625) (-1.9394136428833008e-05, 1.63671875) (-1.9720289230346678e-05, 1.638671875) (-2.003614044189453e-05, 1.640625) (-2.0341957092285156e-05, 1.642578125) (-2.0638065338134766e-05, 1.64453125) (-2.0924858093261718e-05, 1.646484375) (-2.120281982421875e-05, 1.6484375) (-2.1472543716430664e-05, 1.650390625) (-2.1734766006469727e-05, 1.65234375) (-2.19903450012207e-05, 1.654296875) (-2.2240272521972654e-05, 1.65625) (-2.2485641479492188e-05, 1.658203125) (-2.2727598190307616e-05, 1.66015625) (-2.2967355728149413e-05, 1.662109375) (-2.3206161499023435e-05, 1.6640625) (-2.3445289611816405e-05, 1.666015625) (-2.368604278564453e-05, 1.66796875) (-2.392972373962402e-05, 1.669921875) (-2.417763900756836e-05, 1.671875) (-2.443110656738281e-05, 1.673828125) (-2.4691448211669922e-05, 1.67578125) (-2.4959997177124022e-05, 1.677734375) (-2.523810577392578e-05, 1.6796875) (-2.5527084350585935e-05, 1.681640625) (-2.5828227996826172e-05, 1.68359375) (-2.6142791748046873e-05, 1.685546875) (-2.64720344543457e-05, 1.6875) (-2.6817169189453125e-05, 1.689453125) (-2.7179428100585938e-05, 1.69140625) (-2.7560020446777342e-05, 1.693359375) (-2.796013259887695e-05, 1.6953125) (-2.8380981445312498e-05, 1.697265625) (-2.8823787689208982e-05, 1.69921875) (-2.9289752960205078e-05, 1.701171875) (-2.9780040740966796e-05, 1.703125) (-3.0295719146728513e-05, 1.705078125) (-3.083769416809082e-05, 1.70703125) (-3.140672302246094e-05, 1.708984375) (-3.200337219238281e-05, 1.7109375) (-3.262796401977539e-05, 1.712890625) (-3.328055572509765e-05, 1.71484375) (-3.396092224121094e-05, 1.716796875) (-3.4668537139892577e-05, 1.71875) (-3.5402626037597655e-05, 1.720703125) (-3.616216659545898e-05, 1.72265625) (-3.694583892822265e-05, 1.724609375) (-3.775202178955078e-05, 1.7265625) (-3.8578796386718746e-05, 1.728515625) (-3.942390441894531e-05, 1.73046875) (-4.028486633300781e-05, 1.732421875) (-4.115891265869141e-05, 1.734375) (-4.204302597045898e-05, 1.736328125) (-4.293394088745117e-05, 1.73828125) (-4.382820129394531e-05, 1.740234375) (-4.472212982177734e-05, 1.7421875) (-4.561196136474609e-05, 1.744140625) (-4.6493831634521485e-05, 1.74609375) (-4.736373901367187e-05, 1.748046875) (-4.8217559814453124e-05, 1.75) (-4.905107116699218e-05, 1.751953125) (-4.985986709594726e-05, 1.75390625) (-5.063951873779297e-05, 1.755859375) (-5.1385540008544916e-05, 1.7578125) (-5.209330749511718e-05, 1.759765625) (-5.275812911987304e-05, 1.76171875) (-5.33753547668457e-05, 1.763671875) (-5.3940361022949215e-05, 1.765625) (-5.444867324829101e-05, 1.767578125) (-5.4896087646484374e-05, 1.76953125) (-5.5278537750244136e-05, 1.771484375) (-5.559214782714844e-05, 1.7734375) (-5.5833393096923826e-05, 1.775390625) (-5.599907302856445e-05, 1.77734375) (-5.608638763427734e-05, 1.779296875) (-5.6092983245849605e-05, 1.78125) (-5.6016845703124996e-05, 1.783203125) (-5.585636520385742e-05, 1.78515625) (-5.561054992675781e-05, 1.787109375) (-5.527901458740234e-05, 1.7890625) (-5.486211013793945e-05, 1.791015625) (-5.436090850830078e-05, 1.79296875) (-5.377703857421875e-05, 1.794921875) (-5.311273956298828e-05, 1.796875) (-5.2370903015136714e-05, 1.798828125) (-5.155495834350586e-05, 1.80078125) (-5.066893768310547e-05, 1.802734375) (-4.971737670898437e-05, 1.8046875) (-4.8705104827880855e-05, 1.806640625) (-4.763726806640625e-05, 1.80859375) (-4.651955795288086e-05, 1.810546875) (-4.535806655883789e-05, 1.8125) (-4.4159347534179686e-05, 1.814453125) (-4.293050384521484e-05, 1.81640625) (-4.1678844451904293e-05, 1.818359375) (-4.04118766784668e-05, 1.8203125) (-3.913768005371094e-05, 1.822265625) (-3.7864662170410154e-05, 1.82421875) (-3.660140228271484e-05, 1.826171875) (-3.535671234130859e-05, 1.828125) (-3.413938140869141e-05, 1.830078125) (-3.2958099365234375e-05, 1.83203125) (-3.182185554504394e-05, 1.833984375) (-3.073990440368652e-05, 1.8359375) (-2.9721446990966795e-05, 1.837890625) (-2.877559471130371e-05, 1.83984375) (-2.791144371032715e-05, 1.841796875) (-2.713792037963867e-05, 1.84375) (-2.6464040756225586e-05, 1.845703125) (-2.5898983001708985e-05, 1.84765625) (-2.5451324462890624e-05, 1.849609375) (-2.512886047363281e-05, 1.8515625) (-2.4938720703124998e-05, 1.853515625) (-2.4887298583984374e-05, 1.85546875) (-2.498020362854004e-05, 1.857421875) (-2.522234535217285e-05, 1.859375) (-2.561734390258789e-05, 1.861328125) (-2.6167356491088865e-05, 1.86328125) (-2.687409210205078e-05, 1.865234375) (-2.7738613128662107e-05, 1.8671875) (-2.8761453628540037e-05, 1.869140625) (-2.9943115234374998e-05, 1.87109375) (-3.128275489807129e-05, 1.873046875) (-3.277841186523437e-05, 1.875) (-3.442805480957031e-05, 1.876953125) (-3.622821807861328e-05, 1.87890625) (-3.8173995971679684e-05, 1.880859375) (-4.025994873046875e-05, 1.8828125) (-4.247737121582031e-05, 1.884765625) (-4.481453704833984e-05, 1.88671875) (-4.726076126098633e-05, 1.888671875) (-4.9804679870605464e-05, 1.890625) (-5.243513488769531e-05, 1.892578125) (-5.514412689208984e-05, 1.89453125) (-5.792015075683594e-05, 1.896484375) (-6.0748336791992185e-05, 1.8984375) (-6.361582946777343e-05, 1.900390625) (-6.650782012939452e-05, 1.90234375) (-6.940689086914062e-05, 1.904296875) (-7.229476928710937e-05, 1.90625) (-7.514601135253905e-05, 1.908203125) (-7.79301300048828e-05, 1.91015625) (-8.062195587158203e-05, 1.912109375) (-8.319867706298827e-05, 1.9140625) (-8.564157867431641e-05, 1.916015625) (-8.794007873535156e-05, 1.91796875) (-9.007873535156249e-05, 1.919921875) (-9.204084014892578e-05, 1.921875) (-9.381425476074219e-05, 1.923828125) (-9.538128662109375e-05, 1.92578125) (-9.673052978515625e-05, 1.927734375) (-9.785894775390625e-05, 1.9296875) (-9.875516510009765e-05, 1.931640625) (-9.941080474853516e-05, 1.93359375) (-9.983169555664062e-05, 1.935546875) (-0.00010003384399414062, 1.9375) (-0.00010005585479736328, 1.939453125) (-9.995548248291015e-05, 1.94140625) (-9.977999114990234e-05, 1.943359375) (-9.956935119628906e-05, 1.9453125) (-9.936357116699218e-05, 1.947265625) (-9.92005615234375e-05, 1.94921875) (-9.913557434082031e-05, 1.951171875) (-9.922879028320311e-05, 1.953125) (-9.952600860595702e-05, 1.955078125) (-0.00010007630157470703, 1.95703125) (-0.00010091019439697265, 1.958984375) (-0.0001020592041015625, 1.9609375) (-0.000103591552734375, 1.962890625) (-0.00010551316833496094, 1.96484375) (-0.00010775088500976562, 1.966796875) (-0.00011017013549804688, 1.96875) (-0.00011252030181884765, 1.970703125) (-0.00011452127838134765, 1.97265625) (-0.00011595247650146484, 1.974609375) (-0.00011655706787109374, 1.9765625) (-0.00011603336334228515, 1.978515625) (-0.00011424606323242187, 1.98046875) (-0.00011116136169433593, 1.982421875) (-0.00010690187072753906, 1.984375) (-0.00010193834686279296, 1.986328125) (-9.677684020996093e-05, 1.98828125) (-9.19364013671875e-05, 1.990234375) (-8.802178955078124e-05, 1.9921875) (-8.546920013427735e-05, 1.994140625) (-8.459683990478515e-05, 1.99609375) (-8.567739868164063e-05, 1.998046875) (-8.864705657958984e-05, 2.0) (-9.306627655029297e-05, 2.001953125) (-9.727020263671875e-05, 2.00390625) (-9.829092407226562e-05, 2.005859375) (-9.370301818847656e-05, 2.0078125) (-8.150556945800781e-05, 2.009765625) (-6.310708999633789e-05, 2.01171875) (-4.324328994750976e-05, 2.013671875) (-2.3954547882080078e-05, 2.015625) (-6.1965370178222655e-06, 2.017578125) (1.4337074279785156e-05, 2.01953125) (4.754129409790039e-05, 2.021484375) (9.837600708007812e-05, 2.0234375) (0.00016938307189941405, 2.025390625) (0.0002566190185546875, 2.02734375) (0.0003458210144042969, 2.029296875) (0.0004218080444335937, 2.03125) (0.0004674914245605469, 2.033203125) (0.00046672543334960937, 2.03515625) (0.000412853759765625, 2.037109375) (0.0003068936767578125, 2.0390625) (0.0001568996887207031, 2.041015625) (-2.056450843811035e-05, 2.04296875) (-0.00020711322021484374, 2.044921875) (-0.000385092041015625, 2.046875) (-0.0005370540161132812, 2.048828125) (-0.0006512671508789062, 2.05078125) (-0.0007208211059570312, 2.052734375) (-0.0007452863769531249, 2.0546875) (-0.0007300943603515624, 2.056640625) (-0.0006819452514648437, 2.05859375) (-0.00061174462890625, 2.060546875) (-0.000528419189453125, 2.0625) (-0.000440699951171875, 2.064453125) (-0.0003602199401855469, 2.06640625) (-0.00029123687744140626, 2.068359375) (-0.00023576354980468748, 2.0703125) (-0.00019306001281738281, 2.072265625) (-0.00015593377685546873, 2.07421875) (-0.0001222391357421875, 2.076171875) (-9.28301010131836e-05, 2.078125) (-6.896174621582032e-05, 2.080078125) (-5.4933883666992184e-05, 2.08203125) (-5.145704650878906e-05, 2.083984375) (-5.5793403625488276e-05, 2.0859375) (-6.474250793457031e-05, 2.087890625) (-7.419654083251952e-05, 2.08984375) (-8.140643310546875e-05, 2.091796875) (-8.534709167480468e-05, 2.09375) (-8.57715072631836e-05, 2.095703125) (-8.31340560913086e-05, 2.09765625) (-7.808961486816406e-05, 2.099609375) (-7.141595458984374e-05, 2.1015625) (-6.413999938964843e-05, 2.103515625) (-5.724888229370117e-05, 2.10546875) (-5.1666316986083984e-05, 2.107421875) (-4.8152931213378905e-05, 2.109375) (-4.689620971679687e-05, 2.111328125) (-4.771846008300781e-05, 2.11328125) (-5.029107666015625e-05, 2.115234375) (-5.4084510803222656e-05, 2.1171875) (-5.856731033325195e-05, 2.119140625) (-6.327177429199219e-05, 2.12109375) (-6.768798065185546e-05, 2.123046875) (-7.137940216064453e-05, 2.125) (-7.415338897705078e-05, 2.126953125) (-7.596226501464844e-05, 2.12890625) (-7.68500518798828e-05, 2.130859375) (-7.694792175292969e-05, 2.1328125) (-7.635227966308593e-05, 2.134765625) (-7.514523315429687e-05, 2.13671875) (-7.345640563964844e-05, 2.138671875) (-7.141545104980469e-05, 2.140625) (-6.913626098632813e-05, 2.142578125) (-6.6722412109375e-05, 2.14453125) (-6.424615478515624e-05, 2.146484375) (-6.177633666992187e-05, 2.1484375) (-5.9400730133056635e-05, 2.150390625) (-5.721004486083984e-05, 2.15234375) (-5.529189300537109e-05, 2.154296875) (-5.370987701416015e-05, 2.15625) (-5.2491573333740234e-05, 2.158203125) (-5.1645481109619135e-05, 2.16015625) (-5.116899490356445e-05, 2.162109375) (-5.1046379089355466e-05, 2.1640625) (-5.125618743896484e-05, 2.166015625) (-5.176576995849609e-05, 2.16796875) (-5.252748107910156e-05, 2.169921875) (-5.3494556427001954e-05, 2.171875) (-5.462003707885742e-05, 2.173828125) (-5.585709762573242e-05, 2.17578125) (-5.716487121582031e-05, 2.177734375) (-5.849903869628906e-05, 2.1796875) (-5.981288909912109e-05, 2.181640625) (-6.106212997436523e-05, 2.18359375) (-6.220400619506836e-05, 2.185546875) (-6.320542907714843e-05, 2.1875) (-6.404571533203125e-05, 2.189453125) (-6.471007537841797e-05, 2.19140625) (-6.518785095214844e-05, 2.193359375) (-6.547329711914063e-05, 2.1953125) (-6.556278991699219e-05, 2.197265625) (-6.545683288574219e-05, 2.19921875) (-6.516094207763672e-05, 2.201171875) (-6.467904663085937e-05, 2.203125) (-6.40135498046875e-05, 2.205078125) (-6.316696166992188e-05, 2.20703125) (-6.214117431640625e-05, 2.208984375) (-6.093993377685547e-05, 2.2109375) (-5.956893920898437e-05, 2.212890625) (-5.803422164916992e-05, 2.21484375) (-5.634206008911132e-05, 2.216796875) (-5.449852752685547e-05, 2.21875) (-5.250923156738281e-05, 2.220703125) (-5.0380283355712885e-05, 2.22265625) (-4.811841583251953e-05, 2.224609375) (-4.573053741455078e-05, 2.2265625) (-4.3224121093749995e-05, 2.228515625) (-4.060690307617187e-05, 2.23046875) (-3.788686370849609e-05, 2.232421875) (-3.5073566436767575e-05, 2.234375) (-3.217799377441406e-05, 2.236328125) (-2.9211822509765624e-05, 2.23828125) (-2.6187490463256836e-05, 2.240234375) (-2.3117633819580078e-05, 2.2421875) (-2.0014883041381836e-05, 2.244140625) (-1.689226722717285e-05, 2.24609375) (-1.3762977600097656e-05, 2.248046875) (-1.0639795303344725e-05, 2.25) (-7.535052776336669e-06, 2.251953125) (-4.460658550262451e-06, 2.25390625) (-1.428030490875244e-06, 2.255859375) (1.55176842212677e-06, 2.2578125) (4.468157768249511e-06, 2.259765625) (7.311216831207275e-06, 2.26171875) (1.0071687698364257e-05, 2.263671875) (1.2740991592407226e-05, 2.265625) (1.53111515045166e-05, 2.267578125) (1.7774829864501952e-05, 2.26953125) (2.0125444412231446e-05, 2.271484375) (2.235703468322754e-05, 2.2734375) (2.4464256286621094e-05, 2.275390625) (2.644239044189453e-05, 2.27734375) (2.8287242889404294e-05, 2.279296875) (2.999519729614258e-05, 2.28125) (3.156326675415039e-05, 2.283203125) (3.2989059448242185e-05, 2.28515625) (3.4270790100097654e-05, 2.287109375) (3.540731048583984e-05, 2.2890625) (3.6398097991943356e-05, 2.291015625) (3.7243263244628904e-05, 2.29296875) (3.794359588623047e-05, 2.294921875) (3.850057220458984e-05, 2.296875) (3.891634368896484e-05, 2.298828125) (3.919367980957031e-05, 2.30078125) (3.933588409423828e-05, 2.302734375) (3.934687042236328e-05, 2.3046875) (3.9231048583984374e-05, 2.306640625) (3.899336242675781e-05, 2.30859375) (3.863921737670898e-05, 2.310546875) (3.81743049621582e-05, 2.3125) (3.760454940795898e-05, 2.314453125) (3.693610763549804e-05, 2.31640625) (3.617533874511719e-05, 2.318359375) (3.532872009277344e-05, 2.3203125) (3.440281677246094e-05, 2.322265625) (3.340418243408203e-05, 2.32421875) (3.2339286804199215e-05, 2.326171875) (3.121454620361328e-05, 2.328125) (3.0036312103271482e-05, 2.330078125) (2.8810844421386717e-05, 2.33203125) (2.7544294357299802e-05, 2.333984375) (2.6242698669433594e-05, 2.3359375) (2.4911987304687498e-05, 2.337890625) (2.355801010131836e-05, 2.33984375) (2.2186582565307617e-05, 2.341796875) (2.080346870422363e-05, 2.34375) (1.9414384841918943e-05, 2.345703125) (1.8024955749511718e-05, 2.34765625) (1.6640686035156248e-05, 2.349609375) (1.5266927719116212e-05, 2.3515625) (1.390886116027832e-05, 2.353515625) (1.2571425437927245e-05, 2.35546875) (1.125928783416748e-05, 2.357421875) (9.976776123046874e-06, 2.359375) (8.727844238281249e-06, 2.361328125) (7.516064167022705e-06, 2.36328125) (6.34462308883667e-06, 2.365234375) (5.216294765472412e-06, 2.3671875) (4.133435249328613e-06, 2.369140625) (3.09796142578125e-06, 2.37109375) (2.1113505363464356e-06, 2.373046875) (1.1746684312820434e-06, 2.375) (2.8859248757362367e-07, 2.376953125) (-5.46585202217102e-07, 2.37890625) (-1.3309297561645507e-06, 2.380859375) (-2.064830541610718e-06, 2.3828125) (-2.7489588260650633e-06, 2.384765625) (-3.3841955661773682e-06, 2.38671875) (-3.9715700149536135e-06, 2.388671875) (-4.5122289657592775e-06, 2.390625) (-5.007406234741211e-06, 2.392578125) (-5.458401679992675e-06, 2.39453125) (-5.866578578948974e-06, 2.396484375) (-6.233355045318604e-06, 2.3984375) (-6.560213088989258e-06, 2.400390625) (-6.848745346069336e-06, 2.40234375) (-7.100681781768799e-06, 2.404296875) (-7.317917823791504e-06, 2.40625) (-7.502524375915527e-06, 2.408203125) (-7.656736850738526e-06, 2.41015625) (-7.782931327819824e-06, 2.412109375) (-7.883619785308837e-06, 2.4140625) (-7.961424827575683e-06, 2.416015625) (-8.019051551818848e-06, 2.41796875) (-8.059260368347168e-06, 2.419921875) (-8.084826469421386e-06, 2.421875) (-8.098513603210449e-06, 2.423828125) (-8.103067398071289e-06, 2.42578125) (-8.101205825805663e-06, 2.427734375) (-8.095594406127929e-06, 2.4296875) (-8.088823318481445e-06, 2.431640625) (-8.083373069763183e-06, 2.43359375) (-8.08157730102539e-06, 2.435546875) (-8.08560848236084e-06, 2.4375) (-8.097472190856933e-06, 2.439453125) (-8.118982315063477e-06, 2.44140625) (-8.151771545410155e-06, 2.443359375) (-8.197292327880858e-06, 2.4453125) (-8.256853103637695e-06, 2.447265625) (-8.331668853759765e-06, 2.44921875) (-8.422917366027831e-06, 2.451171875) (-8.531763076782226e-06, 2.453125) (-8.659395217895507e-06, 2.455078125) (-8.807024002075195e-06, 2.45703125) (-8.975886344909668e-06, 2.458984375) (-9.167236328125e-06, 2.4609375) (-9.382333755493163e-06, 2.462890625) (-9.622389793395996e-06, 2.46484375) (-9.888534545898437e-06, 2.466796875) (-1.0181781768798827e-05, 2.46875) (-1.050300121307373e-05, 2.470703125) (-1.0852919578552246e-05, 2.47265625) (-1.123213005065918e-05, 2.474609375) (-1.1641067504882812e-05, 2.4765625) (-1.2080013275146485e-05, 2.478515625) (-1.2549078941345214e-05, 2.48046875) (-1.3048203468322753e-05, 2.482421875) (-1.3577150344848632e-05, 2.484375) (-1.4135509490966797e-05, 2.486328125) (-1.4722683906555175e-05, 2.48828125) (-1.533786964416504e-05, 2.490234375) (-1.598007583618164e-05, 2.4921875) (-1.6648134231567383e-05, 2.494140625) (-1.7340755462646484e-05, 2.49609375) (-1.8056556701660154e-05, 2.498046875) (-1.879410934448242e-05, 2.5) (-1.955192756652832e-05, 2.501953125) (-2.0328516006469726e-05, 2.50390625) (-2.1122364044189452e-05, 2.505859375) (-2.193195343017578e-05, 2.5078125) (-2.2755731582641602e-05, 2.509765625) (-2.359209442138672e-05, 2.51171875) (-2.4439329147338865e-05, 2.513671875) (-2.529558753967285e-05, 2.515625) (-2.615888786315918e-05, 2.517578125) (-2.7027118682861326e-05, 2.51953125) (-2.7898063659667967e-05, 2.521484375) (-2.8769412994384763e-05, 2.5234375) (-2.9638771057128905e-05, 2.525390625) (-3.0503686904907225e-05, 2.52734375) (-3.1361684799194333e-05, 2.529296875) (-3.221030807495117e-05, 2.53125) (-3.304713439941406e-05, 2.533203125) (-3.386978530883789e-05, 2.53515625) (-3.467589569091797e-05, 2.537109375) (-3.546315765380859e-05, 2.5390625) (-3.6229339599609374e-05, 2.541015625) (-3.6972328186035156e-05, 2.54296875) (-3.769014739990234e-05, 2.544921875) (-3.838101196289062e-05, 2.546875) (-3.9043323516845704e-05, 2.548828125) (-3.967568588256836e-05, 2.55078125) (-4.027693176269531e-05, 2.552734375) (-4.084613037109375e-05, 2.5546875) (-4.138257980346679e-05, 2.556640625) (-4.188575744628906e-05, 2.55859375) (-4.2355258941650386e-05, 2.560546875) (-4.2790802001953125e-05, 2.5625) (-4.3192161560058594e-05, 2.564453125) (-4.355922698974609e-05, 2.56640625) (-4.3891944885253906e-05, 2.568359375) (-4.419034957885742e-05, 2.5703125) (-4.4454521179199215e-05, 2.572265625) (-4.4684608459472654e-05, 2.57421875) (-4.4880847930908204e-05, 2.576171875) (-4.504359436035156e-05, 2.578125) (-4.51733169555664e-05, 2.580078125) (-4.527054595947266e-05, 2.58203125) (-4.533582687377929e-05, 2.583984375) (-4.536970901489258e-05, 2.5859375) (-4.537274169921875e-05, 2.587890625) (-4.534549331665039e-05, 2.58984375) (-4.528852081298828e-05, 2.591796875) (-4.520233154296875e-05, 2.59375) (-4.508733367919922e-05, 2.595703125) (-4.4943832397460936e-05, 2.59765625) (-4.477208709716797e-05, 2.599609375) (-4.4572296142578124e-05, 2.6015625) (-4.434456253051758e-05, 2.603515625) (-4.408884811401367e-05, 2.60546875) (-4.38049087524414e-05, 2.607421875) (-4.3492279052734373e-05, 2.609375) (-4.315027618408203e-05, 2.611328125) (-4.277803039550781e-05, 2.61328125) (-4.2374443054199215e-05, 2.615234375) (-4.193815612792969e-05, 2.6171875) (-4.146758270263672e-05, 2.619140625) (-4.096090698242187e-05, 2.62109375) (-4.0416130065917964e-05, 2.623046875) (-3.9831237792968745e-05, 2.625) (-3.920409393310547e-05, 2.626953125) (-3.853246688842773e-05, 2.62890625) (-3.781401443481445e-05, 2.630859375) (-3.704631423950195e-05, 2.6328125) (-3.6226913452148436e-05, 2.634765625) (-3.535341644287109e-05, 2.63671875) (-3.442346572875976e-05, 2.638671875) (-3.343465805053711e-05, 2.640625) (-3.2384571075439454e-05, 2.642578125) (-3.12708740234375e-05, 2.64453125) (-3.009137725830078e-05, 2.646484375) (-2.8844142913818356e-05, 2.6484375) (-2.7527385711669922e-05, 2.650390625) (-2.6139453887939452e-05, 2.65234375) (-2.467884063720703e-05, 2.654296875) (-2.3144338607788083e-05, 2.65625) (-2.153509521484375e-05, 2.658203125) (-1.985070037841797e-05, 2.66015625) (-1.809111785888672e-05, 2.662109375) (-1.625653266906738e-05, 2.6640625) (-1.4347533226013183e-05, 2.666015625) (-1.2365118026733397e-05, 2.66796875) (-1.0310727119445801e-05, 2.669921875) (-8.186421394348144e-06, 2.671875) (-5.994709491729736e-06, 2.673828125) (-3.7384283542633055e-06, 2.67578125) (-1.4208512306213378e-06, 2.677734375) (9.541887640953063e-07, 2.6796875) (3.382371664047241e-06, 2.681640625) (5.858736991882324e-06, 2.68359375) (8.377779960632324e-06, 2.685546875) (1.093386459350586e-05, 2.6875) (1.352097988128662e-05, 2.689453125) (1.6132659912109374e-05, 2.69140625) (1.876200485229492e-05, 2.693359375) (2.1401626586914062e-05, 2.6953125) (2.4043876647949216e-05, 2.697265625) (2.6681001663208007e-05, 2.69921875) (2.930509567260742e-05, 2.701171875) (3.19078254699707e-05, 2.703125) (3.4480426788330075e-05, 2.705078125) (3.7013908386230466e-05, 2.70703125) (3.949925231933593e-05, 2.708984375) (4.1927490234375e-05, 2.7109375) (4.4289466857910155e-05, 2.712890625) (4.6575782775878906e-05, 2.71484375) (4.877667236328125e-05, 2.716796875) (5.0882507324218746e-05, 2.71875) (5.2884151458740234e-05, 2.720703125) (5.477279281616211e-05, 2.72265625) (5.653985595703125e-05, 2.724609375) (5.817702484130859e-05, 2.7265625) (5.967657470703125e-05, 2.728515625) (6.1031761169433594e-05, 2.73046875) (6.223719024658203e-05, 2.732421875) (6.328822326660156e-05, 2.734375) (6.418080139160156e-05, 2.736328125) (6.491140747070312e-05, 2.73828125) (6.547687530517577e-05, 2.740234375) (6.587538146972656e-05, 2.7421875) (6.610604858398438e-05, 2.744140625) (6.616842651367187e-05, 2.74609375) (6.606307983398437e-05, 2.748046875) (6.579129028320312e-05, 2.75) (6.53552017211914e-05, 2.751953125) (6.476002502441406e-05, 2.75390625) (6.401404571533203e-05, 2.755859375) (6.312535095214844e-05, 2.7578125) (6.210296630859375e-05, 2.759765625) (6.0954845428466796e-05, 2.76171875) (5.968619918823242e-05, 2.763671875) (5.8306182861328124e-05, 2.765625) (5.682629013061523e-05, 2.767578125) (5.525702285766601e-05, 2.76953125) (5.361061096191406e-05, 2.771484375) (5.190064239501953e-05, 2.7734375) (5.0142738342285154e-05, 2.775390625) (4.836125946044922e-05, 2.77734375) (4.658694458007812e-05, 2.779296875) (4.484759521484375e-05, 2.78125) (4.317060089111328e-05, 2.783203125) (4.157738494873047e-05, 2.78515625) (4.0082157135009763e-05, 2.787109375) (3.8705215454101564e-05, 2.7890625) (3.74652099609375e-05, 2.791015625) (3.637978744506836e-05, 2.79296875) (3.5471389770507814e-05, 2.794921875) (3.475140380859375e-05, 2.796875) (3.422502899169922e-05, 2.798828125) (3.39036865234375e-05, 2.80078125) (3.3793968200683594e-05, 2.802734375) (3.3890312194824214e-05, 2.8046875) (3.417727279663086e-05, 2.806640625) (3.4608661651611326e-05, 2.80859375) (3.511497497558594e-05, 2.810546875) (3.563567352294922e-05, 2.8125) (3.6112247467041016e-05, 2.814453125) (3.649908065795898e-05, 2.81640625) (3.675946807861328e-05, 2.818359375) (3.683750915527344e-05, 2.8203125) (3.667604827880859e-05, 2.822265625) (3.6220535278320314e-05, 2.82421875) (3.541749954223633e-05, 2.826171875) (3.424627304077148e-05, 2.828125) (3.26819839477539e-05, 2.830078125) (3.065917015075683e-05, 2.83203125) (2.81562385559082e-05, 2.833984375) (2.5224918365478514e-05, 2.8359375) (2.2010028839111327e-05, 2.837890625) (1.8829164505004883e-05, 2.83984375) (1.6058977127075193e-05, 2.841796875) (1.4012704849243163e-05, 2.84375) (1.303684139251709e-05, 2.845703125) (1.3491999626159668e-05, 2.84765625) (1.5606627464294433e-05, 2.849609375) (1.9495811462402344e-05, 2.8515625) (2.4977344512939452e-05, 2.853515625) (3.142021179199219e-05, 2.85546875) (3.8066253662109375e-05, 2.857421875) (4.416581344604492e-05, 2.859375) (4.893717956542969e-05, 2.861328125) (5.173155212402344e-05, 2.86328125) (5.21235122680664e-05, 2.865234375) (4.991399765014648e-05, 2.8671875) (4.5564910888671876e-05, 2.869140625) (4.037814331054687e-05, 2.87109375) (3.6023468017578127e-05, 2.873046875) (3.4372711181640626e-05, 2.875) (3.748352432250977e-05, 2.876953125) (4.734601593017578e-05, 2.87890625) (6.581027984619141e-05, 2.880859375) (9.463508605957031e-05, 2.8828125) (0.00013391204833984374, 2.884765625) (0.00018109574890136718, 2.88671875) (0.00023253997802734374, 2.888671875) (0.00028389398193359375, 2.890625) (0.0003327174072265625, 2.892578125) (0.00038106246948242184, 2.89453125) (0.0004312732238769531, 2.896484375) (0.00048305438232421874, 2.8984375) (0.00053030126953125, 2.900390625) (0.0005578984985351562, 2.90234375) (0.000548366943359375, 2.904296875) (0.0004886895446777344, 2.90625) (0.0003758554992675781, 2.908203125) (0.00022078581237792966, 2.91015625) (4.296840667724609e-05, 2.912109375) (-0.00013425907897949218, 2.9140625) (-0.0002903359375, 2.916015625) (-0.00041219418334960937, 2.91796875) (-0.0004911461791992188, 2.919921875) (-0.000526692138671875, 2.921875) (-0.000524133544921875, 2.923828125) (-0.0004901418762207031, 2.92578125) (-0.00043770428466796874, 2.927734375) (-0.0003781367492675781, 2.9296875) (-0.0003177928771972656, 2.931640625) (-0.00026227413940429687, 2.93359375) (-0.00020983509826660155, 2.935546875) (-0.0001564239807128906, 2.9375) (-0.00010184324645996093, 2.939453125) (-4.6073421478271484e-05, 2.94140625) (6.895973682403564e-06, 2.943359375) (5.0661766052246094e-05, 2.9453125) (8.253218078613281e-05, 2.947265625) (0.00010159378051757812, 2.94921875) (0.00010927106475830078, 2.951171875) (0.00010930873107910156, 2.953125) (0.00010418989562988281, 2.955078125) (9.600311279296874e-05, 2.95703125) (8.687417602539062e-05, 2.958984375) (7.825286102294921e-05, 2.9609375) (7.163177490234374e-05, 2.962890625) (6.788854980468749e-05, 2.96484375) (6.68979263305664e-05, 2.966796875) (6.8195556640625e-05, 2.96875) (7.11681900024414e-05, 2.970703125) (7.497404479980469e-05, 2.97265625) (7.880504608154296e-05, 2.974609375) (8.181222534179687e-05, 2.9765625) (8.311215209960937e-05, 2.978515625) (8.238007354736328e-05, 2.98046875) (7.975944519042968e-05, 2.982421875) (7.557778930664062e-05, 2.984375) (7.033441162109374e-05, 2.986328125) (6.452423858642578e-05, 2.98828125) (5.857019805908203e-05, 2.990234375) (5.294902801513672e-05, 2.9921875) (4.813362884521484e-05, 2.994140625) (4.435543060302734e-05, 2.99609375) (4.166947555541992e-05, 2.998046875) (4.003343200683594e-05, 3.0) (3.930289840698242e-05, 3.001953125) (3.936409759521484e-05, 3.00390625) (4.0130737304687495e-05, 3.005859375) (4.1473834991455076e-05, 3.0078125) (4.3251068115234376e-05, 3.009765625) (4.5342384338378906e-05, 3.01171875) (4.764134979248047e-05, 3.013671875) (5.005566787719727e-05, 3.015625) (5.250855255126953e-05, 3.017578125) (5.4905250549316405e-05, 3.01953125) (5.7143089294433594e-05, 3.021484375) (5.914609146118164e-05, 3.0234375) (6.086169052124023e-05, 3.025390625) (6.226348876953125e-05, 3.02734375) (6.33483657836914e-05, 3.029296875) (6.412174987792968e-05, 3.03125) (6.459835815429688e-05, 3.033203125) (6.480403900146484e-05, 3.03515625) (6.477378845214843e-05, 3.037109375) (6.454534912109374e-05, 3.0390625) (6.41565933227539e-05, 3.041015625) (6.364461898803711e-05, 3.04296875) (6.304483795166016e-05, 3.044921875) (6.23966064453125e-05, 3.046875) (6.174079132080078e-05, 3.048828125) (6.111863327026367e-05, 3.05078125) (6.0569877624511715e-05, 3.052734375) (6.012331390380859e-05, 3.0546875) (5.979818344116211e-05, 3.056640625) (5.960597991943359e-05, 3.05859375) (5.955068206787109e-05, 3.060546875) (5.963229751586914e-05, 3.0625) (5.9847480773925775e-05, 3.064453125) (6.018849945068359e-05, 3.06640625) (6.064458084106445e-05, 3.068359375) (6.120709991455078e-05, 3.0703125) (6.186908721923827e-05, 3.072265625) (6.262459182739257e-05, 3.07421875) (6.346906280517577e-05, 3.076171875) (6.439589691162109e-05, 3.078125) (6.539736175537109e-05, 3.080078125) (6.646583557128906e-05, 3.08203125) (6.759356689453125e-05, 3.083984375) (6.877394104003907e-05, 3.0859375) (7.000124359130859e-05, 3.087890625) (7.12698516845703e-05, 3.08984375) (7.257443237304687e-05, 3.091796875) (7.391032409667969e-05, 3.09375) (7.527294158935547e-05, 3.095703125) (7.66580581665039e-05, 3.09765625) (7.806158447265625e-05, 3.099609375) (7.947785949707032e-05, 3.1015625) (8.09002685546875e-05, 3.103515625) (8.232173919677734e-05, 3.10546875) (8.373458099365234e-05, 3.107421875) (8.513116455078124e-05, 3.109375) (8.650402069091797e-05, 3.111328125) (8.784538269042969e-05, 3.11328125) (8.914756774902343e-05, 3.115234375) (9.040362548828124e-05, 3.1171875) (9.160716247558593e-05, 3.119140625) (9.275225830078125e-05, 3.12109375) (9.383371734619141e-05, 3.123046875) (9.484652709960937e-05, 3.125) (9.578612518310547e-05, 3.126953125) (9.664851379394531e-05, 3.12890625) (9.743014526367187e-05, 3.130859375) (9.81278076171875e-05, 3.1328125) (9.873863220214844e-05, 3.134765625) (9.926006317138671e-05, 3.13671875) (9.968981933593749e-05, 3.138671875) (0.00010002604675292969, 3.140625) (0.00010026717376708984, 3.142578125) (0.00010041188049316405, 3.14453125) (0.00010045917510986328, 3.146484375) (0.00010040828704833984, 3.1484375) (0.00010025875854492188, 3.150390625) (0.00010001044464111328, 3.15234375) (9.966348266601562e-05, 3.154296875) (9.921820831298828e-05, 3.15625) (9.867522430419921e-05, 3.158203125) (9.803536987304687e-05, 3.16015625) (9.729981994628905e-05, 3.162109375) (9.64700927734375e-05, 3.1640625) (9.554806518554688e-05, 3.166015625) (9.453587341308593e-05, 3.16796875) (9.343595123291015e-05, 3.169921875) (9.225103759765625e-05, 3.171875) (9.0984130859375e-05, 3.173828125) (8.96384506225586e-05, 3.17578125) (8.821736145019531e-05, 3.177734375) (8.672415161132812e-05, 3.1796875) (8.516203308105468e-05, 3.181640625) (8.353419494628905e-05, 3.18359375) (8.184371948242188e-05, 3.185546875) (8.009367370605468e-05, 3.1875) (7.828699493408202e-05, 3.189453125) (7.642654418945312e-05, 3.19140625) (7.451515197753906e-05, 3.193359375) (7.255567932128905e-05, 3.1953125) (7.055108642578124e-05, 3.197265625) (6.850436401367187e-05, 3.19921875) (6.641858673095703e-05, 3.201171875) (6.429685974121093e-05, 3.203125) (6.214234161376953e-05, 3.205078125) (5.995832443237305e-05, 3.20703125) (5.774818801879882e-05, 3.208984375) (5.5515434265136715e-05, 3.2109375) (5.3263622283935544e-05, 3.212890625) (5.0996421813964845e-05, 3.21484375) (4.871760177612305e-05, 3.216796875) (4.643104934692383e-05, 3.21875) (4.414071273803711e-05, 3.220703125) (4.185059356689453e-05, 3.22265625) (3.956464004516601e-05, 3.224609375) (3.7286708831787105e-05, 3.2265625) (3.5020561218261717e-05, 3.228515625) (3.276983642578125e-05, 3.23046875) (3.0538022994995114e-05, 3.232421875) (2.8328445434570312e-05, 3.234375) (2.6144245147705076e-05, 3.236328125) (2.398843765258789e-05, 3.23828125) (2.186394691467285e-05, 3.240234375) (1.9773670196533204e-05, 3.2421875) (1.772048759460449e-05, 3.244140625) (1.5707255363464353e-05, 3.24609375) (1.3736814498901366e-05, 3.248046875) (1.1811986923217774e-05, 3.25) (9.935590744018555e-06, 3.251953125) (8.110434532165528e-06, 3.25390625) (6.339268684387207e-06, 3.255859375) (4.624756813049316e-06, 3.2578125) (2.9694471359252927e-06, 3.259765625) (1.3757672309875487e-06, 3.26171875) (-1.5396970510482788e-07, 3.263671875) (-1.617577075958252e-06, 3.265625) (-3.0130352973937986e-06, 3.267578125) (-4.338534355163574e-06, 3.26953125) (-5.592503547668457e-06, 3.271484375) (-6.77362585067749e-06, 3.2734375) (-7.880844116210938e-06, 3.275390625) (-8.913378715515136e-06, 3.27734375) (-9.87075901031494e-06, 3.279296875) (-1.0752840042114257e-05, 3.28125) (-1.1559779167175293e-05, 3.283203125) (-1.2291996002197265e-05, 3.28515625) (-1.2950124740600585e-05, 3.287109375) (-1.3534975051879882e-05, 3.2890625) (-1.4047531127929687e-05, 3.291015625) (-1.4488941192626952e-05, 3.29296875) (-1.4860507011413573e-05, 3.294921875) (-1.5163671493530273e-05, 3.296875) (-1.5400009155273438e-05, 3.298828125) (-1.5571246147155762e-05, 3.30078125) (-1.5679313659667968e-05, 3.302734375) (-1.5726369857788085e-05, 3.3046875) (-1.571480941772461e-05, 3.306640625) (-1.5647262573242186e-05, 3.30859375) (-1.5526569366455076e-05, 3.310546875) (-1.5355783462524414e-05, 3.3125) (-1.5138180732727051e-05, 3.314453125) (-1.4877272605895995e-05, 3.31640625) (-1.4576787948608398e-05, 3.318359375) (-1.4240640640258788e-05, 3.3203125) (-1.387291145324707e-05, 3.322265625) (-1.3477819442749023e-05, 3.32421875) (-1.3059723854064941e-05, 3.326171875) (-1.262312126159668e-05, 3.328125) (-1.2172586441040038e-05, 3.330078125) (-1.1712709426879882e-05, 3.33203125) (-1.124804401397705e-05, 3.333984375) (-1.0783056259155273e-05, 3.3359375) (-1.0322118759155273e-05, 3.337890625) (-9.869479179382324e-06, 3.33984375) (-9.429231643676758e-06, 3.341796875) (-9.005288124084473e-06, 3.34375) (-8.601353645324707e-06, 3.345703125) (-8.220939636230468e-06, 3.34765625) (-7.867393970489501e-06, 3.349609375) (-7.543912887573242e-06, 3.3515625) (-7.253515243530273e-06, 3.353515625) (-6.999031543731689e-06, 3.35546875) (-6.783052444458008e-06, 3.357421875) (-6.607913494110107e-06, 3.359375) (-6.4757022857666015e-06, 3.361328125) (-6.388250350952148e-06, 3.36328125) (-6.347079277038574e-06, 3.365234375) (-6.353372573852539e-06, 3.3671875) (-6.407936096191406e-06, 3.369140625) (-6.511186122894287e-06, 3.37109375) (-6.663204669952392e-06, 3.373046875) (-6.86375617980957e-06, 3.375) (-7.112255573272705e-06, 3.376953125) (-7.407724857330322e-06, 3.37890625) (-7.748762130737305e-06, 3.380859375) (-8.13355827331543e-06, 3.3828125) (-8.559930801391601e-06, 3.384765625) (-9.02535057067871e-06, 3.38671875) (-9.526941299438477e-06, 3.388671875) (-1.0061458587646483e-05, 3.390625) (-1.0625311851501464e-05, 3.392578125) (-1.1214624404907226e-05, 3.39453125) (-1.182532501220703e-05, 3.396484375) (-1.245320701599121e-05, 3.3984375) (-1.3093942642211914e-05, 3.400390625) (-1.3743112564086914e-05, 3.40234375) (-1.4396167755126953e-05, 3.404296875) (-1.5048465728759764e-05, 3.40625) (-1.5695331573486327e-05, 3.408203125) (-1.6332117080688476e-05, 3.41015625) (-1.6954153060913086e-05, 3.412109375) (-1.755677032470703e-05, 3.4140625) (-1.813530921936035e-05, 3.416015625) (-1.8685152053833007e-05, 3.41796875) (-1.9201868057250976e-05, 3.419921875) (-1.9681343078613282e-05, 3.421875) (-2.011972427368164e-05, 3.423828125) (-2.0513412475585935e-05, 3.42578125) (-2.0859148025512693e-05, 3.427734375) (-2.1154041290283202e-05, 3.4296875) (-2.1395671844482422e-05, 3.431640625) (-2.1582153320312498e-05, 3.43359375) (-2.1711984634399415e-05, 3.435546875) (-2.178394317626953e-05, 3.4375) (-2.1797155380249023e-05, 3.439453125) (-2.1751155853271483e-05, 3.44140625) (-2.1645999908447264e-05, 3.443359375) (-2.148223876953125e-05, 3.4453125) (-2.126087188720703e-05, 3.447265625) (-2.098328399658203e-05, 3.44921875) (-2.065127182006836e-05, 3.451171875) (-2.0267143249511717e-05, 3.453125) (-1.9833786010742185e-05, 3.455078125) (-1.9354583740234374e-05, 3.45703125) (-1.8833251953125e-05, 3.458984375) (-1.8273773193359374e-05, 3.4609375) (-1.7680356979370116e-05, 3.462890625) (-1.7057411193847654e-05, 3.46484375) (-1.6409690856933593e-05, 3.466796875) (-1.5742284774780274e-05, 3.46875) (-1.50604248046875e-05, 3.470703125) (-1.4369417190551757e-05, 3.47265625) (-1.3674726486206054e-05, 3.474609375) (-1.2981956481933593e-05, 3.4765625) (-1.2296852111816405e-05, 3.478515625) (-1.1625307083129883e-05, 3.48046875) (-1.097298240661621e-05, 3.482421875) (-1.0345011711120606e-05, 3.484375) (-9.746219635009766e-06, 3.486328125) (-9.181150436401367e-06, 3.48828125) (-8.653784751892089e-06, 3.490234375) (-8.167472839355469e-06, 3.4921875) (-7.72470760345459e-06, 3.494140625) (-7.326969623565673e-06, 3.49609375) (-6.975390911102294e-06, 3.498046875) (-6.6710991859436035e-06, 3.5) (-6.414843559265137e-06, 3.501953125) (-6.206811904907226e-06, 3.50390625) (-6.046751976013183e-06, 3.505859375) (-5.934105396270752e-06, 3.5078125) (-5.868400573730468e-06, 3.509765625) (-5.849429607391357e-06, 3.51171875) (-5.876229763031006e-06, 3.513671875) (-5.9464254379272455e-06, 3.515625) (-6.056262969970703e-06, 3.517578125) (-6.2009034156799316e-06, 3.51953125) (-6.375170707702637e-06, 3.521484375) (-6.5734491348266594e-06, 3.5234375) (-6.789263725280762e-06, 3.525390625) (-7.015148639678954e-06, 3.52734375) (-7.2428131103515626e-06, 3.529296875) (-7.463897705078125e-06, 3.53125) (-7.671574592590332e-06, 3.533203125) (-7.860541343688964e-06, 3.53515625) (-8.02425193786621e-06, 3.537109375) (-8.154973983764648e-06, 3.5390625) (-8.242876052856445e-06, 3.541015625) (-8.27594757080078e-06, 3.54296875) (-8.245439529418945e-06, 3.544921875) (-8.146270751953124e-06, 3.546875) (-7.974458694458007e-06, 3.548828125) (-7.726603507995606e-06, 3.55078125) (-7.400677680969238e-06, 3.552734375) (-6.997798919677734e-06, 3.5546875) (-6.525361061096191e-06, 3.556640625) (-5.998017787933349e-06, 3.55859375) (-5.4297323226928704e-06, 3.560546875) (-4.8288049697875975e-06, 3.5625) (-4.1962938308715815e-06, 3.564453125) (-3.5274324417114257e-06, 3.56640625) (-2.8198766708374024e-06, 3.568359375) (-2.07208776473999e-06, 3.5703125) (-1.2834963798522949e-06, 3.572265625) (-4.531466960906982e-07, 3.57421875) (4.2892342805862426e-07, 3.576171875) (1.37480092048645e-06, 3.578125) (2.391785621643066e-06, 3.580078125) (3.4827523231506345e-06, 3.58203125) (4.651376724243164e-06, 3.583984375) (5.907871246337891e-06, 3.5859375) (7.275323390960693e-06, 3.587890625) (8.79033088684082e-06, 3.58984375) (1.0481626510620117e-05, 3.591796875) (1.2360692977905274e-05, 3.59375) (1.4422907829284667e-05, 3.595703125) (1.6651008605957032e-05, 3.59765625) (1.902743148803711e-05, 3.599609375) (2.152901458740234e-05, 3.6015625) (2.4124774932861327e-05, 3.603515625) (2.6771102905273436e-05, 3.60546875) (2.940695571899414e-05, 3.607421875) (3.1975473403930665e-05, 3.609375) (3.443247985839844e-05, 3.611328125) (3.6744125366210935e-05, 3.61328125) (3.887785720825195e-05, 3.615234375) (4.079081726074219e-05, 3.6171875) (4.242303085327148e-05, 3.619140625) (4.370082473754883e-05, 3.62109375) (4.456495666503906e-05, 3.623046875) (4.497818374633789e-05, 3.625) (4.492139053344726e-05, 3.626953125) (4.438790512084961e-05, 3.62890625) (4.337238311767578e-05, 3.630859375) (4.1882350921630855e-05, 3.6328125) (3.99423599243164e-05, 3.634765625) (3.760197448730469e-05, 3.63671875) (3.493338012695312e-05, 3.638671875) (3.1997251510620116e-05, 3.640625) (2.8837594985961912e-05, 3.642578125) (2.548722457885742e-05, 3.64453125) (2.1974706649780273e-05, 3.646484375) (1.8341522216796874e-05, 3.6484375) (1.4647192001342773e-05, 3.650390625) (1.095738124847412e-05, 3.65234375) (7.324165821075439e-06, 3.654296875) (3.788938283920288e-06, 3.65625) (3.853107690811157e-07, 3.658203125) (-2.8524613380432126e-06, 3.66015625) (-5.8804531097412105e-06, 3.662109375) (-8.666814804077148e-06, 3.6640625) (-1.1197004318237304e-05, 3.666015625) (-1.3477977752685546e-05, 3.66796875) (-1.553719615936279e-05, 3.669921875) (-1.7387203216552735e-05, 3.671875) (-1.902328300476074e-05, 3.673828125) (-2.043609619140625e-05, 3.67578125) (-2.1610780715942383e-05, 3.677734375) (-2.254475402832031e-05, 3.6796875) (-2.3253198623657224e-05, 3.681640625) (-2.37479133605957e-05, 3.68359375) (-2.4032184600830078e-05, 3.685546875) (-2.41182804107666e-05, 3.6875) (-2.4028129577636718e-05, 3.689453125) (-2.3800983428955077e-05, 3.69140625) (-2.3509517669677732e-05, 3.693359375) (-2.322612762451172e-05, 3.6953125) (-2.300859451293945e-05, 3.697265625) (-2.2914775848388672e-05, 3.69921875) (-2.2984821319580077e-05, 3.701171875) (-2.3260086059570312e-05, 3.703125) (-2.3800441741943357e-05, 3.705078125) (-2.4659908294677734e-05, 3.70703125) (-2.5887437820434568e-05, 3.708984375) (-2.7522907257080076e-05, 3.7109375) (-2.9587516784667966e-05, 3.712890625) (-3.208033752441406e-05, 3.71484375) (-3.5004756927490236e-05, 3.716796875) (-3.836625289916992e-05, 3.71875) (-4.2092445373535153e-05, 3.720703125) (-4.603849792480469e-05, 3.72265625) (-4.996842956542969e-05, 3.724609375) (-5.352639389038086e-05, 3.7265625) (-5.634719848632812e-05, 3.728515625) (-5.813249206542969e-05, 3.73046875) (-5.858075714111328e-05, 3.732421875) (-5.7351348876953125e-05, 3.734375) (-5.4268501281738276e-05, 3.736328125) (-4.933973693847656e-05, 3.73828125) (-4.276033782958984e-05, 3.740234375) (-3.515887832641601e-05, 3.7421875) (-2.731085395812988e-05, 3.744140625) (-1.9777179718017578e-05, 3.74609375) (-1.3109504699707031e-05, 3.748046875) (-7.992010593414306e-06, 3.75) (-4.852126121520996e-06, 3.751953125) (-3.7914569377899167e-06, 3.75390625) (-4.704276084899902e-06, 3.755859375) (-5.680769920349121e-06, 3.7578125) (-3.561096429824829e-06, 3.759765625) (3.959511280059814e-06, 3.76171875) (1.9205642700195313e-05, 3.763671875) (4.122340774536133e-05, 3.765625) (6.56053009033203e-05, 3.767578125) (8.950492858886718e-05, 3.76953125) (0.00011026848602294922, 3.771484375) (0.0001309585723876953, 3.7734375) (0.00016070423889160155, 3.775390625) (0.0002064523010253906, 3.77734375) (0.000275044921875, 3.779296875) (0.0003628558654785156, 3.78125) (0.00045327124023437497, 3.783203125) (0.0005272753295898437, 3.78515625) (0.00055890966796875, 3.787109375) (0.0005299077758789062, 3.7890625) (0.0004385148010253906, 3.791015625) (0.00029025146484374997, 3.79296875) (0.00010652726745605468, 3.794921875) (-8.595547485351563e-05, 3.796875) (-0.00026647970581054686, 3.798828125) (-0.00041505322265624996, 3.80078125) (-0.0005220057373046874, 3.802734375) (-0.000585871337890625, 3.8046875) (-0.0006083462524414063, 3.806640625) (-0.00059644482421875, 3.80859375) (-0.00055766064453125, 3.810546875) (-0.000500755126953125, 3.8125) (-0.0004344199829101562, 3.814453125) (-0.0003669659729003906, 3.81640625) (-0.00030580114746093747, 3.818359375) (-0.00025284130859375, 3.8203125) (-0.0002070545196533203, 3.822265625) (-0.0001645715789794922, 3.82421875) (-0.00012151660156249999, 3.826171875) (-7.882772827148437e-05, 3.828125) (-4.003424835205078e-05, 3.830078125) (-9.971671104431152e-06, 3.83203125) (8.300079345703124e-06, 3.833984375) (1.567844295501709e-05, 3.8359375) (1.4842690467834473e-05, 3.837890625) (9.00270652770996e-06, 3.83984375) (6.819121837615967e-07, 3.841796875) (-8.834174156188964e-06, 3.84375) (-1.827654266357422e-05, 3.845703125) (-2.6154411315917968e-05, 3.84765625) (-3.1702260971069335e-05, 3.849609375) (-3.487004852294922e-05, 3.8515625) (-3.587525939941406e-05, 3.853515625) (-3.519911956787109e-05, 3.85546875) (-3.3280910491943355e-05, 3.857421875) (-3.0275068283081054e-05, 3.859375) (-2.688044738769531e-05, 3.861328125) (-2.4324359893798827e-05, 3.86328125) (-2.318149948120117e-05, 3.865234375) (-2.350409507751465e-05, 3.8671875) (-2.5179309844970702e-05, 3.869140625) (-2.7785106658935545e-05, 3.87109375) (-3.10729808807373e-05, 3.873046875) (-3.5130336761474607e-05, 3.875) (-3.960398483276367e-05, 3.876953125) (-4.375179290771484e-05, 3.87890625) (-4.715823745727539e-05, 3.880859375) (-4.9590126037597654e-05, 3.8828125) (-5.0970726013183594e-05, 3.884765625) (-5.149290084838867e-05, 3.88671875) (-5.12088737487793e-05, 3.888671875) (-4.9998840332031246e-05, 3.890625) (-4.796245574951172e-05, 3.892578125) (-4.536242294311523e-05, 3.89453125) (-4.240549850463867e-05, 3.896484375) (-3.931130218505859e-05, 3.8984375) (-3.62195816040039e-05, 3.900390625) (-3.315336608886719e-05, 3.90234375) (-3.020240783691406e-05, 3.904296875) (-2.7486896514892577e-05, 3.90625) (-2.506874084472656e-05, 3.908203125) (-2.2983001708984374e-05, 3.91015625) (-2.123555564880371e-05, 3.912109375) (-1.9801197052001953e-05, 3.9140625) (-1.8671039581298828e-05, 3.916015625) (-1.7847011566162108e-05, 3.91796875) (-1.73114013671875e-05, 3.919921875) (-1.7042783737182616e-05, 3.921875) (-1.7011150360107422e-05, 3.923828125) (-1.7176055908203126e-05, 3.92578125) (-1.7503187179565428e-05, 3.927734375) (-1.7954473495483397e-05, 3.9296875) (-1.848915672302246e-05, 3.931640625) (-1.906839370727539e-05, 3.93359375) (-1.96514892578125e-05, 3.935546875) (-2.020737838745117e-05, 3.9375) (-2.0714881896972656e-05, 3.939453125) (-2.1156555175781248e-05, 3.94140625) (-2.1523311614990234e-05, 3.943359375) (-2.1812282562255858e-05, 3.9453125) (-2.2021892547607422e-05, 3.947265625) (-2.2155683517456055e-05, 3.94921875) (-2.2220411300659178e-05, 3.951171875) (-2.2218519210815428e-05, 3.953125) (-2.2153072357177734e-05, 3.955078125) (-2.202877426147461e-05, 3.95703125) (-2.1847808837890626e-05, 3.958984375) (-2.1614322662353514e-05, 3.9609375) (-2.1333276748657225e-05, 3.962890625) (-2.100778579711914e-05, 3.96484375) (-2.0641782760620117e-05, 3.966796875) (-2.0238737106323243e-05, 3.96875) (-1.9800548553466797e-05, 3.970703125) (-1.932921028137207e-05, 3.97265625) (-1.882636260986328e-05, 3.974609375) (-1.8292537689208984e-05, 3.9765625) (-1.77285099029541e-05, 3.978515625) (-1.7135002136230467e-05, 3.98046875) (-1.6512435913085936e-05, 3.982421875) (-1.5862948417663572e-05, 3.984375) (-1.5189804077148438e-05, 3.986328125) (-1.4496455192565918e-05, 3.98828125) (-1.3787240028381347e-05, 3.990234375) (-1.3066728591918944e-05, 3.9921875) (-1.2339436531066894e-05, 3.994140625) (-1.161045742034912e-05, 3.99609375) (-1.0885072708129883e-05, 3.998046875) (-1.0167984962463378e-05, 4.0) (-9.463574409484862e-06, 4.001953125) (-8.775998115539551e-06, 4.00390625) (-8.10898208618164e-06, 4.005859375) (-7.466185092926025e-06, 4.0078125) (-6.851140022277832e-06, 4.009765625) (-6.266962051391601e-06, 4.01171875) (-5.716479778289795e-06, 4.013671875) (-5.202332496643066e-06, 4.015625) (-4.726884841918945e-06, 4.017578125) (-4.29228687286377e-06, 4.01953125) (-3.900505304336547e-06, 4.021484375) (-3.553234577178955e-06, 4.0234375) (-3.251956224441528e-06, 4.025390625) (-2.997997760772705e-06, 4.02734375) (-2.792484998703003e-06, 4.029296875) (-2.636346101760864e-06, 4.03125) (-2.5303351879119872e-06, 4.033203125) (-2.4749889373779296e-06, 4.03515625) (-2.4706242084503173e-06, 4.037109375) (-2.5173759460449216e-06, 4.0390625) (-2.615140914916992e-06, 4.041015625) (-2.763570785522461e-06, 4.04296875) (-2.9620938301086424e-06, 4.044921875) (-3.209853410720825e-06, 4.046875) (-3.505728006362915e-06, 4.048828125) (-3.84841251373291e-06, 4.05078125) (-4.236417770385742e-06, 4.052734375) (-4.668049335479736e-06, 4.0546875) (-5.141488075256348e-06, 4.056640625) (-5.654791831970215e-06, 4.05859375) (-6.205940246582031e-06, 4.060546875) (-6.793015480041503e-06, 4.0625) (-7.414194107055664e-06, 4.064453125) (-8.067708015441894e-06, 4.06640625) (-8.75189208984375e-06, 4.068359375) (-9.465173721313476e-06, 4.0703125) (-1.0206079483032227e-05, 4.072265625) (-1.0973293304443358e-05, 4.07421875) (-1.1765609741210937e-05, 4.076171875) (-1.2581866264343261e-05, 4.078125) (-1.3420944213867187e-05, 4.080078125) (-1.4281778335571288e-05, 4.08203125) (-1.5163328170776366e-05, 4.083984375) (-1.606459045410156e-05, 4.0859375) (-1.6984561920166016e-05, 4.087890625) (-1.7922203063964842e-05, 4.08984375) (-1.887643623352051e-05, 4.091796875) (-1.9846157073974608e-05, 4.09375) (-2.0830245971679686e-05, 4.095703125) (-2.1827564239501953e-05, 4.09765625) (-2.2836965560913084e-05, 4.099609375) (-2.385728073120117e-05, 4.1015625) (-2.488734436035156e-05, 4.103515625) (-2.5926008224487303e-05, 4.10546875) (-2.6972152709960937e-05, 4.107421875) (-2.802468681335449e-05, 4.109375) (-2.9082523345947264e-05, 4.111328125) (-3.0144567489624023e-05, 4.11328125) (-3.1209701538085936e-05, 4.115234375) (-3.2276798248291015e-05, 4.1171875) (-3.334471893310547e-05, 4.119140625) (-3.441229248046875e-05, 4.12109375) (-3.547829818725586e-05, 4.123046875) (-3.654141616821289e-05, 4.125) (-3.760024261474609e-05, 4.126953125) (-3.86532974243164e-05, 4.12890625) (-3.969899749755859e-05, 4.130859375) (-4.0735656738281245e-05, 4.1328125) (-4.176148223876953e-05, 4.134765625) (-4.2774536132812496e-05, 4.13671875) (-4.377276611328125e-05, 4.138671875) (-4.4754047393798825e-05, 4.140625) (-4.571619796752929e-05, 4.142578125) (-4.6657020568847655e-05, 4.14453125) (-4.757427978515625e-05, 4.146484375) (-4.846576690673828e-05, 4.1484375) (-4.932930755615234e-05, 4.150390625) (-5.0162845611572265e-05, 4.15234375) (-5.096438598632812e-05, 4.154296875) (-5.1732074737548824e-05, 4.15625) (-5.246416473388672e-05, 4.158203125) (-5.3159008026123044e-05, 4.16015625) (-5.381507873535156e-05, 4.162109375) (-5.443098449707031e-05, 4.1640625) (-5.5005485534667965e-05, 4.166015625) (-5.553750610351562e-05, 4.16796875) (-5.6026115417480466e-05, 4.169921875) (-5.6470573425292967e-05, 4.171875) (-5.687031936645508e-05, 4.173828125) (-5.722504425048828e-05, 4.17578125) (-5.753468322753906e-05, 4.177734375) (-5.779940032958984e-05, 4.1796875) (-5.8019596099853514e-05, 4.181640625) (-5.8195873260498046e-05, 4.18359375) (-5.832907485961914e-05, 4.185546875) (-5.842027282714843e-05, 4.1875) (-5.847077941894531e-05, 4.189453125) (-5.8482124328613275e-05, 4.19140625) (-5.845604705810546e-05, 4.193359375) (-5.839447021484375e-05, 4.1953125) (-5.829955291748047e-05, 4.197265625) (-5.817366790771484e-05, 4.19921875) (-5.801939010620117e-05, 4.201171875) (-5.783944702148437e-05, 4.203125) (-5.763666534423828e-05, 4.205078125) (-5.741391372680664e-05, 4.20703125) (-5.717411804199219e-05, 4.208984375) (-5.692019271850586e-05, 4.2109375) (-5.6654998779296874e-05, 4.212890625) (-5.638132095336914e-05, 4.21484375) (-5.610181427001953e-05, 4.216796875) (-5.581899642944336e-05, 4.21875) (-5.5535243988037107e-05, 4.220703125) (-5.5252792358398436e-05, 4.22265625) (-5.4973739624023435e-05, 4.224609375) (-5.470000457763672e-05, 4.2265625) (-5.4433288574218746e-05, 4.228515625) (-5.4175048828125e-05, 4.23046875) (-5.39264907836914e-05, 4.232421875) (-5.36885871887207e-05, 4.234375) (-5.346200561523437e-05, 4.236328125) (-5.324710845947265e-05, 4.23828125) (-5.304390716552734e-05, 4.240234375) (-5.285212707519531e-05, 4.2421875) (-5.267116928100586e-05, 4.244140625) (-5.250021362304687e-05, 4.24609375) (-5.233817291259765e-05, 4.248046875) (-5.218373107910156e-05, 4.25) (-5.203532409667968e-05, 4.251953125) (-5.1891166687011716e-05, 4.25390625) (-5.1749294281005856e-05, 4.255859375) (-5.160757446289062e-05, 4.2578125) (-5.1463706970214844e-05, 4.259765625) (-5.1315231323242183e-05, 4.26171875) (-5.115957641601562e-05, 4.263671875) (-5.0994064331054684e-05, 4.265625) (-5.08160285949707e-05, 4.267578125) (-5.062287139892578e-05, 4.26953125) (-5.041205596923828e-05, 4.271484375) (-5.0181190490722655e-05, 4.2734375) (-4.9928024291992185e-05, 4.275390625) (-4.965050506591797e-05, 4.27734375) (-4.934680938720703e-05, 4.279296875) (-4.901535034179687e-05, 4.28125) (-4.865481567382812e-05, 4.283203125) (-4.826407623291015e-05, 4.28515625) (-4.78422622680664e-05, 4.287109375) (-4.7388763427734374e-05, 4.2890625) (-4.690328979492187e-05, 4.291015625) (-4.6385864257812496e-05, 4.29296875) (-4.583685684204101e-05, 4.294921875) (-4.5256977081298826e-05, 4.296875) (-4.4647274017333985e-05, 4.298828125) (-4.400917053222656e-05, 4.30078125) (-4.3344432830810544e-05, 4.302734375) (-4.2655197143554686e-05, 4.3046875) (-4.1943901062011715e-05, 4.306640625) (-4.121322631835937e-05, 4.30859375) (-4.0466091156005855e-05, 4.310546875) (-3.970564270019531e-05, 4.3125) (-3.893524169921875e-05, 4.314453125) (-3.8158443450927735e-05, 4.31640625) (-3.737896347045898e-05, 4.318359375) (-3.6600631713867186e-05, 4.3203125) (-3.58273811340332e-05, 4.322265625) (-3.5063217163085935e-05, 4.32421875) (-3.431220245361328e-05, 4.326171875) (-3.357838058471679e-05, 4.328125) (-3.28657112121582e-05, 4.330078125) (-3.217798614501953e-05, 4.33203125) (-3.15187759399414e-05, 4.333984375) (-3.0891445159912106e-05, 4.3359375) (-3.0299112319946288e-05, 4.337890625) (-2.974460411071777e-05, 4.33984375) (-2.9230430603027342e-05, 4.341796875) (-2.8758756637573242e-05, 4.34375) (-2.8331384658813476e-05, 4.345703125) (-2.794980239868164e-05, 4.34765625) (-2.761517333984375e-05, 4.349609375) (-2.7328266143798826e-05, 4.3515625) (-2.7089439392089842e-05, 4.353515625) (-2.6898609161376952e-05, 4.35546875) (-2.6755237579345703e-05, 4.357421875) (-2.6658361434936523e-05, 4.359375) (-2.6606618881225583e-05, 4.361328125) (-2.6598190307617187e-05, 4.36328125) (-2.6630800247192382e-05, 4.365234375) (-2.6701753616333008e-05, 4.3671875) (-2.6807941436767576e-05, 4.369140625) (-2.6945947647094724e-05, 4.37109375) (-2.7112041473388672e-05, 4.373046875) (-2.730217742919922e-05, 4.375) (-2.7511997222900388e-05, 4.376953125) (-2.773685073852539e-05, 4.37890625) (-2.7971797943115232e-05, 4.380859375) (-2.821173095703125e-05, 4.3828125) (-2.8451377868652342e-05, 4.384765625) (-2.868527603149414e-05, 4.38671875) (-2.8907817840576172e-05, 4.388671875) (-2.9113332748413083e-05, 4.390625) (-2.929608154296875e-05, 4.392578125) (-2.9450431823730468e-05, 4.39453125) (-2.9570901870727536e-05, 4.396484375) (-2.9652074813842773e-05, 4.3984375) (-2.9688644409179685e-05, 4.400390625) (-2.9675498962402343e-05, 4.40234375) (-2.960771560668945e-05, 4.404296875) (-2.9480667114257813e-05, 4.40625) (-2.929006576538086e-05, 4.408203125) (-2.9031822204589843e-05, 4.41015625) (-2.8702110290527342e-05, 4.412109375) (-2.8297470092773438e-05, 4.4140625) (-2.781481170654297e-05, 4.416015625) (-2.7251508712768552e-05, 4.41796875) (-2.6605411529541015e-05, 4.419921875) (-2.587472915649414e-05, 4.421875) (-2.5058029174804685e-05, 4.423828125) (-2.4154411315917967e-05, 4.42578125) (-2.3163480758666992e-05, 4.427734375) (-2.2085397720336912e-05, 4.4296875) (-2.0920909881591796e-05, 4.431640625) (-1.9671155929565428e-05, 4.43359375) (-1.8337690353393555e-05, 4.435546875) (-1.6922609329223632e-05, 4.4375) (-1.542848205566406e-05, 4.439453125) (-1.3858388900756835e-05, 4.44140625) (-1.221597671508789e-05, 4.443359375) (-1.050519847869873e-05, 4.4453125) (-8.730302810668944e-06, 4.447265625) (-6.896053314208984e-06, 4.44921875) (-5.0076336860656736e-06, 4.451171875) (-3.0706028938293457e-06, 4.453125) (-1.091004490852356e-06, 4.455078125) (9.249712228775024e-07, 4.45703125) (2.9710731506347657e-06, 4.458984375) (5.040575981140136e-06, 4.4609375) (7.126406669616699e-06, 4.462890625) (9.221320152282715e-06, 4.46484375) (1.131775188446045e-05, 4.466796875) (1.340811538696289e-05, 4.46875) (1.5484901428222654e-05, 4.470703125) (1.7540199279785156e-05, 4.47265625) (1.956577491760254e-05, 4.474609375) (2.1553443908691407e-05, 4.4765625) (2.3495012283325193e-05, 4.478515625) (2.538231658935547e-05, 4.48046875) (2.7207393646240234e-05, 4.482421875) (2.896188735961914e-05, 4.484375) (3.063703155517578e-05, 4.486328125) (3.222434616088867e-05, 4.48828125) (3.3715576171875e-05, 4.490234375) (3.5102783203125e-05, 4.4921875) (3.637855529785156e-05, 4.494140625) (3.753573608398437e-05, 4.49609375) (3.856743240356445e-05, 4.498046875) (3.946791839599609e-05, 4.5) (4.023255157470703e-05, 4.501953125) (4.085734939575195e-05, 4.50390625) (4.1339469909667965e-05, 4.505859375) (4.1676063537597654e-05, 4.5078125) (4.186418151855469e-05, 4.509765625) (4.190181732177734e-05, 4.51171875) (4.178756332397461e-05, 4.513671875) (4.152081298828125e-05, 4.515625) (4.1102630615234376e-05, 4.517578125) (4.053495025634766e-05, 4.51953125) (3.982008743286133e-05, 4.521484375) (3.896328353881836e-05, 4.5234375) (3.79722900390625e-05, 4.525390625) (3.685505294799804e-05, 4.52734375) (3.5620967864990235e-05, 4.529296875) (3.427786254882812e-05, 4.53125) (3.283073806762695e-05, 4.533203125) (3.128645133972168e-05, 4.53515625) (2.9653154373168944e-05, 4.537109375) (2.7939506530761716e-05, 4.5390625) (2.6156295776367186e-05, 4.541015625) (2.4317028045654294e-05, 4.54296875) (2.2437427520751953e-05, 4.544921875) (2.0537977218627927e-05, 4.546875) (1.8643598556518553e-05, 4.548828125) (1.6777652740478516e-05, 4.55078125) (1.4963324546813964e-05, 4.552734375) (1.3220182418823242e-05, 4.5546875) (1.1562177658081054e-05, 4.556640625) (1.0005192756652831e-05, 4.55859375) (8.564846992492676e-06, 4.560546875) (7.257979393005371e-06, 4.5625) (6.10636043548584e-06, 4.564453125) (5.129193782806396e-06, 4.56640625) (4.341475963592529e-06, 4.568359375) (3.7583839893341064e-06, 4.5703125) (3.3925986289978027e-06, 4.572265625) (3.2414307594299314e-06, 4.57421875) (3.287121295928955e-06, 4.576171875) (3.4982228279113767e-06, 4.578125) (3.822929382324218e-06, 4.580078125) (4.214553356170654e-06, 4.58203125) (4.636967658996582e-06, 4.583984375) (5.042144775390624e-06, 4.5859375) (5.375088691711426e-06, 4.587890625) (5.575407028198242e-06, 4.58984375) (5.574089527130127e-06, 4.591796875) (5.30788516998291e-06, 4.59375) (4.737725257873535e-06, 4.595703125) (3.802678346633911e-06, 4.59765625) (2.4065136909484864e-06, 4.599609375) (5.120182037353515e-07, 4.6015625) (-1.8627187013626099e-06, 4.603515625) (-4.604741096496582e-06, 4.60546875) (-7.454945564270019e-06, 4.607421875) (-1.0157278060913085e-05, 4.609375) (-1.2510908126831054e-05, 4.611328125) (-1.4250375747680663e-05, 4.61328125) (-1.5058711051940918e-05, 4.615234375) (-1.4741514205932616e-05, 4.6171875) (-1.3188825607299804e-05, 4.619140625) (-1.052759838104248e-05, 4.62109375) (-7.266767501831055e-06, 4.623046875) (-3.8633873462677e-06, 4.625) (-6.795352101325988e-07, 4.626953125) (1.8038216829299925e-06, 4.62890625) (3.1289706230163573e-06, 4.630859375) (3.0184528827667236e-06, 4.6328125) (1.3695659637451172e-06, 4.634765625) (-1.5630928277969359e-06, 4.63671875) (-5.020224571228027e-06, 4.638671875) (-8.202008247375488e-06, 4.640625) (-1.0213502883911132e-05, 4.642578125) (-9.084558486938477e-06, 4.64453125) (-1.962911605834961e-06, 4.646484375) (1.3604862213134765e-05, 4.6484375) (3.877839660644531e-05, 4.650390625) (7.138370513916015e-05, 4.65234375) (0.00010619149780273436, 4.654296875) (0.0001386583251953125, 4.65625) (0.000167837890625, 4.658203125) (0.00019841836547851563, 4.66015625) (0.00023891152954101563, 4.662109375) (0.0002972553100585937, 4.6640625) (0.00037486383056640625, 4.666015625) (0.00046281030273437497, 4.66796875) (0.000544316162109375, 4.669921875) (0.0005971591796875, 4.671875) (0.0006010872192382812, 4.673828125) (0.0005452911376953124, 4.67578125) (0.00042931222534179687, 4.677734375) (0.00026503048706054687, 4.6796875) (7.309803771972656e-05, 4.681640625) (-0.00012304194641113282, 4.68359375) (-0.00029991076660156247, 4.685546875) (-0.00043989239501953124, 4.6875) (-0.0005335438842773438, 4.689453125) (-0.000578855224609375, 4.69140625) (-0.0005827906494140625, 4.693359375) (-0.00055498486328125, 4.6953125) (-0.00050356396484375, 4.697265625) (-0.00043761187744140623, 4.69921875) (-0.00036232543945312497, 4.701171875) (-0.00028320904541015624, 4.703125) (-0.00020979466247558594, 4.705078125) (-0.00014657348632812498, 4.70703125) (-9.610170745849609e-05, 4.708984375) (-5.805784606933593e-05, 4.7109375) (-2.5852640151977538e-05, 4.712890625) (3.206313610076904e-06, 4.71484375) (2.8909341812133787e-05, 4.716796875) (5.0126338958740234e-05, 4.71875) (6.293336105346679e-05, 4.720703125) (6.659925842285156e-05, 4.72265625) (6.322963333129882e-05, 4.724609375) (5.5622238159179685e-05, 4.7265625) (4.751148986816406e-05, 4.728515625) (4.125896453857422e-05, 4.73046875) (3.783905792236328e-05, 4.732421875) (3.7539634704589844e-05, 4.734375) (3.9886409759521484e-05, 4.736328125) (4.429910278320312e-05, 4.73828125) (5.020797729492187e-05, 4.740234375) (5.6723976135253905e-05, 4.7421875) (6.297645568847656e-05, 4.744140625) (6.814813232421875e-05, 4.74609375) (7.143685913085938e-05, 4.748046875) (7.259230041503906e-05, 4.75) (7.176036071777343e-05, 4.751953125) (6.92105484008789e-05, 4.75390625) (6.53979034423828e-05, 4.755859375) (6.079414367675781e-05, 4.7578125) (5.580695343017578e-05, 4.759765625) (5.089205932617187e-05, 4.76171875) (4.6499767303466793e-05, 4.763671875) (4.28675537109375e-05, 4.765625) (4.007845306396484e-05, 4.767578125) (3.812348175048828e-05, 4.76953125) (3.6880187988281245e-05, 4.771484375) (3.623640060424805e-05, 4.7734375) (3.609402847290039e-05, 4.775390625) (3.6318099975585936e-05, 4.77734375) (3.678163146972656e-05, 4.779296875) (3.738404083251953e-05, 4.78125) (3.804084014892578e-05, 4.783203125) (3.8691566467285154e-05, 4.78515625) (3.929706573486328e-05, 4.787109375) (3.9814002990722655e-05, 4.7890625) (4.020182037353515e-05, 4.791015625) (4.043866729736328e-05, 4.79296875) (4.0497653961181636e-05, 4.794921875) (4.035240936279297e-05, 4.796875) (3.999481964111328e-05, 4.798828125) (3.943267059326172e-05, 4.80078125) (3.870032501220703e-05, 4.802734375) (3.786151885986328e-05, 4.8046875) (3.699784851074218e-05, 4.806640625) (3.618415069580078e-05, 4.80859375) (3.548354339599609e-05, 4.810546875) (3.4950553894042966e-05, 4.8125) (3.462758255004883e-05, 4.814453125) (3.455344772338867e-05, 4.81640625) (3.4751152038574215e-05, 4.818359375) (3.5222869873046874e-05, 4.8203125) (3.59517936706543e-05, 4.822265625) (3.6903160095214845e-05, 4.82421875) (3.805250930786133e-05, 4.826171875) (3.9389652252197266e-05, 4.828125) (4.090459442138672e-05, 4.830078125) (4.258089828491211e-05, 4.83203125) (4.438896560668945e-05, 4.833984375) (4.628189086914062e-05, 4.8359375) (4.820460510253906e-05, 4.837890625) (5.011605834960937e-05, 4.83984375) (5.198352813720703e-05, 4.841796875) (5.377877426147461e-05, 4.84375) (5.548122024536132e-05, 4.845703125) (5.707022476196289e-05, 4.84765625) (5.853777313232422e-05, 4.849609375) (5.989380264282226e-05, 4.8515625) (6.116459655761719e-05, 4.853515625) (6.23863182067871e-05, 4.85546875) (6.358359146118164e-05, 4.857421875) (6.476703643798827e-05, 4.859375) (6.594056701660155e-05, 4.861328125) (6.710757446289062e-05, 4.86328125) (6.827497863769531e-05, 4.865234375) (6.945451354980468e-05, 4.8671875) (7.0656982421875e-05, 4.869140625) (7.188272094726562e-05, 4.87109375) (7.313021850585937e-05, 4.873046875) (7.439884948730468e-05, 4.875) (7.56872100830078e-05, 4.876953125) (7.699544525146484e-05, 4.87890625) (7.831732177734375e-05, 4.880859375) (7.963755798339843e-05, 4.8828125) (8.093334197998046e-05, 4.884765625) (8.217951965332031e-05, 4.88671875) (8.335770416259765e-05, 4.888671875) (8.445622253417969e-05, 4.890625) (8.546749877929688e-05, 4.892578125) (8.638567352294921e-05, 4.89453125) (8.720563507080077e-05, 4.896484375) (8.792350006103515e-05, 4.8984375) (8.853923034667968e-05, 4.900390625) (8.905748748779297e-05, 4.90234375) (8.948204040527343e-05, 4.904296875) (8.981507873535156e-05, 4.90625) (9.00580062866211e-05, 4.908203125) (9.021144866943359e-05, 4.91015625) (9.027845764160155e-05, 4.912109375) (9.026490783691406e-05, 4.9140625) (9.017821502685547e-05, 4.916015625) (9.002589416503906e-05, 4.91796875) (8.981439971923828e-05, 4.919921875) (8.954942321777343e-05, 4.921875) (8.923650360107421e-05, 4.923828125) (8.888124084472656e-05, 4.92578125) (8.848869323730469e-05, 4.927734375) (8.806307220458984e-05, 4.9296875) (8.760723114013671e-05, 4.931640625) (8.712322235107421e-05, 4.93359375) (8.661396789550781e-05, 4.935546875) (8.608308410644531e-05, 4.9375) (8.553443908691406e-05, 4.939453125) (8.497209167480468e-05, 4.94140625) (8.439961242675781e-05, 4.943359375) (8.382017517089844e-05, 4.9453125) (8.323703002929687e-05, 4.947265625) (8.265327453613281e-05, 4.94921875) (8.207127380371094e-05, 4.951171875) (8.149264526367187e-05, 4.953125) (8.091825103759765e-05, 4.955078125) (8.034822082519531e-05, 4.95703125) (7.978234100341797e-05, 4.958984375) (7.92200927734375e-05, 4.9609375) (7.866046905517577e-05, 4.962890625) (7.810210418701171e-05, 4.96484375) (7.75433349609375e-05, 4.966796875) (7.698222351074218e-05, 4.96875) (7.641673278808593e-05, 4.970703125) (7.584462738037108e-05, 4.97265625) (7.526343536376953e-05, 4.974609375) (7.467053222656249e-05, 4.9765625) (7.406312561035156e-05, 4.978515625) (7.343844604492187e-05, 4.98046875) (7.279376220703125e-05, 4.982421875) (7.212640380859375e-05, 4.984375) (7.143374633789062e-05, 4.986328125) (7.071337127685546e-05, 4.98828125) (6.99630126953125e-05, 4.990234375) (6.918067932128907e-05, 4.9921875) (6.836465454101562e-05, 4.994140625) (6.751332092285156e-05, 4.99609375) (6.662514495849609e-05, 4.998046875) (6.569863891601563e-05, 5.0) (6.473250579833985e-05, 5.001953125) (6.372563934326171e-05, 5.00390625) (6.267713165283202e-05, 5.005859375) (6.158630752563476e-05, 5.0078125) (6.045268249511719e-05, 5.009765625) (5.9276096343994136e-05, 5.01171875) (5.805684661865234e-05, 5.013671875) (5.679571533203125e-05, 5.015625) (5.549390411376953e-05, 5.017578125) (5.415301132202148e-05, 5.01953125) (5.2774948120117186e-05, 5.021484375) (5.136191177368164e-05, 5.0234375) (4.991645050048828e-05, 5.025390625) (4.8441436767578125e-05, 5.02734375) (4.693997955322265e-05, 5.029296875) (4.5415409088134764e-05, 5.03125) (4.387125396728516e-05, 5.033203125) (4.2311244964599605e-05, 5.03515625) (4.0739307403564454e-05, 5.037109375) (3.915956878662109e-05, 5.0390625) (3.7576271057128905e-05, 5.041015625) (3.5993686676025387e-05, 5.04296875) (3.441604995727539e-05, 5.044921875) (3.284754180908203e-05, 5.046875) (3.1292266845703125e-05, 5.048828125) (2.9754226684570312e-05, 5.05078125) (2.823728561401367e-05, 5.052734375) (2.674516677856445e-05, 5.0546875) (2.5281415939331054e-05, 5.056640625) (2.3849456787109373e-05, 5.05859375) (2.2452619552612302e-05, 5.060546875) (2.1094120025634764e-05, 5.0625) (1.9777023315429686e-05, 5.064453125) (1.8504194259643552e-05, 5.06640625) (1.7278263092041015e-05, 5.068359375) (1.610160446166992e-05, 5.0703125) (1.4976318359374999e-05, 5.072265625) (1.390421962738037e-05, 5.07421875) (1.28867769241333e-05, 5.076171875) (1.1925099372863769e-05, 5.078125) (1.1019952774047852e-05, 5.080078125) (1.0171781539916991e-05, 5.08203125) (9.380743026733397e-06, 5.083984375) (8.64670181274414e-06, 5.0859375) (7.96922492980957e-06, 5.087890625) (7.347546577453613e-06, 5.08984375) (6.7805881500244135e-06, 5.091796875) (6.266972541809081e-06, 5.09375) (5.805047035217285e-06, 5.095703125) (5.392894268035888e-06, 5.09765625) (5.028341770172119e-06, 5.099609375) (4.708985805511474e-06, 5.1015625) (4.4322414398193356e-06, 5.103515625) (4.195412635803223e-06, 5.10546875) (3.995747089385986e-06, 5.107421875) (3.8304643630981444e-06, 5.109375) (3.69675874710083e-06, 5.111328125) (3.5917983055114742e-06, 5.11328125) (3.512733221054077e-06, 5.115234375) (3.4567129611968994e-06, 5.1171875) (3.4208905696868896e-06, 5.119140625) (3.40241003036499e-06, 5.12109375) (3.3983917236328125e-06, 5.123046875) (3.4059276580810547e-06, 5.125) (3.4221119880676268e-06, 5.126953125) (3.4440863132476805e-06, 5.12890625) (3.469072341918945e-06, 5.130859375) (3.494385242462158e-06, 5.1328125) (3.517434597015381e-06, 5.134765625) (3.5357236862182614e-06, 5.13671875) (3.5468673706054688e-06, 5.138671875) (3.5486168861389158e-06, 5.140625) (3.5388677120208737e-06, 5.142578125) (3.5156505107879637e-06, 5.14453125) (3.4771225452423095e-06, 5.146484375) (3.421567440032959e-06, 5.1484375) (3.347424507141113e-06, 5.150390625) (3.2533235549926755e-06, 5.15234375) (3.138106346130371e-06, 5.154296875) (3.000810146331787e-06, 5.15625) (2.840649366378784e-06, 5.158203125) (2.656987428665161e-06, 5.16015625) (2.449324369430542e-06, 5.162109375) (2.217288017272949e-06, 5.1640625) (1.960601806640625e-06, 5.166015625) (1.679035186767578e-06, 5.16796875) (1.3723644018173217e-06, 5.169921875) (1.040352463722229e-06, 5.171875) (6.827545762062072e-07, 5.173828125) (2.9934537410736084e-07, 5.17578125) (-1.1006765812635421e-07, 5.177734375) (-5.456511378288268e-07, 5.1796875) (-1.007543683052063e-06, 5.181640625) (-1.4958455562591553e-06, 5.18359375) (-2.010604381561279e-06, 5.185546875) (-2.551788806915283e-06, 5.1875) (-3.1192882061004638e-06, 5.189453125) (-3.71293830871582e-06, 5.19140625) (-4.3325324058532715e-06, 5.193359375) (-4.97782278060913e-06, 5.1953125) (-5.6485042572021485e-06, 5.197265625) (-6.344193935394287e-06, 5.19921875) (-7.06442642211914e-06, 5.201171875) (-7.808678627014159e-06, 5.203125) (-8.576380729675292e-06, 5.205078125) (-9.366923332214355e-06, 5.20703125) (-1.0179661750793457e-05, 5.208984375) (-1.1013906478881835e-05, 5.2109375) (-1.1868954658508301e-05, 5.212890625) (-1.2744129180908202e-05, 5.21484375) (-1.3638790130615233e-05, 5.216796875) (-1.4552331924438477e-05, 5.21875) (-1.5484169006347657e-05, 5.220703125) (-1.643369102478027e-05, 5.22265625) (-1.7400245666503907e-05, 5.224609375) (-1.838312530517578e-05, 5.2265625) (-1.9381544113159178e-05, 5.228515625) (-2.0394592285156248e-05, 5.23046875) (-2.1421216964721678e-05, 5.232421875) (-2.2460205078125e-05, 5.234375) (-2.3510150909423826e-05, 5.236328125) (-2.4569498062133787e-05, 5.23828125) (-2.5636539459228515e-05, 5.240234375) (-2.6709442138671874e-05, 5.2421875) (-2.7786233901977537e-05, 5.244140625) (-2.8864831924438474e-05, 5.24609375) (-2.994301414489746e-05, 5.248046875) (-3.1018463134765625e-05, 5.25) (-3.208878707885742e-05, 5.251953125) (-3.315151214599609e-05, 5.25390625) (-3.420411682128906e-05, 5.255859375) (-3.52440185546875e-05, 5.2578125) (-3.626861190795898e-05, 5.259765625) (-3.727527618408203e-05, 5.26171875) (-3.826141738891602e-05, 5.263671875) (-3.922443389892578e-05, 5.265625) (-4.0161727905273434e-05, 5.267578125) (-4.107072448730469e-05, 5.26953125) (-4.194878005981445e-05, 5.271484375) (-4.2793258666992185e-05, 5.2734375) (-4.3601470947265626e-05, 5.275390625) (-4.4370632171630857e-05, 5.27734375) (-4.509790420532226e-05, 5.279296875) (-4.57803955078125e-05, 5.28125) (-4.64151382446289e-05, 5.283203125) (-4.699911880493164e-05, 5.28515625) (-4.752935791015625e-05, 5.287109375) (-4.8002899169921875e-05, 5.2890625) (-4.841688919067383e-05, 5.291015625) (-4.876865768432617e-05, 5.29296875) (-4.905562973022461e-05, 5.294921875) (-4.927543640136718e-05, 5.296875) (-4.9425964355468746e-05, 5.298828125) (-4.950536727905273e-05, 5.30078125) (-4.951207733154297e-05, 5.302734375) (-4.9444789886474604e-05, 5.3046875) (-4.9302459716796874e-05, 5.306640625) (-4.9084281921386714e-05, 5.30859375) (-4.878983306884765e-05, 5.310546875) (-4.84190673828125e-05, 5.3125) (-4.797229766845703e-05, 5.314453125) (-4.745018768310547e-05, 5.31640625) (-4.685372161865234e-05, 5.318359375) (-4.6184196472167966e-05, 5.3203125) (-4.5443264007568355e-05, 5.322265625) (-4.4632865905761714e-05, 5.32421875) (-4.375523376464844e-05, 5.326171875) (-4.2812877655029296e-05, 5.328125) (-4.180854797363281e-05, 5.330078125) (-4.074518966674804e-05, 5.33203125) (-3.9626144409179686e-05, 5.333984375) (-3.8455070495605464e-05, 5.3359375) (-3.723600387573242e-05, 5.337890625) (-3.597343444824219e-05, 5.33984375) (-3.4672183990478516e-05, 5.341796875) (-3.333739852905273e-05, 5.34375) (-3.1974735260009767e-05, 5.345703125) (-3.05903263092041e-05, 5.34765625) (-2.919063949584961e-05, 5.349609375) (-2.7782501220703125e-05, 5.3515625) (-2.63729190826416e-05, 5.353515625) (-2.4968997955322263e-05, 5.35546875) (-2.3578245162963868e-05, 5.357421875) (-2.220846366882324e-05, 5.359375) (-2.086743927001953e-05, 5.361328125) (-1.956292724609375e-05, 5.36328125) (-1.8302757263183592e-05, 5.365234375) (-1.7094772338867187e-05, 5.3671875) (-1.5947149276733398e-05, 5.369140625) (-1.486843204498291e-05, 5.37109375) (-1.3866813659667968e-05, 5.373046875) (-1.2950075149536131e-05, 5.375) (-1.2125732421874999e-05, 5.376953125) (-1.1400869369506835e-05, 5.37890625) (-1.0782134056091309e-05, 5.380859375) (-1.0275707244873047e-05, 5.3828125) (-9.886636734008789e-06, 5.384765625) (-9.61880874633789e-06, 5.38671875) (-9.47559356689453e-06, 5.388671875) (-9.459682464599609e-06, 5.390625) (-9.573701858520507e-06, 5.392578125) (-9.820245742797851e-06, 5.39453125) (-1.0201108932495117e-05, 5.396484375) (-1.0717444419860839e-05, 5.3984375) (-1.136929702758789e-05, 5.400390625) (-1.2155256271362304e-05, 5.40234375) (-1.3072900772094726e-05, 5.404296875) (-1.4118947982788085e-05, 5.40625) (-1.5287517547607423e-05, 5.408203125) (-1.6570281982421875e-05, 5.41015625) (-1.7958477020263672e-05, 5.412109375) (-1.9442060470581055e-05, 5.4140625) (-2.101278305053711e-05, 5.416015625) (-2.266481590270996e-05, 5.41796875) (-2.439027976989746e-05, 5.419921875) (-2.6179977416992186e-05, 5.421875) (-2.802310562133789e-05, 5.423828125) (-2.9906600952148438e-05, 5.42578125) (-3.181482315063476e-05, 5.427734375) (-3.372954559326172e-05, 5.4296875) (-3.5628368377685545e-05, 5.431640625) (-3.7484672546386714e-05, 5.43359375) (-3.927307510375976e-05, 5.435546875) (-4.096841430664062e-05, 5.4375) (-4.2549495697021484e-05, 5.439453125) (-4.400004959106445e-05, 5.44140625) (-4.5302551269531245e-05, 5.443359375) (-4.644142150878906e-05, 5.4453125) (-4.739794540405273e-05, 5.447265625) (-4.814958953857422e-05, 5.44921875) (-4.867781829833984e-05, 5.451171875) (-4.8967403411865234e-05, 5.453125) (-4.900729370117187e-05, 5.455078125) (-4.879185485839843e-05, 5.45703125) (-4.832926940917968e-05, 5.458984375) (-4.764133834838867e-05, 5.4609375) (-4.676425170898437e-05, 5.462890625) (-4.5752059936523435e-05, 5.46484375) (-4.4655216217041015e-05, 5.466796875) (-4.352136611938476e-05, 5.46875) (-4.2406940460205074e-05, 5.470703125) (-4.137401962280273e-05, 5.47265625) (-4.0488815307617185e-05, 5.474609375) (-3.981802368164062e-05, 5.4765625) (-3.9423419952392575e-05, 5.478515625) (-3.93475341796875e-05, 5.48046875) (-3.96530647277832e-05, 5.482421875) (-4.042266464233398e-05, 5.484375) (-4.166876602172851e-05, 5.486328125) (-4.334735870361328e-05, 5.48828125) (-4.533258819580078e-05, 5.490234375) (-4.738947677612305e-05, 5.4921875) (-4.930582046508789e-05, 5.494140625) (-5.0906803131103516e-05, 5.49609375) (-5.193197631835937e-05, 5.498046875) (-5.208557891845703e-05, 5.5) (-5.1198295593261714e-05, 5.501953125) (-4.916444015502929e-05, 5.50390625) (-4.608085250854492e-05, 5.505859375) (-4.234430313110351e-05, 5.5078125) (-3.82383804321289e-05, 5.509765625) (-3.400143051147461e-05, 5.51171875) (-3.0072311401367186e-05, 5.513671875) (-2.6790426254272458e-05, 5.515625) (-2.431036949157715e-05, 5.517578125) (-2.288059043884277e-05, 5.51953125) (-2.2448049545288085e-05, 5.521484375) (-2.2483266830444335e-05, 5.5234375) (-2.2708723068237304e-05, 5.525390625) (-2.1753345489501953e-05, 5.52734375) (-1.6932283401489257e-05, 5.529296875) (-6.28058385848999e-06, 5.53125) (1.2051505088806151e-05, 5.533203125) (3.6835662841796874e-05, 5.53515625) (6.310126495361328e-05, 5.537109375) (8.752185058593749e-05, 5.5390625) (0.00010785958862304687, 5.541015625) (0.0001275298614501953, 5.54296875) (0.00015640296936035155, 5.544921875) (0.0002014930419921875, 5.546875) (0.00026763818359375, 5.548828125) (0.0003515758361816406, 5.55078125) (0.00043837371826171875, 5.552734375) (0.0005111372985839843, 5.5546875) (0.0005510070190429688, 5.556640625) (0.0005420797119140624, 5.55859375) (0.0004795683898925781, 5.560546875) (0.0003658336181640625, 5.5625) (0.00021004443359374999, 5.564453125) (2.9519248962402343e-05, 5.56640625) (-0.00015736822509765624, 5.568359375) (-0.00033201113891601563, 5.5703125) (-0.00047510372924804687, 5.572265625) (-0.0005748654785156249, 5.57421875) (-0.0006256256103515625, 5.576171875) (-0.0006287960815429687, 5.578125) (-0.0005950699462890625, 5.580078125) (-0.0005355983886718749, 5.58203125) (-0.00046287481689453124, 5.583984375) (-0.00038766931152343746, 5.5859375) (-0.00031463815307617186, 5.587890625) (-0.000248230712890625, 5.58984375) (-0.00018877328491210936, 5.591796875) (-0.00013399249267578124, 5.59375) (-8.468232727050781e-05, 5.595703125) (-4.0785392761230464e-05, 5.59765625) (-4.273972511291504e-06, 5.599609375) (2.0918439865112303e-05, 5.6015625) (3.4341064453124995e-05, 5.603515625) (3.709625244140625e-05, 5.60546875) (3.172807502746582e-05, 5.607421875) (2.2462242126464843e-05, 5.609375) (1.2326556205749512e-05, 5.611328125) (3.273351192474365e-06, 5.61328125) (-3.143661022186279e-06, 5.615234375) (-6.213442802429199e-06, 5.6171875) (-5.897303104400634e-06, 5.619140625) (-2.6135411262512206e-06, 5.62109375) (2.7737064361572265e-06, 5.623046875) (9.2111759185791e-06, 5.625) (1.569087219238281e-05, 5.626953125) (2.1371585845947264e-05, 5.62890625) (2.5525857925415036e-05, 5.630859375) (2.7584491729736328e-05, 5.6328125) (2.7456390380859372e-05, 5.634765625) (2.5396295547485352e-05, 5.63671875) (2.1823108673095704e-05, 5.638671875) (1.7307678222656248e-05, 5.640625) (1.237669563293457e-05, 5.642578125) (7.458832740783691e-06, 5.64453125) (2.970828056335449e-06, 5.646484375) (-7.389062643051147e-07, 5.6484375) (-3.5179903507232666e-06, 5.650390625) (-5.343095302581787e-06, 5.65234375) (-6.262532711029053e-06, 5.654296875) (-6.400664329528809e-06, 5.65625) (-5.862242698669433e-06, 5.658203125) (-4.735836982727051e-06, 5.66015625) (-3.1419730186462403e-06, 5.662109375) (-1.199943423271179e-06, 5.6640625) (9.886394739151e-07, 5.666015625) (3.331916809082031e-06, 5.66796875) (5.749058723449707e-06, 5.669921875) (8.160831451416016e-06, 5.671875) (1.047330093383789e-05, 5.673828125) (1.2591545104980468e-05, 5.67578125) (1.4446121215820312e-05, 5.677734375) (1.5991125106811524e-05, 5.6796875) (1.7204078674316407e-05, 5.681640625) (1.8080589294433593e-05, 5.68359375) (1.8622209548950195e-05, 5.685546875) (1.884366989135742e-05, 5.6875) (1.8772762298583983e-05, 5.689453125) (1.844654083251953e-05, 5.69140625) (1.790635108947754e-05, 5.693359375) (1.7192100524902344e-05, 5.6953125) (1.6342342376708985e-05, 5.697265625) (1.5394643783569337e-05, 5.69921875) (1.439004611968994e-05, 5.701171875) (1.33712739944458e-05, 5.703125) (1.238101577758789e-05, 5.705078125) (1.1459839820861816e-05, 5.70703125) (1.0637468338012694e-05, 5.708984375) (9.93463897705078e-06, 5.7109375) (9.365172386169434e-06, 5.712890625) (8.936445236206055e-06, 5.71484375) (8.652578353881836e-06, 5.716796875) (8.513582229614257e-06, 5.71875) (8.514527320861817e-06, 5.720703125) (8.647268295288086e-06, 5.72265625) (8.90499496459961e-06, 5.724609375) (9.282272338867187e-06, 5.7265625) (9.774453163146973e-06, 5.728515625) (1.0377609252929688e-05, 5.73046875) (1.1085454940795898e-05, 5.732421875) (1.1890711784362792e-05, 5.734375) (1.2786084175109863e-05, 5.736328125) (1.3763833045959471e-05, 5.73828125) (1.4817190170288085e-05, 5.740234375) (1.5939918518066407e-05, 5.7421875) (1.7125513076782225e-05, 5.744140625) (1.8367631912231443e-05, 5.74609375) (1.9660362243652343e-05, 5.748046875) (2.099768829345703e-05, 5.75) (2.237390899658203e-05, 5.751953125) (2.3783544540405273e-05, 5.75390625) (2.5219791412353515e-05, 5.755859375) (2.6675003051757812e-05, 5.7578125) (2.8141262054443358e-05, 5.759765625) (2.9610153198242188e-05, 5.76171875) (3.1073410034179684e-05, 5.763671875) (3.2523067474365234e-05, 5.765625) (3.395103073120117e-05, 5.767578125) (3.534933471679687e-05, 5.76953125) (3.67108154296875e-05, 5.771484375) (3.802892303466797e-05, 5.7734375) (3.9297756195068355e-05, 5.775390625) (4.051216888427734e-05, 5.77734375) (4.166743087768555e-05, 5.779296875) (4.275936889648437e-05, 5.78125) (4.378458404541015e-05, 5.783203125) (4.4740242004394526e-05, 5.78515625) (4.562403106689453e-05, 5.787109375) (4.643418884277343e-05, 5.7890625) (4.716938018798828e-05, 5.791015625) (4.782878112792968e-05, 5.79296875) (4.841211700439453e-05, 5.794921875) (4.891948699951172e-05, 5.796875) (4.935132598876953e-05, 5.798828125) (4.970848846435546e-05, 5.80078125) (4.9992088317871095e-05, 5.802734375) (5.02036018371582e-05, 5.8046875) (5.0344810485839843e-05, 5.806640625) (5.041768646240234e-05, 5.80859375) (5.042428970336914e-05, 5.810546875) (5.036684036254883e-05, 5.8125) (5.024763488769531e-05, 5.814453125) (5.006903839111328e-05, 5.81640625) (4.983355712890625e-05, 5.818359375) (4.954373168945312e-05, 5.8203125) (4.9202060699462886e-05, 5.822265625) (4.8811080932617186e-05, 5.82421875) (4.8373291015624995e-05, 5.826171875) (4.7891174316406246e-05, 5.828125) (4.73671646118164e-05, 5.830078125) (4.680358505249023e-05, 5.83203125) (4.620244216918945e-05, 5.833984375) (4.556545257568359e-05, 5.8359375) (4.489405059814453e-05, 5.837890625) (4.418940353393554e-05, 5.83984375) (4.345243835449219e-05, 5.841796875) (4.268381118774414e-05, 5.84375) (4.18838996887207e-05, 5.845703125) (4.105284881591797e-05, 5.84765625) (4.019065856933593e-05, 5.849609375) (3.92972526550293e-05, 5.8515625) (3.837245178222656e-05, 5.853515625) (3.7416000366210936e-05, 5.85546875) (3.642753982543945e-05, 5.857421875) (3.540664291381836e-05, 5.859375) (3.435289001464844e-05, 5.861328125) (3.3265888214111325e-05, 5.86328125) (3.214533233642578e-05, 5.865234375) (3.099100303649902e-05, 5.8671875) (2.9802766799926757e-05, 5.869140625) (2.858065414428711e-05, 5.87109375) (2.732490539550781e-05, 5.873046875) (2.6036001205444333e-05, 5.875) (2.471462059020996e-05, 5.876953125) (2.3361652374267578e-05, 5.87890625) (2.19781436920166e-05, 5.880859375) (2.0565292358398437e-05, 5.8828125) (1.9124465942382813e-05, 5.884765625) (1.7657218933105468e-05, 5.88671875) (1.6165258407592774e-05, 5.888671875) (1.4650444030761717e-05, 5.890625) (1.3114803314208984e-05, 5.892578125) (1.1560556411743163e-05, 5.89453125) (9.99018669128418e-06, 5.896484375) (8.406445503234864e-06, 5.8984375) (6.812339305877685e-06, 5.900390625) (5.211097717285156e-06, 5.90234375) (3.606157302856445e-06, 5.904296875) (2.00114369392395e-06, 5.90625) (3.998754024505615e-07, 5.908203125) (-1.1936601400375366e-06, 5.91015625) (-2.7753574848175046e-06, 5.912109375) (-4.341024398803711e-06, 5.9140625) (-5.886396408081054e-06, 5.916015625) (-7.407137870788574e-06, 5.91796875) (-8.898830413818359e-06, 5.919921875) (-1.0357000350952148e-05, 5.921875) (-1.1777180671691894e-05, 5.923828125) (-1.3154956817626953e-05, 5.92578125) (-1.448602294921875e-05, 5.927734375) (-1.5766202926635742e-05, 5.9296875) (-1.6991487503051755e-05, 5.931640625) (-1.8158058166503906e-05, 5.93359375) (-1.926237106323242e-05, 5.935546875) (-2.0301158905029296e-05, 5.9375) (-2.1271434783935546e-05, 5.939453125) (-2.2170475006103515e-05, 5.94140625) (-2.2995786666870116e-05, 5.943359375) (-2.3745109558105467e-05, 5.9453125) (-2.4416446685791015e-05, 5.947265625) (-2.500807189941406e-05, 5.94921875) (-2.551853561401367e-05, 5.951171875) (-2.594669532775879e-05, 5.953125) (-2.6291696548461914e-05, 5.955078125) (-2.6553026199340818e-05, 5.95703125) (-2.6730566024780272e-05, 5.958984375) (-2.682458686828613e-05, 5.9609375) (-2.6835760116577147e-05, 5.962890625) (-2.676512908935547e-05, 5.96484375) (-2.6614086151123046e-05, 5.966796875) (-2.6384349822998047e-05, 5.96875) (-2.6077991485595703e-05, 5.970703125) (-2.5697420120239258e-05, 5.97265625) (-2.5245380401611327e-05, 5.974609375) (-2.472492980957031e-05, 5.9765625) (-2.413942337036133e-05, 5.978515625) (-2.349253463745117e-05, 5.98046875) (-2.2788267135620115e-05, 5.982421875) (-2.203092384338379e-05, 5.984375) (-2.1225086212158202e-05, 5.986328125) (-2.0375528335571287e-05, 5.98828125) (-1.9487184524536132e-05, 5.990234375) (-1.856510353088379e-05, 5.9921875) (-1.761441230773926e-05, 5.994140625) (-1.664029312133789e-05, 5.99609375) (-1.5647932052612304e-05, 5.998046875) (-1.4642496109008788e-05, 6.0) (-1.3629122734069823e-05, 6.001953125) (-1.2612910270690918e-05, 6.00390625) (-1.1598951339721679e-05, 6.005859375) (-1.0592310905456543e-05, 6.0078125) (-9.597989082336426e-06, 6.009765625) (-8.620899200439452e-06, 6.01171875) (-7.665792465209961e-06, 6.013671875) (-6.737237930297851e-06, 6.015625) (-5.839603424072265e-06, 6.017578125) (-4.977012634277344e-06, 6.01953125) (-4.153294563293457e-06, 6.021484375) (-3.371960401535034e-06, 6.0234375) (-2.636169672012329e-06, 6.025390625) (-1.9487323760986325e-06, 6.02734375) (-1.3121709823608397e-06, 6.029296875) (-7.287009358406066e-07, 6.03125) (-2.002207338809967e-07, 6.033203125) (2.7169829607009885e-07, 6.03515625) (6.858657002449035e-07, 6.037109375) (1.0414745807647704e-06, 6.0390625) (1.338081121444702e-06, 6.041015625) (1.5756396055221558e-06, 6.04296875) (1.7545084953308105e-06, 6.044921875) (1.8754312992095947e-06, 6.046875) (1.9395720958709715e-06, 6.048828125) (1.9484713077545165e-06, 6.05078125) (1.903948426246643e-06, 6.052734375) (1.8080933094024657e-06, 6.0546875) (1.6632229089736937e-06, 6.056640625) (1.4718430042266844e-06, 6.05859375) (1.2366973161697388e-06, 6.060546875) (9.607536792755127e-07, 6.0625) (6.47137701511383e-07, 6.064453125) (2.991422712802887e-07, 6.06640625) (-7.975322753190995e-08, 6.068359375) (-4.859266281127929e-07, 6.0703125) (-9.155904054641724e-07, 6.072265625) (-1.3648363351821898e-06, 6.07421875) (-1.829800486564636e-06, 6.076171875) (-2.306702613830566e-06, 6.078125) (-2.7918713092803953e-06, 6.080078125) (-3.281803607940674e-06, 6.08203125) (-3.7731828689575193e-06, 6.083984375) (-4.262894630432129e-06, 6.0859375) (-4.748149871826172e-06, 6.087890625) (-5.226477146148681e-06, 6.08984375) (-5.695580005645752e-06, 6.091796875) (-6.153363704681396e-06, 6.09375) (-6.597876071929931e-06, 6.095703125) (-7.027297019958496e-06, 6.09765625) (-7.440114974975586e-06, 6.099609375) (-7.835115432739258e-06, 6.1015625) (-8.211305618286132e-06, 6.103515625) (-8.567971229553222e-06, 6.10546875) (-8.90464401245117e-06, 6.107421875) (-9.2210693359375e-06, 6.109375) (-9.517404556274413e-06, 6.111328125) (-9.7941837310791e-06, 6.11328125) (-1.0052108764648437e-05, 6.115234375) (-1.0292077064514159e-05, 6.1171875) (-1.0515083312988282e-05, 6.119140625) (-1.0722169876098633e-05, 6.12109375) (-1.0914630889892578e-05, 6.123046875) (-1.1093996047973632e-05, 6.125) (-1.1261869430541992e-05, 6.126953125) (-1.1419939994812011e-05, 6.12890625) (-1.1570043563842772e-05, 6.130859375) (-1.1714090347290039e-05, 6.1328125) (-1.1854177474975585e-05, 6.134765625) (-1.1992523193359374e-05, 6.13671875) (-1.2131125450134277e-05, 6.138671875) (-1.2271677017211913e-05, 6.140625) (-1.241561985015869e-05, 6.142578125) (-1.2564067840576171e-05, 6.14453125) (-1.2717682838439941e-05, 6.146484375) (-1.287666893005371e-05, 6.1484375) (-1.3040479660034179e-05, 6.150390625) (-1.3207771301269531e-05, 6.15234375) (-1.337705135345459e-05, 6.154296875) (-1.3546721458435057e-05, 6.15625) (-1.3715003967285156e-05, 6.158203125) (-1.3880048751831054e-05, 6.16015625) (-1.403980541229248e-05, 6.162109375) (-1.4191953659057617e-05, 6.1640625) (-1.4334619522094726e-05, 6.166015625) (-1.4466363906860351e-05, 6.16796875) (-1.4585243225097655e-05, 6.169921875) (-1.4688823699951172e-05, 6.171875) (-1.4773640632629394e-05, 6.173828125) (-1.4834959030151367e-05, 6.17578125) (-1.4868022918701171e-05, 6.177734375) (-1.4868131637573242e-05, 6.1796875) (-1.4829826354980467e-05, 6.181640625) (-1.4747257232666014e-05, 6.18359375) (-1.4614099502563476e-05, 6.185546875) (-1.442319869995117e-05, 6.1875) (-1.4169221878051757e-05, 6.189453125) (-1.3848893165588378e-05, 6.19140625) (-1.3457822799682617e-05, 6.193359375) (-1.2991218566894531e-05, 6.1953125) (-1.2442471504211426e-05, 6.197265625) (-1.1802274703979492e-05, 6.19921875) (-1.1064708709716797e-05, 6.201171875) (-1.022784423828125e-05, 6.203125) (-9.290665626525878e-06, 6.205078125) (-8.25441837310791e-06, 6.20703125) (-7.122113227844238e-06, 6.208984375) (-5.897256851196289e-06, 6.2109375) (-4.590539932250977e-06, 6.212890625) (-3.219398498535156e-06, 6.21484375) (-1.800093412399292e-06, 6.216796875) (-3.485853672027588e-07, 6.21875) (1.1264278888702392e-06, 6.220703125) (2.625836372375488e-06, 6.22265625) (4.1479864120483395e-06, 6.224609375) (5.690159797668457e-06, 6.2265625) (7.250363349914551e-06, 6.228515625) (8.823444366455077e-06, 6.23046875) (1.0413029670715332e-05, 6.232421875) (1.2033263206481932e-05, 6.234375) (1.3692750930786132e-05, 6.236328125) (1.5396962165832518e-05, 6.23828125) (1.7154159545898437e-05, 6.240234375) (1.8970808029174803e-05, 6.2421875) (2.0868034362792967e-05, 6.244140625) (2.288239860534668e-05, 6.24609375) (2.5041465759277344e-05, 6.248046875) (2.7365070343017577e-05, 6.25) (2.9857749938964843e-05, 6.251953125) (3.250243377685547e-05, 6.25390625) (3.52820930480957e-05, 6.255859375) (3.817866516113281e-05, 6.2578125) (4.116175079345703e-05, 6.259765625) (4.419631958007812e-05, 6.26171875) (4.7231353759765624e-05, 6.263671875) (5.0196746826171873e-05, 6.265625) (5.303717041015625e-05, 6.267578125) (5.571031188964843e-05, 6.26953125) (5.817070007324218e-05, 6.271484375) (6.03784065246582e-05, 6.2734375) (6.227584838867188e-05, 6.275390625) (6.378408432006835e-05, 6.27734375) (6.48414306640625e-05, 6.279296875) (6.540251159667969e-05, 6.28125) (6.543775939941406e-05, 6.283203125) (6.494313812255859e-05, 6.28515625) (6.391688537597656e-05, 6.287109375) (6.23582992553711e-05, 6.2890625) (6.029156494140625e-05, 6.291015625) (5.775761413574218e-05, 6.29296875) (5.4816654205322264e-05, 6.294921875) (5.155243682861328e-05, 6.296875) (4.803033828735351e-05, 6.298828125) (4.4296440124511717e-05, 6.30078125) (4.040015411376953e-05, 6.302734375) (3.638450241088867e-05, 6.3046875) (3.230647659301758e-05, 6.306640625) (2.8243745803833005e-05, 6.30859375) (2.425649642944336e-05, 6.310546875) (2.038853073120117e-05, 6.3125) (1.6680551528930663e-05, 6.314453125) (1.3162293434143066e-05, 6.31640625) (9.869162559509277e-06, 6.318359375) (6.844295501708984e-06, 6.3203125) (4.107141494750976e-06, 6.322265625) (1.6561274528503416e-06, 6.32421875) (-5.239306688308716e-07, 6.326171875) (-2.464789867401123e-06, 6.328125) (-4.183466911315918e-06, 6.330078125) (-5.67833948135376e-06, 6.33203125) (-6.950847148895263e-06, 6.333984375) (-7.999775409698485e-06, 6.3359375) (-8.829408645629882e-06, 6.337890625) (-9.456045150756835e-06, 6.33984375) (-9.884594917297363e-06, 6.341796875) (-1.011434555053711e-05, 6.34375) (-1.0158132553100586e-05, 6.345703125) (-1.0045781135559081e-05, 6.34765625) (-9.833753585815429e-06, 6.349609375) (-9.594348907470703e-06, 6.3515625) (-9.391590118408202e-06, 6.353515625) (-9.270312309265137e-06, 6.35546875) (-9.260122299194336e-06, 6.357421875) (-9.39256477355957e-06, 6.359375) (-9.711952209472656e-06, 6.361328125) (-1.0270486831665038e-05, 