(-1.023267936706543e-05, 0.0) (-6.319593906402587e-06, 0.001953125) (-3.362354516983032e-06, 0.00390625) (-1.3556584119796751e-06, 0.005859375) (-2.3295944929122923e-07, 0.0078125) (3.1459230184555053e-07, 0.009765625) (6.609151363372802e-07, 0.01171875) (1.025641918182373e-06, 0.013671875) (1.5302858352661131e-06, 0.015625) (2.224344730377197e-06, 0.017578125) (3.0777046680450437e-06, 0.01953125) (4.0871262550354e-06, 0.021484375) (5.2699232101440425e-06, 0.0234375) (6.5936532020568845e-06, 0.025390625) (8.004823684692382e-06, 0.02734375) (9.459978103637695e-06, 0.029296875) (1.0926238059997559e-05, 0.03125) (1.2396049499511718e-05, 0.033203125) (1.3880229949951171e-05, 0.03515625) (1.537582015991211e-05, 0.037109375) (1.6862144470214843e-05, 0.0390625) (1.8309314727783203e-05, 0.041015625) (1.9677299499511717e-05, 0.04296875) (2.092778396606445e-05, 0.044921875) (2.203817367553711e-05, 0.046875) (2.2995365142822265e-05, 0.048828125) (2.3789655685424804e-05, 0.05078125) (2.441459274291992e-05, 0.052734375) (2.486338996887207e-05, 0.0546875) (2.513054847717285e-05, 0.056640625) (2.5219257354736328e-05, 0.05859375) (2.5140308380126952e-05, 0.060546875) (2.4901445388793945e-05, 0.0625) (2.450670051574707e-05, 0.064453125) (2.395946502685547e-05, 0.06640625) (2.32634162902832e-05, 0.068359375) (2.2428260803222656e-05, 0.0703125) (2.1469921112060545e-05, 0.072265625) (2.040540313720703e-05, 0.07421875) (1.924976921081543e-05, 0.076171875) (1.8015573501586914e-05, 0.078125) (1.671357536315918e-05, 0.080078125) (1.535434627532959e-05, 0.08203125) (1.394919204711914e-05, 0.083984375) (1.2508460998535155e-05, 0.0859375) (1.1041010856628418e-05, 0.087890625) (9.554166793823242e-06, 0.08984375) (8.05440330505371e-06, 0.091796875) (6.549949645996093e-06, 0.09375) (5.050554275512695e-06, 0.095703125) (3.566122055053711e-06, 0.09765625) (2.106269359588623e-06, 0.099609375) (6.79569125175476e-07, 0.1015625) (-7.062965035438537e-07, 0.103515625) (-2.0435967445373533e-06, 0.10546875) (-3.324540853500366e-06, 0.107421875) (-4.542222023010254e-06, 0.109375) (-5.690606594085693e-06, 0.111328125) (-6.764461517333984e-06, 0.11328125) (-7.759281158447266e-06, 0.115234375) (-8.670571327209472e-06, 0.1171875) (-9.494056701660156e-06, 0.119140625) (-1.022608757019043e-05, 0.12109375) (-1.08637056350708e-05, 0.123046875) (-1.1404864311218261e-05, 0.125) (-1.1848390579223633e-05, 0.126953125) (-1.2193769454956055e-05, 0.12890625) (-1.244137954711914e-05, 0.130859375) (-1.2592716217041015e-05, 0.1328125) (-1.265018081665039e-05, 0.134765625) (-1.2617006301879882e-05, 0.13671875) (-1.2496966361999511e-05, 0.138671875) (-1.2294083595275878e-05, 0.140625) (-1.2012809753417969e-05, 0.142578125) (-1.1658071517944335e-05, 0.14453125) (-1.1235074043273925e-05, 0.146484375) (-1.0749345779418944e-05, 0.1484375) (-1.0206681251525878e-05, 0.150390625) (-9.612974166870117e-06, 0.15234375) (-8.974576950073241e-06, 0.154296875) (-8.298281669616699e-06, 0.15625) (-7.590998172760009e-06, 0.158203125) (-6.859957695007324e-06, 0.16015625) (-6.112519264221191e-06, 0.162109375) (-5.355792999267578e-06, 0.1640625) (-4.596861839294433e-06, 0.166015625) (-3.842714786529541e-06, 0.16796875) (-3.0999555587768553e-06, 0.169921875) (-2.375185966491699e-06, 0.171875) (-1.675109267234802e-06, 0.173828125) (-1.0058199167251587e-06, 0.17578125) (-3.7314414978027344e-07, 0.177734375) (2.1675287187099455e-07, 0.1796875) (7.578161954879761e-07, 0.181640625) (1.2435539960861206e-06, 0.18359375) (1.6669163703918457e-06, 0.185546875) (2.0216679573059082e-06, 0.1875) (2.3023037910461424e-06, 0.189453125) (2.5032355785369872e-06, 0.19140625) (2.619431972503662e-06, 0.193359375) (2.6469972133636475e-06, 0.1953125) (2.582761526107788e-06, 0.197265625) (2.42540431022644e-06, 0.19921875) (2.17547607421875e-06, 0.201171875) (1.833443284034729e-06, 0.203125) (1.400203824043274e-06, 0.205078125) (8.771944046020508e-07, 0.20703125) (2.6544129848480224e-07, 0.208984375) (-4.338828325271606e-07, 0.2109375) (-1.219379186630249e-06, 0.212890625) (-2.090139150619507e-06, 0.21484375) (-3.0449016094207764e-06, 0.216796875) (-4.080733299255371e-06, 0.21875) (-5.194057464599609e-06, 0.220703125) (-6.379145622253418e-06, 0.22265625) (-7.6268911361694335e-06, 0.224609375) (-8.929518699645996e-06, 0.2265625) (-1.0280527114868164e-05, 0.228515625) (-1.1675247192382812e-05, 0.23046875) (-1.3114131927490234e-05, 0.232421875) (-1.4597315788269043e-05, 0.234375) (-1.612235450744629e-05, 0.236328125) (-1.768739891052246e-05, 0.23828125) (-1.928957748413086e-05, 0.240234375) (-2.0918977737426756e-05, 0.2421875) (-2.2559810638427734e-05, 0.244140625) (-2.4189567565917968e-05, 0.24609375) (-2.577522850036621e-05, 0.248046875) (-2.7287376403808592e-05, 0.25) (-2.8702066421508787e-05, 0.251953125) (-2.9995759963989257e-05, 0.25390625) (-3.1155214309692384e-05, 0.255859375) (-3.216962814331054e-05, 0.2578125) (-3.3024810791015626e-05, 0.259765625) (-3.371030807495117e-05, 0.26171875) (-3.421293640136718e-05, 0.263671875) (-3.4516067504882814e-05, 0.265625) (-3.4610336303710936e-05, 0.267578125) (-3.449334716796875e-05, 0.26953125) (-3.416281509399414e-05, 0.271484375) (-3.363995361328125e-05, 0.2734375) (-3.29721794128418e-05, 0.275390625) (-3.221683120727539e-05, 0.27734375) (-3.1460113525390627e-05, 0.279296875) (-3.078282356262207e-05, 0.28125) (-3.0237852096557615e-05, 0.283203125) (-2.9886358261108396e-05, 0.28515625) (-2.97790470123291e-05, 0.287109375) (-2.9953956604003905e-05, 0.2890625) (-3.0464710235595703e-05, 0.291015625) (-3.1351058959960935e-05, 0.29296875) (-3.262769317626953e-05, 0.294921875) (-3.434245300292969e-05, 0.296875) (-3.655442428588867e-05, 0.298828125) (-3.924420166015625e-05, 0.30078125) (-4.2339916229248046e-05, 0.302734375) (-4.5649795532226563e-05, 0.3046875) (-4.8809730529785156e-05, 0.306640625) (-5.144783782958984e-05, 0.30859375) (-5.3191219329833984e-05, 0.310546875) (-5.364278793334961e-05, 0.3125) (-5.2528907775878904e-05, 0.314453125) (-4.977931976318359e-05, 0.31640625) (-4.555327606201172e-05, 0.318359375) (-4.0368125915527344e-05, 0.3203125) (-3.5059600830078125e-05, 0.322265625) (-3.052506637573242e-05, 0.32421875) (-2.7660438537597654e-05, 0.326171875) (-2.7184532165527342e-05, 0.328125) (-2.9297693252563476e-05, 0.330078125) (-3.3729129791259766e-05, 0.33203125) (-3.9681503295898435e-05, 0.333984375) (-4.557524108886718e-05, 0.3359375) (-4.932916641235351e-05, 0.337890625) (-4.8527267456054684e-05, 0.33984375) (-4.035560607910156e-05, 0.341796875) (-2.3379417419433594e-05, 0.34375) (1.689101219177246e-06, 0.345703125) (3.3792808532714844e-05, 0.34765625) (7.111393737792968e-05, 0.349609375) (0.00011431719207763671, 0.3515625) (0.0001674464111328125, 0.353515625) (0.00023025747680664063, 0.35546875) (0.00029815270996093747, 0.357421875) (0.000359345947265625, 0.359375) (0.00039572442626953125, 0.361328125) (0.0003973893127441406, 0.36328125) (0.0003629337463378906, 0.365234375) (0.00029970004272460935, 0.3671875) (0.00022231298828124998, 0.369140625) (0.00013903111267089843, 0.37109375) (5.4280956268310545e-05, 0.373046875) (-2.758951950073242e-05, 0.375) (-0.00010220731353759765, 0.376953125) (-0.00016088864135742188, 0.37890625) (-0.0001964608154296875, 0.380859375) (-0.00020883453369140625, 0.3828125) (-0.00020426080322265625, 0.384765625) (-0.00019126602172851563, 0.38671875) (-0.00017594596862792968, 0.388671875) (-0.00015996836853027343, 0.390625) (-0.0001411572723388672, 0.392578125) (-0.00011874263763427734, 0.39453125) (-9.467825317382812e-05, 0.396484375) (-7.146126556396485e-05, 0.3984375) (-5.212434387207031e-05, 0.400390625) (-3.818038558959961e-05, 0.40234375) (-2.9424575805664062e-05, 0.404296875) (-2.5472179412841794e-05, 0.40625) (-2.5372844696044922e-05, 0.408203125) (-2.753407669067383e-05, 0.41015625) (-3.0289196014404297e-05, 0.412109375) (-3.2557434082031245e-05, 0.4140625) (-3.380767822265625e-05, 0.416015625) (-3.391804885864258e-05, 0.41796875) (-3.291008758544922e-05, 0.419921875) (-3.0579833984375e-05, 0.421875) (-2.6934612274169922e-05, 0.423828125) (-2.2559810638427734e-05, 0.42578125) (-1.8361728668212888e-05, 0.427734375) (-1.4973102569580078e-05, 0.4296875) (-1.2621580123901367e-05, 0.431640625) (-1.1232053756713867e-05, 0.43359375) (-1.0632944107055664e-05, 0.435546875) (-1.0838018417358398e-05, 0.4375) (-1.1857988357543945e-05, 0.439453125) (-1.3489511489868163e-05, 0.44140625) (-1.5349077224731443e-05, 0.443359375) (-1.7098176956176757e-05, 0.4453125) (-1.856256866455078e-05, 0.447265625) (-1.970853233337402e-05, 0.44921875) (-2.0593786239624023e-05, 0.451171875) (-2.1227478027343748e-05, 0.453125) (-2.156018829345703e-05, 0.455078125) (-2.156587791442871e-05, 0.45703125) (-2.1261775970458982e-05, 0.458984375) (-2.067778968811035e-05, 0.4609375) (-1.986302375793457e-05, 0.462890625) (-1.8872997283935546e-05, 0.46484375) (-1.772416877746582e-05, 0.466796875) (-1.6437959671020506e-05, 0.46875) (-1.5054812431335448e-05, 0.470703125) (-1.3613712310791014e-05, 0.47265625) (-1.2171365737915038e-05, 0.474609375) (-1.0779909133911133e-05, 0.4765625) (-9.457685470581055e-06, 0.478515625) (-8.205045700073242e-06, 0.48046875) (-7.016282081604004e-06, 0.482421875) (-5.8789033889770506e-06, 0.484375) (-4.7927012443542475e-06, 0.486328125) (-3.7663402557373043e-06, 0.48828125) (-2.7990834712982177e-06, 0.490234375) (-1.8914698362350462e-06, 0.4921875) (-1.0343351364135742e-06, 0.494140625) (-2.04620361328125e-07, 0.49609375) (6.113582849502564e-07, 0.498046875) (1.4242167472839355e-06, 0.5) (2.249813079833984e-06, 0.501953125) (3.1040825843811034e-06, 0.50390625) (4.008479118347168e-06, 0.505859375) (4.986896514892578e-06, 0.5078125) (6.05014944076538e-06, 0.509765625) (7.198421478271484e-06, 0.51171875) (8.43197250366211e-06, 0.513671875) (9.749720573425292e-06, 0.515625) (1.1153699874877929e-05, 0.517578125) (1.2649156570434569e-05, 0.51953125) (1.4237016677856444e-05, 0.521484375) (1.5917552947998045e-05, 0.5234375) (1.769110679626465e-05, 0.525390625) (1.955614471435547e-05, 0.52734375) (2.1512659072875977e-05, 0.529296875) (2.356097602844238e-05, 0.53125) (2.5698644638061522e-05, 0.533203125) (2.7922002792358397e-05, 0.53515625) (3.0226390838623047e-05, 0.537109375) (3.260480499267578e-05, 0.5390625) (3.505166625976562e-05, 0.541015625) (3.756304168701172e-05, 0.54296875) (4.0133277893066404e-05, 0.544921875) (4.275598526000976e-05, 0.546875) (4.542414474487305e-05, 0.548828125) (4.812930297851562e-05, 0.55078125) (5.086317443847656e-05, 0.552734375) (5.361774444580078e-05, 0.5546875) (5.638347625732422e-05, 0.556640625) (5.914952087402344e-05, 0.55859375) (6.190469360351563e-05, 0.560546875) (6.463719177246093e-05, 0.5625) (6.733511352539062e-05, 0.564453125) (6.998666381835938e-05, 0.56640625) (7.257957458496093e-05, 0.568359375) (7.510148620605469e-05, 0.5703125) (7.754025268554688e-05, 0.572265625) (7.988395690917968e-05, 0.57421875) (8.212102508544922e-05, 0.576171875) (8.424024963378906e-05, 0.578125) (8.62307891845703e-05, 0.580078125) (8.808227539062499e-05, 0.58203125) (8.978485107421874e-05, 0.583984375) (9.132904052734375e-05, 0.5859375) (9.270582580566406e-05, 0.587890625) (9.390673065185547e-05, 0.58984375) (9.492387390136718e-05, 0.591796875) (9.575001525878906e-05, 0.59375) (9.637866973876952e-05, 0.595703125) (9.680407714843749e-05, 0.59765625) (9.702126312255859e-05, 0.599609375) (9.702626800537109e-05, 0.6015625) (9.681607818603515e-05, 0.603515625) (9.638851928710937e-05, 0.60546875) (9.574240112304687e-05, 0.607421875) (9.487747955322265e-05, 0.609375) (9.379429626464844e-05, 0.611328125) (9.249436950683594e-05, 0.61328125) (9.098020935058594e-05, 0.615234375) (8.925518798828124e-05, 0.6171875) (8.732392883300781e-05, 0.619140625) (8.519229125976562e-05, 0.62109375) (8.286708831787109e-05, 0.623046875) (8.035624694824218e-05, 0.625) (7.76686553955078e-05, 0.626953125) (7.481411743164062e-05, 0.62890625) (7.180323028564453e-05, 0.630859375) (6.864732360839843e-05, 0.6328125) (6.5358154296875e-05, 0.634765625) (6.194789886474608e-05, 0.63671875) (5.842905807495117e-05, 0.638671875) (5.481439208984375e-05, 0.640625) (5.111688613891601e-05, 0.642578125) (4.73497314453125e-05, 0.64453125) (4.352619934082031e-05, 0.646484375) (3.9659645080566405e-05, 0.6484375) (3.5763481140136714e-05, 0.650390625) (3.185110473632812e-05, 0.65234375) (2.793584632873535e-05, 0.654296875) (2.403092002868652e-05, 0.65625) (2.0149330139160157e-05, 0.658203125) (1.630385208129883e-05, 0.66015625) (1.250697898864746e-05, 0.662109375) (8.77082633972168e-06, 0.6640625) (5.107118129730224e-06, 0.666015625) (1.5271638631820679e-06, 0.66796875) (-1.9582468271255492e-06, 0.669921875) (-5.338885307312011e-06, 0.671875) (-8.60513687133789e-06, 0.673828125) (-1.1748120307922363e-05, 0.67578125) (-1.4759773254394531e-05, 0.677734375) (-1.763292121887207e-05, 0.6796875) (-2.0361392974853515e-05, 0.681640625) (-2.2940109252929685e-05, 0.68359375) (-2.536505317687988e-05, 0.685546875) (-2.763333511352539e-05, 0.6875) (-2.974317169189453e-05, 0.689453125) (-3.16938362121582e-05, 0.69140625) (-3.348562622070312e-05, 0.693359375) (-3.511980438232422e-05, 0.6953125) (-3.65984878540039e-05, 0.697265625) (-3.792460632324219e-05, 0.69921875) (-3.910181045532226e-05, 0.701171875) (-4.013445663452148e-05, 0.703125) (-4.1027538299560544e-05, 0.705078125) (-4.178662872314453e-05, 0.70703125) (-4.2417835235595704e-05, 0.708984375) (-4.2927753448486325e-05, 0.7109375) (-4.332343673706054e-05, 0.712890625) (-4.361230850219727e-05, 0.71484375) (-4.380216979980469e-05, 0.716796875) (-4.390109252929687e-05, 0.71875) (-4.3917369842529296e-05, 0.720703125) (-4.385950469970703e-05, 0.72265625) (-4.373618698120117e-05, 0.724609375) (-4.355622100830078e-05, 0.7265625) (-4.332844543457031e-05, 0.728515625) (-4.306172561645508e-05, 0.73046875) (-4.276485443115234e-05, 0.732421875) (-4.2446498870849605e-05, 0.734375) (-4.21151123046875e-05, 0.736328125) (-4.177881240844726e-05, 0.73828125) (-4.144525146484375e-05, 0.740234375) (-4.112154769897461e-05, 0.7421875) (-4.081416320800781e-05, 0.744140625) (-4.052884674072265e-05, 0.74609375) (-4.027059555053711e-05, 0.748046875) (-4.004364013671875e-05, 0.75) (-3.985141372680664e-05, 0.751953125) (-3.969651412963867e-05, 0.75390625) (-3.9580696105957026e-05, 0.755859375) (-3.950491714477539e-05, 0.7578125) (-3.946937561035156e-05, 0.759765625) (-3.9473564147949215e-05, 0.76171875) (-3.9516265869140626e-05, 0.763671875) (-3.959552764892578e-05, 0.765625) (-3.970866394042969e-05, 0.767578125) (-3.985240936279297e-05, 0.76953125) (-4.002300262451172e-05, 0.771484375) (-4.021622085571289e-05, 0.7734375) (-4.0427402496337886e-05, 0.775390625) (-4.0651527404785156e-05, 0.77734375) (-4.088322448730468e-05, 0.779296875) (-4.111693572998047e-05, 0.78125) (-4.1346923828124995e-05, 0.783203125) (-4.1567287445068355e-05, 0.78515625) (-4.1771896362304684e-05, 0.787109375) (-4.1954463958740233e-05, 0.7890625) (-4.2108600616455074e-05, 0.791015625) (-4.2227836608886715e-05, 0.79296875) (-4.230569839477539e-05, 0.794921875) (-4.233577728271484e-05, 0.796875) (-4.231180953979492e-05, 0.798828125) (-4.222777938842773e-05, 0.80078125) (-4.207809448242187e-05, 0.802734375) (-4.185767364501953e-05, 0.8046875) (-4.1562049865722655e-05, 0.806640625) (-4.1187408447265624e-05, 0.80859375) (-4.073058700561523e-05, 0.810546875) (-4.018895721435547e-05, 0.8125) (-3.9560428619384763e-05, 0.814453125) (-3.884367370605468e-05, 0.81640625) (-3.80380859375e-05, 0.818359375) (-3.714382171630859e-05, 0.8203125) (-3.6161720275878906e-05, 0.822265625) (-3.509314727783203e-05, 0.82421875) (-3.3940162658691404e-05, 0.826171875) (-3.2705745697021485e-05, 0.828125) (-3.139384460449219e-05, 0.830078125) (-3.000913619995117e-05, 0.83203125) (-2.855684471130371e-05, 0.833984375) (-2.7042629241943357e-05, 0.8359375) (-2.547267150878906e-05, 0.837890625) (-2.38536262512207e-05, 0.83984375) (-2.2192481994628905e-05, 0.841796875) (-2.049647521972656e-05, 0.84375) (-1.8772933959960936e-05, 0.845703125) (-1.7029258728027344e-05, 0.84765625) (-1.5273244857788086e-05, 0.849609375) (-1.3512868881225585e-05, 0.8515625) (-1.1756084442138671e-05, 0.853515625) (-1.0011427879333496e-05, 0.85546875) (-8.287887573242187e-06, 0.857421875) (-6.594733238220214e-06, 0.859375) (-4.941802024841308e-06, 0.861328125) (-3.338827848434448e-06, 0.86328125) (-1.7948514223098755e-06, 0.865234375) (-3.1868356466293336e-07, 0.8671875) (1.081309199333191e-06, 0.869140625) (2.3981621265411374e-06, 0.87109375) (3.6257619857788084e-06, 0.873046875) (4.759314537048339e-06, 0.875) (5.795972824096679e-06, 0.876953125) (6.73313045501709e-06, 0.87890625) (7.56845474243164e-06, 0.880859375) (8.299813270568848e-06, 0.8828125) (8.924116134643555e-06, 0.884765625) (9.43874168395996e-06, 0.88671875) (9.842439651489258e-06, 0.888671875) (1.0134965896606445e-05, 0.890625) (1.0317885398864746e-05, 0.892578125) (1.039424991607666e-05, 0.89453125) (1.0366938591003418e-05, 0.896484375) (1.0241692543029785e-05, 0.8984375) (1.0028003692626953e-05, 0.900390625) (9.733954429626464e-06, 0.90234375) (9.367306709289551e-06, 0.904296875) (8.931133270263672e-06, 0.90625) (8.420144081115722e-06, 0.908203125) (7.831726551055908e-06, 0.91015625) (7.167627811431884e-06, 0.912109375) (6.431850910186768e-06, 0.9140625) (5.6340522766113275e-06, 0.916015625) (4.786318302154541e-06, 0.91796875) (3.900635719299316e-06, 0.919921875) (2.9962036609649657e-06, 0.921875) (2.100055456161499e-06, 0.923828125) (1.238298177719116e-06, 0.92578125) (4.372383058071136e-07, 0.927734375) (-2.8579649329185485e-07, 0.9296875) (-9.268975853919983e-07, 0.931640625) (-1.4799740314483641e-06, 0.93359375) (-1.9406194686889647e-06, 0.935546875) (-2.295127868652344e-06, 0.9375) (-2.511605739593506e-06, 0.939453125) (-2.5706775188446043e-06, 0.94140625) (-2.4657211303710938e-06, 0.943359375) (-2.1972436904907224e-06, 0.9453125) (-1.7822492122650147e-06, 0.947265625) (-1.2399547100067138e-06, 0.94921875) (-5.886855125427245e-07, 0.951171875) (1.3451457023620606e-07, 0.953125) (8.750774264335632e-07, 0.955078125) (1.5727670192718505e-06, 0.95703125) (2.156470537185669e-06, 0.958984375) (2.5713281631469725e-06, 0.9609375) (2.782388687133789e-06, 0.962890625) (2.7499809265136717e-06, 0.96484375) (2.4649488925933836e-06, 0.966796875) (1.879308819770813e-06, 0.96875) (8.796963095664977e-07, 0.970703125) (-5.467009544372558e-07, 0.97265625) (-2.3290438652038574e-06, 0.974609375) (-4.3126645088195796e-06, 0.9765625) (-6.190292358398437e-06, 0.978515625) (-7.689048290252685e-06, 0.98046875) (-8.645703315734862e-06, 0.982421875) (-8.790838241577149e-06, 0.984375) (-7.796536445617675e-06, 0.986328125) (-5.590795993804931e-06, 0.98828125) (-2.2786383628845215e-06, 0.990234375) (1.6845443248748779e-06, 0.9921875) (5.392847061157226e-06, 0.994140625) (8.095826148986816e-06, 0.99609375) (9.21938133239746e-06, 0.998046875) (8.156469345092774e-06, 1.0) (4.573005676269531e-06, 1.001953125) (-1.3709580898284912e-06, 1.00390625) (-9.09591293334961e-06, 1.005859375) (-1.72677001953125e-05, 1.0078125) (-2.3910690307617186e-05, 1.009765625) (-2.710633850097656e-05, 1.01171875) (-2.4859165191650388e-05, 1.013671875) (-1.5199831962585449e-05, 1.015625) (3.249930381774902e-06, 1.017578125) (3.0275571823120115e-05, 1.01953125) (6.400653076171875e-05, 1.021484375) (0.00010191520690917968, 1.0234375) (0.00014168588256835936, 1.025390625) (0.00018356884765625, 1.02734375) (0.00022904954528808592, 1.029296875) (0.0002765696716308594, 1.03125) (0.00032017459106445313, 1.033203125) (0.0003488437194824219, 1.03515625) (0.00035109259033203126, 1.037109375) (0.0003219823303222656, 1.0390625) (0.00026551062011718747, 1.041015625) (0.00019350796508789061, 1.04296875) (0.0001185010986328125, 1.044921875) (4.8716217041015625e-05, 1.046875) (-1.2911916732788086e-05, 1.048828125) (-6.810206604003906e-05, 1.05078125) (-0.00011711354064941406, 1.052734375) (-0.00015783872985839842, 1.0546875) (-0.00018801620483398438, 1.056640625) (-0.00020499838256835936, 1.05859375) (-0.00020832994079589842, 1.060546875) (-0.00019984741210937499, 1.0625) (-0.00018160546875, 1.064453125) (-0.00015619383239746094, 1.06640625) (-0.00012699365997314452, 1.068359375) (-9.708589172363281e-05, 1.0703125) (-6.882655334472656e-05, 1.072265625) (-4.4178443908691404e-05, 1.07421875) (-2.408246040344238e-05, 1.076171875) (-8.806136131286621e-06, 1.078125) (1.2160382270812988e-06, 1.080078125) (6.128614902496338e-06, 1.08203125) (7.081173419952392e-06, 1.083984375) (5.440441131591796e-06, 1.0859375) (2.5230510234832763e-06, 1.087890625) (-3.563915491104126e-07, 1.08984375) (-2.593156337738037e-06, 1.091796875) (-3.915855407714844e-06, 1.09375) (-3.781154870986938e-06, 1.095703125) (-2.036011219024658e-06, 1.09765625) (9.769712686538695e-07, 1.099609375) (4.80360746383667e-06, 1.1015625) (8.77588653564453e-06, 1.103515625) (1.2177080154418946e-05, 1.10546875) (1.4764455795288085e-05, 1.107421875) (1.64905948638916e-05, 1.109375) (1.7226293563842774e-05, 1.111328125) (1.7022174835205077e-05, 1.11328125) (1.6015041351318357e-05, 1.115234375) (1.436505603790283e-05, 1.1171875) (1.2399303436279297e-05, 1.119140625) (1.0478022575378418e-05, 1.12109375) (8.771472930908202e-06, 1.123046875) (7.362754821777344e-06, 1.125) (6.316833496093749e-06, 1.126953125) (5.643965721130371e-06, 1.12890625) (5.392449378967285e-06, 1.130859375) (5.610617637634277e-06, 1.1328125) (6.27324390411377e-06, 1.134765625) (7.317116737365722e-06, 1.13671875) (8.680730819702149e-06, 1.138671875) (1.0299607276916503e-05, 1.140625) (1.210850429534912e-05, 1.142578125) (1.4061244964599608e-05, 1.14453125) (1.6099458694458006e-05, 1.146484375) (1.8158981323242187e-05, 1.1484375) (2.0197879791259766e-05, 1.150390625) (2.218758773803711e-05, 1.15234375) (2.4115314483642576e-05, 1.154296875) (2.598147392272949e-05, 1.15625) (2.77900276184082e-05, 1.158203125) (2.9532541275024413e-05, 1.16015625) (3.119201850891113e-05, 1.162109375) (3.275836563110351e-05, 1.1640625) (3.422257995605469e-05, 1.166015625) (3.558544158935547e-05, 1.16796875) (3.6858985900878906e-05, 1.169921875) (3.80606460571289e-05, 1.171875) (3.921625518798828e-05, 1.173828125) (4.035386276245117e-05, 1.17578125) (4.150189971923828e-05, 1.177734375) (4.268497085571289e-05, 1.1796875) (4.392145919799804e-05, 1.181640625) (4.522400665283203e-05, 1.18359375) (4.65981330871582e-05, 1.185546875) (4.8043968200683595e-05, 1.1875) (4.955669784545898e-05, 1.189453125) (5.113362884521484e-05, 1.19140625) (5.277531433105468e-05, 1.193359375) (5.4482597351074216e-05, 1.1953125) (5.6258529663085936e-05, 1.197265625) (5.8104705810546874e-05, 1.19921875) (6.002040100097656e-05, 1.201171875) (6.200370025634765e-05, 1.203125) (6.405087280273437e-05, 1.205078125) (6.615684509277344e-05, 1.20703125) (6.831536865234374e-05, 1.208984375) (7.052034759521484e-05, 1.2109375) (7.276547241210938e-05, 1.212890625) (7.504475402832031e-05, 1.21484375) (7.735330200195312e-05, 1.216796875) (7.96872100830078e-05, 1.21875) (8.204373168945313e-05, 1.220703125) (8.441956329345702e-05, 1.22265625) (8.681049346923828e-05, 1.224609375) (8.921115112304687e-05, 1.2265625) (9.161498260498046e-05, 1.228515625) (9.40149917602539e-05, 1.23046875) (9.640365600585937e-05, 1.232421875) (9.877264404296875e-05, 1.234375) (0.0001011128692626953, 1.236328125) (0.00010341508483886719, 1.23828125) (0.00010567009735107422, 1.240234375) (0.00010786901092529296, 1.2421875) (0.00011000318908691405, 1.244140625) (0.00011206385803222656, 1.24609375) (0.00011404214477539061, 1.248046875) (0.00011592917633056641, 1.25) (0.00011771615600585936, 1.251953125) (0.00011939453125, 1.25390625) (0.00012095579528808593, 1.255859375) (0.00012239153289794923, 1.2578125) (0.00012369345092773436, 1.259765625) (0.00012485343170166014, 1.26171875) (0.00012586375427246093, 1.263671875) (0.00012671725463867187, 1.265625) (0.0001274071044921875, 1.267578125) (0.00012792717742919922, 1.26953125) (0.00012827178955078123, 1.271484375) (0.000128435791015625, 1.2734375) (0.00012841477966308594, 1.275390625) (0.00012820501708984375, 1.27734375) (0.000127803466796875, 1.279296875) (0.00012720767211914062, 1.28125) (0.00012641578674316405, 1.283203125) (0.00012542668151855469, 1.28515625) (0.00012424005126953125, 1.287109375) (0.00012285653686523436, 1.2890625) (0.00012127778625488281, 1.291015625) (0.00011950637817382811, 1.29296875) (0.00011754593658447266, 1.294921875) (0.0001154011001586914, 1.296875) (0.00011307751464843749, 1.298828125) (0.00011058165740966797, 1.30078125) (0.0001079207763671875, 1.302734375) (0.00010510276794433593, 1.3046875) (0.00010213613891601563, 1.306640625) (9.903004455566405e-05, 1.30859375) (9.579425811767578e-05, 1.310546875) (9.243912506103515e-05, 1.3125) (8.89755401611328e-05, 1.314453125) (8.541493225097656e-05, 1.31640625) (8.176921081542968e-05, 1.318359375) (7.805070495605469e-05, 1.3203125) (7.427210998535157e-05, 1.322265625) (7.044633483886719e-05, 1.32421875) (6.658641052246093e-05, 1.326171875) (6.270536804199219e-05, 1.328125) (5.881627655029297e-05, 1.330078125) (5.493207168579101e-05, 1.33203125) (5.106562042236328e-05, 1.333984375) (4.722960662841797e-05, 1.3359375) (4.343647766113281e-05, 1.337890625) (3.969838714599609e-05, 1.33984375) (3.602712249755859e-05, 1.341796875) (3.2434040069580075e-05, 1.34375) (2.8929969787597656e-05, 1.345703125) (2.5525066375732422e-05, 1.34765625) (2.2228717803955077e-05, 1.349609375) (1.9049434661865234e-05, 1.3515625) (1.5994788169860838e-05, 1.353515625) (1.3071359634399413e-05, 1.35546875) (1.0284717559814452e-05, 1.357421875) (7.639397621154785e-06, 1.359375) (5.138888359069824e-06, 1.361328125) (2.7856788635253903e-06, 1.36328125) (5.812661051750183e-07, 1.365234375) (-1.4738144874572753e-06, 1.3671875) (-3.3799638748168945e-06, 1.369140625) (-5.1385469436645504e-06, 1.37109375) (-6.751880645751953e-06, 1.373046875) (-8.223201751708985e-06, 1.375) (-9.556644439697266e-06, 1.376953125) (-1.0757187843322754e-05, 1.37890625) (-1.1830589294433594e-05, 1.380859375) (-1.2783340454101562e-05, 1.3828125) (-1.3622591972351073e-05, 1.384765625) (-1.4356029510498047e-05, 1.38671875) (-1.4991834640502929e-05, 1.388671875) (-1.5538579940795896e-05, 1.390625) (-1.6005157470703124e-05, 1.392578125) (-1.6400747299194337e-05, 1.39453125) (-1.6734760284423826e-05, 1.396484375) (-1.701676559448242e-05, 1.3984375) (-1.7256462097167967e-05, 1.400390625) (-1.7463619232177733e-05, 1.40234375) (-1.7647954940795898e-05, 1.404296875) (-1.7819070816040037e-05, 1.40625) (-1.7986371994018553e-05, 1.408203125) (-1.81589298248291e-05, 1.41015625) (-1.8345436096191407e-05, 1.412109375) (-1.8554100036621092e-05, 1.4140625) (-1.87924747467041e-05, 1.416015625) (-1.9067466735839843e-05, 1.41796875) (-1.938528823852539e-05, 1.419921875) (-1.9751375198364258e-05, 1.421875) (-2.0170433044433593e-05, 1.423828125) (-2.0646371841430665e-05, 1.42578125) (-2.1182277679443358e-05, 1.427734375) (-2.1780471801757813e-05, 1.4296875) (-2.2442531585693358e-05, 1.431640625) (-2.3169179916381836e-05, 1.43359375) (-2.3960338592529297e-05, 1.435546875) (-2.4815151214599607e-05, 1.4375) (-2.5731916427612302e-05, 1.439453125) (-2.6708217620849607e-05, 1.44140625) (-2.7740924835205077e-05, 1.443359375) (-2.8826137542724607e-05, 1.4453125) (-2.995931625366211e-05, 1.447265625) (-3.113539123535156e-05, 1.44921875) (-3.23487434387207e-05, 1.451171875) (-3.3593353271484374e-05, 1.453125) (-3.4862899780273434e-05, 1.455078125) (-3.6150741577148435e-05, 1.45703125) (-3.745005798339843e-05, 1.458984375) (-3.875393295288086e-05, 1.4609375) (-4.005524444580078e-05, 1.462890625) (-4.1346763610839844e-05, 1.46484375) (-4.262129592895508e-05, 1.466796875) (-4.387161254882812e-05, 1.46875) (-4.509053039550781e-05, 1.470703125) (-4.62709732055664e-05, 1.47265625) (-4.740590667724609e-05, 1.474609375) (-4.848847961425781e-05, 1.4765625) (-4.951240539550781e-05, 1.478515625) (-5.0471744537353514e-05, 1.48046875) (-5.1361034393310545e-05, 1.482421875) (-5.2175476074218744e-05, 1.484375) (-5.291077804565429e-05, 1.486328125) (-5.356330108642578e-05, 1.48828125) (-5.4130214691162104e-05, 1.490234375) (-5.460916137695312e-05, 1.4921875) (-5.4998291015625e-05, 1.494140625) (-5.529652404785156e-05, 1.49609375) (-5.550343322753906e-05, 1.498046875) (-5.561923217773437e-05, 1.5) (-5.5644989013671874e-05, 1.501953125) (-5.5582275390624995e-05, 1.50390625) (-5.543336868286132e-05, 1.505859375) (-5.520162963867187e-05, 1.5078125) (-5.489124298095703e-05, 1.509765625) (-5.4507125854492184e-05, 1.51171875) (-5.405496215820312e-05, 1.513671875) (-5.354092788696289e-05, 1.515625) (-5.2971534729003906e-05, 1.517578125) (-5.2353912353515624e-05, 1.51953125) (-5.1695335388183594e-05, 1.521484375) (-5.1003040313720704e-05, 1.5234375) (-5.028462219238281e-05, 1.525390625) (-4.954764556884765e-05, 1.52734375) (-4.879975128173828e-05, 1.529296875) (-4.80490837097168e-05, 1.53125) (-4.730437088012695e-05, 1.533203125) (-4.6574745178222654e-05, 1.53515625) (-4.5870105743408204e-05, 1.537109375) (-4.520094299316406e-05, 1.5390625) (-4.457719421386719e-05, 1.541015625) (-4.40087890625e-05, 1.54296875) (-4.35057487487793e-05, 1.544921875) (-4.307728576660156e-05, 1.546875) (-4.2731544494628904e-05, 1.548828125) (-4.2475410461425776e-05, 1.55078125) (-4.231422805786133e-05, 1.552734375) (-4.2252323150634765e-05, 1.5546875) (-4.2294822692871095e-05, 1.556640625) (-4.2446720123291015e-05, 1.55859375) (-4.2711818695068354e-05, 1.560546875) (-4.309331512451172e-05, 1.5625) (-4.3593036651611326e-05, 1.564453125) (-4.421234893798828e-05, 1.56640625) (-4.4952690124511716e-05, 1.568359375) (-4.581343841552734e-05, 1.5703125) (-4.6791358947753905e-05, 1.572265625) (-4.7882282257080074e-05, 1.57421875) (-4.90802001953125e-05, 1.576171875) (-5.0378314971923825e-05, 1.578125) (-5.1773387908935544e-05, 1.580078125) (-5.3262546539306636e-05, 1.58203125) (-5.484425354003906e-05, 1.583984375) (-5.65224380493164e-05, 1.5859375) (-5.8297706604003906e-05, 1.587890625) (-6.016637420654296e-05, 1.58984375) (-6.212698364257812e-05, 1.591796875) (-6.417515563964843e-05, 1.59375) (-6.630223846435547e-05, 1.595703125) (-6.849919128417968e-05, 1.59765625) (-7.074856567382813e-05, 1.599609375) (-7.30258331298828e-05, 1.6015625) (-7.53107452392578e-05, 1.603515625) (-7.758027648925781e-05, 1.60546875) (-7.981083679199218e-05, 1.607421875) (-8.19828643798828e-05, 1.609375) (-8.406861877441405e-05, 1.611328125) (-8.604077911376952e-05, 1.61328125) (-8.787594604492187e-05, 1.615234375) (-8.953897094726562e-05, 1.6171875) (-9.100196075439453e-05, 1.619140625) (-9.225833892822266e-05, 1.62109375) (-9.329850769042968e-05, 1.623046875) (-9.411976623535156e-05, 1.625) (-9.472755432128905e-05, 1.626953125) (-9.51131362915039e-05, 1.62890625) (-9.52947540283203e-05, 1.630859375) (-9.533110809326172e-05, 1.6328125) (-9.528675842285156e-05, 1.634765625) (-9.523954772949219e-05, 1.63671875) (-9.526925659179687e-05, 1.638671875) (-9.54312515258789e-05, 1.640625) (-9.581897735595703e-05, 1.642578125) (-9.657217407226562e-05, 1.64453125) (-9.775335693359375e-05, 1.646484375) (-9.93514633178711e-05, 1.6484375) (-0.00010126128387451171, 1.650390625) (-0.00010322807312011719, 1.65234375) (-0.00010502999877929687, 1.654296875) (-0.00010655160522460936, 1.65625) (-0.000107614990234375, 1.658203125) (-0.00010796369171142578, 1.66015625) (-0.00010749757385253906, 1.662109375) (-0.00010632420349121094, 1.6640625) (-0.00010482617187499999, 1.666015625) (-0.00010375216674804687, 1.66796875) (-0.00010376919555664063, 1.669921875) (-0.00010519436645507812, 1.671875) (-0.0001083147964477539, 1.673828125) (-0.00011350051879882812, 1.67578125) (-0.00012082496643066406, 1.677734375) (-0.00012985195922851563, 1.6796875) (-0.00013954830932617188, 1.681640625) (-0.00014816848754882811, 1.68359375) (-0.00015387109374999998, 1.685546875) (-0.00015527479553222655, 1.6875) (-0.00015100524902343749, 1.689453125) (-0.00013953343200683594, 1.69140625) (-0.00011968157958984374, 1.693359375) (-9.095193481445312e-05, 1.6953125) (-5.379358673095703e-05, 1.697265625) (-9.779923439025878e-06, 1.69921875) (3.884908294677734e-05, 1.701171875) (8.967446899414062e-05, 1.703125) (0.00013965625, 1.705078125) (0.0001852566223144531, 1.70703125) (0.00022299246215820313, 1.708984375) (0.00024940032958984374, 1.7109375) (0.0002616653747558594, 1.712890625) (0.0002581294860839844, 1.71484375) (0.00023794773864746092, 1.716796875) (0.0002023368682861328, 1.71875) (0.00015497021484374998, 1.720703125) (9.865487670898438e-05, 1.72265625) (3.597259521484375e-05, 1.724609375) (-3.1064041137695314e-05, 1.7265625) (-0.0001026055908203125, 1.728515625) (-0.00017350874328613282, 1.73046875) (-0.000234974853515625, 1.732421875) (-0.000279675048828125, 1.734375) (-0.00029978173828125, 1.736328125) (-0.0002955235900878906, 1.73828125) (-0.00027478497314453124, 1.740234375) (-0.0002446087646484375, 1.7421875) (-0.00021322006225585937, 1.744140625) (-0.00018510443115234373, 1.74609375) (-0.00015935656738281248, 1.748046875) (-0.0001360785675048828, 1.75) (-0.00011513985443115233, 1.751953125) (-9.691542053222656e-05, 1.75390625) (-8.372288513183593e-05, 1.755859375) (-7.662432861328124e-05, 1.7578125) (-7.508572387695312e-05, 1.759765625) (-7.770008850097656e-05, 1.76171875) (-8.219844818115233e-05, 1.763671875) (-8.675374603271484e-05, 1.765625) (-9.056192779541015e-05, 1.767578125) (-9.331963348388672e-05, 1.76953125) (-9.474896240234374e-05, 1.771484375) (-9.446623229980468e-05, 1.7734375) (-9.243412017822266e-05, 1.775390625) (-8.906950378417968e-05, 1.77734375) (-8.516562652587891e-05, 1.779296875) (-8.163563537597656e-05, 1.78125) (-7.889649963378907e-05, 1.783203125) (-7.695460510253906e-05, 1.78515625) (-7.581414794921874e-05, 1.787109375) (-7.552772521972655e-05, 1.7890625) (-7.60908203125e-05, 1.791015625) (-7.741764068603516e-05, 1.79296875) (-7.920637512207032e-05, 1.794921875) (-8.099466705322265e-05, 1.796875) (-8.253067016601562e-05, 1.798828125) (-8.374869537353515e-05, 1.80078125) (-8.462841796875e-05, 1.802734375) (-8.518807983398437e-05, 1.8046875) (-8.538863372802733e-05, 1.806640625) (-8.515190887451171e-05, 1.80859375) (-8.448738861083984e-05, 1.810546875) (-8.349369812011718e-05, 1.8125) (-8.227286529541015e-05, 1.814453125) (-8.090267944335937e-05, 1.81640625) (-7.942120361328125e-05, 1.818359375) (-7.78321075439453e-05, 1.8203125) (-7.616294860839844e-05, 1.822265625) (-7.447019958496093e-05, 1.82421875) (-7.280968475341796e-05, 1.826171875) (-7.122068786621093e-05, 1.828125) (-6.970978546142578e-05, 1.830078125) (-6.826639556884766e-05, 1.83203125) (-6.688587951660156e-05, 1.833984375) (-6.557263946533203e-05, 1.8359375) (-6.434304046630858e-05, 1.837890625) (-6.321227264404297e-05, 1.83984375) (-6.217668914794922e-05, 1.841796875) (-6.12167854309082e-05, 1.84375) (-6.030500030517578e-05, 1.845703125) (-5.941804122924804e-05, 1.84765625) (-5.8541107177734374e-05, 1.849609375) (-5.766094207763672e-05, 1.8515625) (-5.6757701873779296e-05, 1.853515625) (-5.580414581298828e-05, 1.85546875) (-5.477465438842773e-05, 1.857421875) (-5.36529312133789e-05, 1.859375) (-5.243476104736328e-05, 1.861328125) (-5.111871337890625e-05, 1.86328125) (-4.9699554443359374e-05, 1.865234375) (-4.816924667358398e-05, 1.8671875) (-4.6516693115234376e-05, 1.869140625) (-4.473367309570312e-05, 1.87109375) (-4.2817115783691405e-05, 1.873046875) (-4.0764865875244136e-05, 1.875) (-3.857463836669922e-05, 1.876953125) (-3.624323272705078e-05, 1.87890625) (-3.376704406738281e-05, 1.880859375) (-3.114441680908203e-05, 1.8828125) (-2.837717056274414e-05, 1.884765625) (-2.5468830108642578e-05, 1.88671875) (-2.2422435760498045e-05, 1.888671875) (-1.9240505218505857e-05, 1.890625) (-1.5924850463867186e-05, 1.892578125) (-1.2478992462158203e-05, 1.89453125) (-8.909066200256347e-06, 1.896484375) (-5.222475051879882e-06, 1.8984375) (-1.427529215812683e-06, 1.900390625) (2.467075824737549e-06, 1.90234375) (6.451637268066406e-06, 1.904296875) (1.051450252532959e-05, 1.90625) (1.4642202377319335e-05, 1.908203125) (1.88205509185791e-05, 1.91015625) (2.303508377075195e-05, 1.912109375) (2.7271015167236326e-05, 1.9140625) (3.1513345718383786e-05, 1.916015625) (3.574626159667969e-05, 1.91796875) (3.9953472137451173e-05, 1.919921875) (4.411891555786132e-05, 1.921875) (4.822661972045898e-05, 1.923828125) (5.226068878173828e-05, 1.92578125) (5.620536804199219e-05, 1.927734375) (6.0044933319091794e-05, 1.9296875) (6.376386260986328e-05, 1.931640625) (6.73472442626953e-05, 1.93359375) (7.078072357177733e-05, 1.935546875) (7.405039978027343e-05, 1.9375) (7.714299011230469e-05, 1.939453125) (8.004588317871093e-05, 1.94140625) (8.274730682373047e-05, 1.943359375) (8.523651123046875e-05, 1.9453125) (8.750379180908203e-05, 1.947265625) (8.954051208496093e-05, 1.94921875) (9.133900451660156e-05, 1.951171875) (9.289280700683593e-05, 1.953125) (9.419676208496094e-05, 1.955078125) (9.524710845947265e-05, 1.95703125) (9.604148864746094e-05, 1.958984375) (9.657891845703125e-05, 1.9609375) (9.685969543457031e-05, 1.962890625) (9.688548278808594e-05, 1.96484375) (9.665956878662108e-05, 1.966796875) (9.618679809570312e-05, 1.96875) (9.547353363037109e-05, 1.970703125) (9.452734375e-05, 1.97265625) (9.335688781738281e-05, 1.974609375) (9.197191619873047e-05, 1.9765625) (9.038316345214843e-05, 1.978515625) (8.86023712158203e-05, 1.98046875) (8.66420669555664e-05, 1.982421875) (8.451531982421874e-05, 1.984375) (8.223573303222655e-05, 1.986328125) (7.98173599243164e-05, 1.98828125) (7.727467346191406e-05, 1.990234375) (7.462251281738282e-05, 1.9921875) (7.187589263916015e-05, 1.994140625) (6.904991149902343e-05, 1.99609375) (6.615956878662109e-05, 1.998046875) (6.321977996826172e-05, 2.0) (6.024529647827148e-05, 2.001953125) (5.7250671386718745e-05, 2.00390625) (5.425020599365234e-05, 2.005859375) (5.125785827636719e-05, 2.0078125) (4.8287208557128904e-05, 2.009765625) (4.535141372680664e-05, 2.01171875) (4.246315765380859e-05, 2.013671875) (3.9634567260742184e-05, 2.015625) (3.687712097167969e-05, 2.017578125) (3.420150375366211e-05, 2.01953125) (3.1617509841918947e-05, 2.021484375) (2.9133968353271484e-05, 2.0234375) (2.675870895385742e-05, 2.025390625) (2.449850273132324e-05, 2.02734375) (2.235902404785156e-05, 2.029296875) (2.034482192993164e-05, 2.03125) (1.8459325790405274e-05, 2.033203125) (1.6704912185668944e-05, 2.03515625) (1.5082921028137206e-05, 2.037109375) (1.3593698501586914e-05, 2.0390625) (1.2236604690551757e-05, 2.041015625) (1.1010047912597656e-05, 2.04296875) (9.911527633666992e-06, 2.044921875) (8.937726020812987e-06, 2.046875) (8.084587097167969e-06, 2.048828125) (7.347391128540039e-06, 2.05078125) (6.720841407775879e-06, 2.052734375) (6.199153900146484e-06, 2.0546875) (5.776154994964599e-06, 2.056640625) (5.4453754425048825e-06, 2.05859375) (5.200111389160156e-06, 2.060546875) (5.033449649810791e-06, 2.0625) (4.9382982254028315e-06, 2.064453125) (4.907378673553466e-06, 2.06640625) (4.9332365989685056e-06, 2.068359375) (5.008266925811768e-06, 2.0703125) (5.124733448028564e-06, 2.072265625) (5.274792671203613e-06, 2.07421875) (5.450562953948975e-06, 2.076171875) (5.644213676452637e-06, 2.078125) (5.84804630279541e-06, 2.080078125) (6.054610729217529e-06, 2.08203125) (6.256794452667236e-06, 2.083984375) (6.447847366333007e-06, 2.0859375) (6.621425628662109e-06, 2.087890625) (6.771657466888428e-06, 2.08984375) (6.893162250518799e-06, 2.091796875) (6.981078624725342e-06, 2.09375) (7.031087875366211e-06, 2.095703125) (7.039394378662109e-06, 2.09765625) (7.0027437210083005e-06, 2.099609375) (6.918533325195312e-06, 2.1015625) (6.784846305847168e-06, 2.103515625) (6.6004610061645505e-06, 2.10546875) (6.364827156066894e-06, 2.107421875) (6.077979564666748e-06, 2.109375) (5.74048900604248e-06, 2.111328125) (5.353436470031738e-06, 2.11328125) (4.918342113494873e-06, 2.115234375) (4.437090396881104e-06, 2.1171875) (3.911825656890869e-06, 2.119140625) (3.344856739044189e-06, 2.12109375) (2.7386987209320066e-06, 2.123046875) (2.096139907836914e-06, 2.125) (1.4202443361282347e-06, 2.126953125) (7.143853902816772e-07, 2.12890625) (-1.7774824053049087e-08, 2.130859375) (-7.723747491836547e-07, 2.1328125) (-1.5453037023544311e-06, 2.134765625) (-2.332123041152954e-06, 2.13671875) (-3.1281542778015134e-06, 2.138671875) (-3.928600311279296e-06, 2.140625) (-4.7286057472229e-06, 2.142578125) (-5.523401737213135e-06, 2.14453125) (-6.308332920074463e-06, 2.146484375) (-7.078668594360351e-06, 2.1484375) (-7.829619407653809e-06, 2.150390625) (-8.55647563934326e-06, 2.15234375) (-9.254657745361328e-06, 2.154296875) (-9.919734954833984e-06, 2.15625) (-1.0547449111938476e-05, 2.158203125) (-1.1133563995361327e-05, 2.16015625) (-1.1673891067504883e-05, 2.162109375) (-1.216466999053955e-05, 2.1640625) (-1.260270881652832e-05, 2.166015625) (-1.298541259765625e-05, 2.16796875) (-1.3310704231262206e-05, 2.169921875) (-1.3576784133911131e-05, 2.171875) (-1.3782159805297851e-05, 2.173828125) (-1.392578125e-05, 2.17578125) (-1.4007043838500977e-05, 2.177734375) (-1.4025712966918944e-05, 2.1796875) (-1.3981689453125e-05, 2.181640625) (-1.3874820709228514e-05, 2.18359375) (-1.3705117225646972e-05, 2.185546875) (-1.3473033905029296e-05, 2.1875) (-1.3179455757141113e-05, 2.189453125) (-1.282573127746582e-05, 2.19140625) (-1.2413507461547851e-05, 2.193359375) (-1.1944448471069335e-05, 2.1953125) (-1.1420470237731933e-05, 2.197265625) (-1.0844103813171386e-05, 2.19921875) (-1.0218341827392578e-05, 2.201171875) (-9.546426773071289e-06, 2.203125) (-8.831770896911621e-06, 2.205078125) (-8.077678680419922e-06, 2.20703125) (-7.287458419799804e-06, 2.208984375) (-6.4650917053222656e-06, 2.2109375) (-5.615269660949707e-06, 2.212890625) (-4.7428269386291505e-06, 2.21484375) (-3.852636337280273e-06, 2.216796875) (-2.9497580528259274e-06, 2.21875) (-2.039448022842407e-06, 2.220703125) (-1.1279672384262086e-06, 2.22265625) (-2.227092385292053e-07, 2.224609375) (6.691833734512329e-07, 2.2265625) (1.5411505699157715e-06, 2.228515625) (2.3868398666381836e-06, 2.23046875) (3.200007438659668e-06, 2.232421875) (3.974342584609985e-06, 2.234375) (4.703662395477295e-06, 2.236328125) (5.383316993713379e-06, 2.23828125) (6.010375022888183e-06, 2.240234375) (6.582261085510253e-06, 2.2421875) (7.096263885498046e-06, 2.244140625) (7.548738002777099e-06, 2.24609375) (7.935656070709229e-06, 2.248046875) (8.253604888916015e-06, 2.25) (8.499319076538086e-06, 2.251953125) (8.66948890686035e-06, 2.25390625) (8.760541915893554e-06, 2.255859375) (8.768537521362305e-06, 2.2578125) (8.690347671508788e-06, 2.259765625) (8.526723861694336e-06, 2.26171875) (8.281051635742187e-06, 2.263671875) (7.955663681030273e-06, 2.265625) (7.55228042602539e-06, 2.267578125) (7.06854248046875e-06, 2.26953125) (6.498628616333007e-06, 2.271484375) (5.8406276702880855e-06, 2.2734375) (5.095164775848389e-06, 2.275390625) (4.2626175880432126e-06, 2.27734375) (3.3449578285217283e-06, 2.279296875) (2.348264694213867e-06, 2.28125) (1.2842326164245605e-06, 2.283203125) (1.7506274580955503e-07, 2.28515625) (-9.480043053627013e-07, 2.287109375) (-2.0569114685058593e-06, 2.2890625) (-3.128314971923828e-06, 2.291015625) (-4.146286487579345e-06, 2.29296875) (-5.100374221801757e-06, 2.294921875) (-5.9750328063964844e-06, 2.296875) (-6.753208160400391e-06, 2.298828125) (-7.416610717773437e-06, 2.30078125) (-7.948089599609374e-06, 2.302734375) (-8.339932441711426e-06, 2.3046875) (-8.587163925170898e-06, 2.306640625) (-8.67937660217285e-06, 2.30859375) (-8.609716415405273e-06, 2.310546875) (-8.393877029418945e-06, 2.3125) (-8.071569442749023e-06, 2.314453125) (-7.706697940826415e-06, 2.31640625) (-7.381586074829101e-06, 2.318359375) (-7.157776832580566e-06, 2.3203125) (-7.073887825012207e-06, 2.322265625) (-7.172150611877441e-06, 2.32421875) (-7.498363018035888e-06, 2.326171875) (-8.103250503540039e-06, 2.328125) (-9.047313690185547e-06, 2.330078125) (-1.0380380630493164e-05, 2.33203125) (-1.2111687660217285e-05, 2.333984375) (-1.4268722534179686e-05, 2.3359375) (-1.691524314880371e-05, 2.337890625) (-2.0056467056274413e-05, 2.33984375) (-2.3636358261108397e-05, 2.341796875) (-2.746827697753906e-05, 2.34375) (-3.11774787902832e-05, 2.345703125) (-3.4371788024902344e-05, 2.34765625) (-3.673422622680664e-05, 2.349609375) (-3.793161392211914e-05, 2.3515625) (-3.767076873779297e-05, 2.353515625) (-3.588470458984375e-05, 2.35546875) (-3.265669250488281e-05, 2.357421875) (-2.8417699813842772e-05, 2.359375) (-2.405242919921875e-05, 2.361328125) (-2.0395727157592773e-05, 2.36328125) (-1.8142295837402342e-05, 2.365234375) (-1.7936487197875975e-05, 2.3671875) (-2.005951690673828e-05, 2.369140625) (-2.4221988677978513e-05, 2.37109375) (-2.9768356323242187e-05, 2.373046875) (-3.53306884765625e-05, 2.375) (-3.877113342285156e-05, 2.376953125) (-3.800712203979492e-05, 2.37890625) (-3.104042053222656e-05, 2.380859375) (-1.601793098449707e-05, 2.3828125) (8.106432914733887e-06, 2.384765625) (4.14107551574707e-05, 2.38671875) (8.322586059570312e-05, 2.388671875) (0.00013165562438964844, 2.390625) (0.00018358897399902343, 2.392578125) (0.00023549081420898437, 2.39453125) (0.00028338018798828126, 2.396484375) (0.0003231566467285156, 2.3984375) (0.0003514533996582031, 2.400390625) (0.00036578515625, 2.40234375) (0.0003644704895019531, 2.404296875) (0.0003471502990722656, 2.40625) (0.00031484643554687496, 2.408203125) (0.0002697027587890625, 2.41015625) (0.00021506918334960936, 2.412109375) (0.00015499124145507812, 2.4140625) (9.350593566894531e-05, 2.416015625) (3.439363098144531e-05, 2.41796875) (-1.889902877807617e-05, 2.419921875) (-6.346538925170898e-05, 2.421875) (-9.716598510742187e-05, 2.423828125) (-0.00011905717468261718, 2.42578125) (-0.00012949252319335936, 2.427734375) (-0.0001297238311767578, 2.4296875) (-0.00012157435607910156, 2.431640625) (-0.00010694734954833984, 2.43359375) (-8.771580505371093e-05, 2.435546875) (-6.616342163085937e-05, 2.4375) (-4.466201019287109e-05, 2.439453125) (-2.4968000411987304e-05, 2.44140625) (-8.242803573608398e-06, 2.443359375) (5.010505199432373e-06, 2.4453125) (1.4914581298828124e-05, 2.447265625) (2.147990798950195e-05, 2.44921875) (2.4574428558349607e-05, 2.451171875) (2.4743051528930662e-05, 2.453125) (2.2923233032226562e-05, 2.455078125) (2.0006563186645507e-05, 2.45703125) (1.697818374633789e-05, 2.458984375) (1.4368767738342284e-05, 2.4609375) (1.2215538024902343e-05, 2.462890625) (1.078333568572998e-05, 2.46484375) (1.0504645347595214e-05, 2.466796875) (1.1407840728759765e-05, 2.46875) (1.3288503646850586e-05, 2.470703125) (1.5761421203613282e-05, 2.47265625) (1.815378952026367e-05, 2.474609375) (2.0127613067626954e-05, 2.4765625) (2.168528938293457e-05, 2.478515625) (2.2737934112548826e-05, 2.48046875) (2.318448448181152e-05, 2.482421875) (2.303053283691406e-05, 2.484375) (2.2322002410888672e-05, 2.486328125) (2.125582504272461e-05, 2.48828125) (2.0197227478027344e-05, 2.490234375) (1.9344989776611328e-05, 2.4921875) (1.874369239807129e-05, 2.494140625) (1.8422950744628906e-05, 2.49609375) (1.8354351043701172e-05, 2.498046875) (1.8526573181152344e-05, 2.5) (1.895808982849121e-05, 2.501953125) (1.9609272003173828e-05, 2.50390625) (2.0397220611572265e-05, 2.505859375) (2.126729393005371e-05, 2.5078125) (2.2185983657836914e-05, 2.509765625) (2.3134513854980467e-05, 2.51171875) (2.4118778228759764e-05, 2.513671875) (2.51224308013916e-05, 2.515625) (2.6107801437377928e-05, 2.517578125) (2.7048023223876953e-05, 2.51953125) (2.7920787811279297e-05, 2.521484375) (2.8715457916259763e-05, 2.5234375) (2.9434490203857422e-05, 2.525390625) (3.008113098144531e-05, 2.52734375) (3.066024017333984e-05, 2.529296875) (3.118037414550781e-05, 2.53125) (3.165348815917969e-05, 2.533203125) (3.209202194213867e-05, 2.53515625) (3.2507423400878904e-05, 2.537109375) (3.290872192382812e-05, 2.5390625) (3.330292510986328e-05, 2.541015625) (3.369721221923828e-05, 2.54296875) (3.409850311279297e-05, 2.544921875) (3.4516960144042966e-05, 2.546875) (3.496479797363281e-05, 2.548828125) (3.545318603515625e-05, 2.55078125) (3.599378967285156e-05, 2.552734375) (3.6595985412597655e-05, 2.5546875) (3.726659393310547e-05, 2.556640625) (3.8011474609375e-05, 2.55859375) (3.883486938476562e-05, 2.560546875) (3.973929977416992e-05, 2.5625) (4.0726318359375e-05, 2.564453125) (4.179803466796875e-05, 2.56640625) (4.295687103271484e-05, 2.568359375) (4.420542907714843e-05, 2.5703125) (4.554632949829101e-05, 2.572265625) (4.698133850097656e-05, 2.57421875) (4.851161193847656e-05, 2.576171875) (5.01376724243164e-05, 2.578125) (5.185921478271484e-05, 2.580078125) (5.367440795898437e-05, 2.58203125) (5.557984161376953e-05, 2.583984375) (5.757106781005859e-05, 2.5859375) (5.9642765045166014e-05, 2.587890625) (6.17890968322754e-05, 2.58984375) (6.400364685058593e-05, 2.591796875) (6.627922058105469e-05, 2.59375) (6.86077880859375e-05, 2.595703125) (7.098068237304688e-05, 2.59765625) (7.33886489868164e-05, 2.599609375) (7.58219985961914e-05, 2.6015625) (7.827056884765624e-05, 2.603515625) (8.072367858886718e-05, 2.60546875) (8.317021179199218e-05, 2.607421875) (8.559858703613281e-05, 2.609375) (8.799700927734375e-05, 2.611328125) (9.03535919189453e-05, 2.61328125) (9.26563720703125e-05, 2.615234375) (9.48931884765625e-05, 2.6171875) (9.70518798828125e-05, 2.619140625) (9.912020874023437e-05, 2.62109375) (0.0001010861358642578, 2.623046875) (0.00010293792724609374, 2.625) (0.00010466420745849609, 2.626953125) (0.0001062538604736328, 2.62890625) (0.00010769619750976562, 2.630859375) (0.00010898106384277343, 2.6328125) (0.00011009892272949218, 2.634765625) (0.00011104090881347656, 2.63671875) (0.00011179891204833984, 2.638671875) (0.00011236548614501953, 2.640625) (0.00011273401641845703, 2.642578125) (0.00011289889526367187, 2.64453125) (0.0001128556137084961, 2.646484375) (0.00011260069274902343, 2.6484375) (0.00011213182067871093, 2.650390625) (0.00011144776916503905, 2.65234375) (0.00011054842376708985, 2.654296875) (0.00010943476867675781, 2.65625) (0.0001081090087890625, 2.658203125) (0.0001065742950439453, 2.66015625) (0.00010483481597900391, 2.662109375) (0.00010289561462402344, 2.6640625) (0.00010076268005371093, 2.666015625) (9.844279479980468e-05, 2.66796875) (9.594365692138671e-05, 2.669921875) (9.327372741699219e-05, 2.671875) (9.044229125976563e-05, 2.673828125) (8.74593048095703e-05, 2.67578125) (8.433549499511719e-05, 2.677734375) (8.10822296142578e-05, 2.6796875) (7.771150970458984e-05, 2.681640625) (7.423588562011718e-05, 2.68359375) (7.066836547851562e-05, 2.685546875) (6.70223159790039e-05, 2.6875) (6.331139373779297e-05, 2.689453125) (5.9549438476562495e-05, 2.69140625) (5.575042343139648e-05, 2.693359375) (5.1928337097167964e-05, 2.6953125) (4.809712219238281e-05, 2.697265625) (4.4270629882812495e-05, 2.69921875) (4.046254730224609e-05, 2.701171875) (3.6686279296874996e-05, 2.703125) (3.295489120483398e-05, 2.705078125) (2.928098678588867e-05, 2.70703125) (2.5676599502563477e-05, 2.708984375) (2.2153120040893552e-05, 2.7109375) (1.8721202850341795e-05, 2.712890625) (1.539069366455078e-05, 2.71484375) (1.2170551300048827e-05, 2.716796875) (9.068850517272948e-06, 2.71875) (6.09276008605957e-06, 2.720703125) (3.248579263687134e-06, 2.72265625) (5.41739821434021e-07, 2.724609375) (-2.0231969356536866e-06, 2.7265625) (-4.442540168762207e-06, 2.728515625) (-6.713462352752685e-06, 2.73046875) (-8.834011077880858e-06, 2.732421875) (-1.0803128242492675e-05, 2.734375) (-1.262067985534668e-05, 2.736328125) (-1.4287473678588866e-05, 2.73828125) (-1.580527877807617e-05, 2.740234375) (-1.7176774978637693e-05, 2.7421875) (-1.840554428100586e-05, 2.744140625) (-1.9496009826660154e-05, 2.74609375) (-2.0453397750854492e-05, 2.748046875) (-2.1283679962158203e-05, 2.75) (-2.199350547790527e-05, 2.751953125) (-2.2590126037597655e-05, 2.75390625) (-2.308135414123535e-05, 2.755859375) (-2.3475496292114255e-05, 2.7578125) (-2.3781299591064452e-05, 2.759765625) (-2.400788688659668e-05, 2.76171875) (-2.4164703369140625e-05, 2.763671875) (-2.426137542724609e-05, 2.765625) (-2.43076171875e-05, 2.767578125) (-2.431313705444336e-05, 2.76953125) (-2.428749084472656e-05, 2.771484375) (-2.424003219604492e-05, 2.7734375) (-2.4179828643798828e-05, 2.775390625) (-2.4115550994873044e-05, 2.77734375) (-2.4055425643920896e-05, 2.779296875) (-2.4007246017456053e-05, 2.78125) (-2.3978328704833985e-05, 2.783203125) (-2.3975547790527342e-05, 2.78515625) (-2.4005352020263672e-05, 2.787109375) (-2.407365036010742e-05, 2.7890625) (-2.4185789108276365e-05, 2.791015625) (-2.4346580505371092e-05, 2.79296875) (-2.4560216903686522e-05, 2.794921875) (-2.4830230712890623e-05, 2.796875) (-2.5159523010253905e-05, 2.798828125) (-2.5550228118896485e-05, 2.80078125) (-2.6003749847412107e-05, 2.802734375) (-2.6520805358886717e-05, 2.8046875) (-2.7101388931274414e-05, 2.806640625) (-2.7744762420654297e-05, 2.80859375) (-2.8449542999267578e-05, 2.810546875) (-2.9213653564453123e-05, 2.8125) (-3.003432273864746e-05, 2.814453125) (-3.090818405151367e-05, 2.81640625) (-3.1831207275390625e-05, 2.818359375) (-3.2798736572265624e-05, 2.8203125) (-3.380562591552734e-05, 2.822265625) (-3.4846237182617186e-05, 2.82421875) (-3.591445159912109e-05, 2.826171875) (-3.700394821166992e-05, 2.828125) (-3.810819244384766e-05, 2.830078125) (-3.9220565795898435e-05, 2.83203125) (-4.033456420898437e-05, 2.833984375) (-4.1443710327148436e-05, 2.8359375) (-4.2541580200195314e-05, 2.837890625) (-4.362204360961914e-05, 2.83984375) (-4.467919921875e-05, 2.841796875) (-4.5707244873046876e-05, 2.84375) (-4.67006721496582e-05, 2.845703125) (-4.765410995483398e-05, 2.84765625) (-4.856225204467773e-05, 2.849609375) (-4.9420288085937495e-05, 2.8515625) (-5.022386169433594e-05, 2.853515625) (-5.096887588500976e-05, 2.85546875) (-5.165179443359375e-05, 2.857421875) (-5.2269638061523434e-05, 2.859375) (-5.281980895996093e-05, 2.861328125) (-5.330039596557617e-05, 2.86328125) (-5.3710048675537104e-05, 2.865234375) (-5.404774475097656e-05, 2.8671875) (-5.4313026428222654e-05, 2.869140625) (-5.4506072998046873e-05, 2.87109375) (-5.462745666503906e-05, 2.873046875) (-5.467848205566406e-05, 2.875) (-5.466112899780273e-05, 2.876953125) (-5.4577804565429684e-05, 2.87890625) (-5.443179321289062e-05, 2.880859375) (-5.422720336914062e-05, 2.8828125) (-5.3968620300292965e-05, 2.884765625) (-5.3661422729492185e-05, 2.88671875) (-5.331159591674805e-05, 2.888671875) (-5.292521286010742e-05, 2.890625) (-5.250876617431641e-05, 2.892578125) (-5.206909942626953e-05, 2.89453125) (-5.161283874511718e-05, 2.896484375) (-5.1146854400634764e-05, 2.8984375) (-5.067830657958984e-05, 2.900390625) (-5.021379470825195e-05, 2.90234375) (-4.975997924804687e-05, 2.904296875) (-4.9324325561523436e-05, 2.90625) (-4.891443634033203e-05, 2.908203125) (-4.8538539886474606e-05, 2.91015625) (-4.820571899414062e-05, 2.912109375) (-4.792436981201172e-05, 2.9140625) (-4.770238494873047e-05, 2.916015625) (-4.75481948852539e-05, 2.91796875) (-4.7469715118408204e-05, 2.919921875) (-4.747373580932617e-05, 2.921875) (-4.756637954711914e-05, 2.923828125) (-4.7751571655273435e-05, 2.92578125) (-4.803160095214844e-05, 2.927734375) (-4.840948486328125e-05, 2.9296875) (-4.8888481140136715e-05, 2.931640625) (-4.947169494628906e-05, 2.93359375) (-5.016217041015625e-05, 2.935546875) (-5.096130752563476e-05, 2.9375) (-5.1868907928466796e-05, 2.939453125) (-5.288518524169922e-05, 2.94140625) (-5.4009479522705076e-05, 2.943359375) (-5.5238899230957026e-05, 2.9453125) (-5.65698013305664e-05, 2.947265625) (-5.799515533447265e-05, 2.94921875) (-5.9505126953124994e-05, 2.951171875) (-6.109316253662109e-05, 2.953125) (-6.27551498413086e-05, 2.955078125) (-6.449007415771484e-05, 2.95703125) (-6.630178833007812e-05, 2.958984375) (-6.819213104248047e-05, 2.9609375) (-7.015721130371094e-05, 2.962890625) (-7.219198608398438e-05, 2.96484375) (-7.429110717773438e-05, 2.966796875) (-7.644510650634765e-05, 2.96875) (-7.864314270019531e-05, 2.970703125) (-8.086772155761719e-05, 2.97265625) (-8.309063720703125e-05, 2.974609375) (-8.528646087646484e-05, 2.9765625) (-8.743318939208984e-05, 2.978515625) (-8.951107788085937e-05, 2.98046875) (-9.150729370117187e-05, 2.982421875) (-9.34043731689453e-05, 2.984375) (-9.517593383789062e-05, 2.986328125) (-9.679289245605469e-05, 2.98828125) (-9.822254180908202e-05, 2.990234375) (-9.943301391601562e-05, 2.9921875) (-0.00010040953063964843, 2.994140625) (-0.00010115177154541016, 2.99609375) (-0.00010165635681152343, 2.998046875) (-0.00010193228149414062, 3.0) (-0.00010199404907226562, 3.001953125) (-0.00010185575103759765, 3.00390625) (-0.0001015691680908203, 3.005859375) (-0.00010120407104492187, 3.0078125) (-0.00010082437133789062, 3.009765625) (-0.00010050050354003905, 3.01171875) (-0.0001002941665649414, 3.013671875) (-0.0001002494659423828, 3.015625) (-0.00010045140075683594, 3.017578125) (-0.00010103630065917968, 3.01953125) (-0.00010207080841064453, 3.021484375) (-0.00010354262542724609, 3.0234375) (-0.00010533602905273438, 3.025390625) (-0.00010716995239257812, 3.02734375) (-0.00010878654479980469, 3.029296875) (-0.00011002745056152343, 3.03125) (-0.00011066480255126952, 3.033203125) (-0.0001103974609375, 3.03515625) (-0.00010907610321044922, 3.037109375) (-0.00010674090576171875, 3.0390625) (-0.00010374454498291015, 3.041015625) (-0.00010090879821777343, 3.04296875) (-9.902301025390625e-05, 3.044921875) (-9.858663940429686e-05, 3.046875) (-0.00010008733367919921, 3.048828125) (-0.00010394891357421875, 3.05078125) (-0.00011022624206542968, 3.052734375) (-0.00011853679656982421, 3.0546875) (-0.00012784156799316407, 3.056640625) (-0.00013619970703125, 3.05859375) (-0.00014149676513671876, 3.060546875) (-0.00014188320922851563, 3.0625) (-0.00013549708557128906, 3.064453125) (-0.00012062692260742186, 3.06640625) (-9.610360717773437e-05, 3.068359375) (-6.152588272094726e-05, 3.0703125) (-1.7560611724853516e-05, 3.072265625) (3.36824951171875e-05, 3.07421875) (8.933297729492187e-05, 3.076171875) (0.00014625382995605467, 3.078125) (0.00020049928283691405, 3.080078125) (0.0002476569519042969, 3.08203125) (0.0002837163391113281, 3.083984375) (0.0003050753173828125, 3.0859375) (0.0003099975280761719, 3.087890625) (0.00029929281616210935, 3.08984375) (0.0002729806823730469, 3.091796875) (0.0002312718811035156, 3.09375) (0.00017454623413085937, 3.095703125) (0.00010197279357910155, 3.09765625) (1.8907787322998047e-05, 3.099609375) (-6.483914184570312e-05, 3.1015625) (-0.00013944664001464842, 3.103515625) (-0.00019360910034179688, 3.10546875) (-0.00022438485717773436, 3.107421875) (-0.00023700955200195312, 3.109375) (-0.00023662127685546874, 3.111328125) (-0.00023002235412597656, 3.11328125) (-0.00021961734008789062, 3.115234375) (-0.00020271151733398436, 3.1171875) (-0.00017930892944335937, 3.119140625) (-0.00015044305419921873, 3.12109375) (-0.00011870355987548827, 3.123046875) (-8.862640380859374e-05, 3.125) (-6.27138671875e-05, 3.126953125) (-4.2210880279541016e-05, 3.12890625) (-2.8004058837890623e-05, 3.130859375) (-1.979358673095703e-05, 3.1328125) (-1.694396209716797e-05, 3.134765625) (-1.864571189880371e-05, 3.13671875) (-2.3488758087158202e-05, 3.138671875) (-3.021630859375e-05, 3.140625) (-3.7791801452636717e-05, 3.142578125) (-4.49206314086914e-05, 3.14453125) (-5.053708648681641e-05, 3.146484375) (-5.4107494354248044e-05, 3.1484375) (-5.5393367767333984e-05, 3.150390625) (-5.457982635498047e-05, 3.15234375) (-5.222843170166015e-05, 3.154296875) (-4.875537109375e-05, 3.15625) (-4.4621086120605464e-05, 3.158203125) (-4.0548770904541014e-05, 3.16015625) (-3.705460357666016e-05, 3.162109375) (-3.4407691955566404e-05, 3.1640625) (-3.2748703002929686e-05, 3.166015625) (-3.1951368331909176e-05, 3.16796875) (-3.176585006713867e-05, 3.169921875) (-3.203168487548828e-05, 3.171875) (-3.253165435791015e-05, 3.173828125) (-3.297137832641601e-05, 3.17578125) (-3.318744659423828e-05, 3.177734375) (-3.308034515380859e-05, 3.1796875) (-3.260285186767578e-05, 3.181640625) (-3.1805795669555665e-05, 3.18359375) (-3.0733741760253906e-05, 3.185546875) (-2.9431835174560545e-05, 3.1875) (-2.796877670288086e-05, 3.189453125) (-2.6405326843261717e-05, 3.19140625) (-2.477856636047363e-05, 3.193359375) (-2.3114276885986326e-05, 3.1953125) (-2.1426177978515624e-05, 3.197265625) (-1.9724071502685547e-05, 3.19921875) (-1.8034664154052735e-05, 3.201171875) (-1.6373229980468748e-05, 3.203125) (-1.4748369216918945e-05, 3.205078125) (-1.316701316833496e-05, 3.20703125) (-1.1624043464660643e-05, 3.208984375) (-1.0123251914978027e-05, 3.2109375) (-8.667448043823242e-06, 3.212890625) (-7.2547807693481445e-06, 3.21484375) (-5.882932662963867e-06, 3.216796875) (-4.5357465744018555e-06, 3.21875) (-3.1977536678314207e-06, 3.220703125) (-1.862907290458679e-06, 3.22265625) (-5.25445818901062e-07, 3.224609375) (8.21721076965332e-07, 3.2265625) (2.1859524250030515e-06, 3.228515625) (3.581846237182617e-06, 3.23046875) (5.026211738586426e-06, 3.232421875) (6.524219989776611e-06, 3.234375) (8.081171035766602e-06, 3.236328125) (9.704371452331542e-06, 3.23828125) (1.1397168159484863e-05, 3.240234375) (1.316680908203125e-05, 3.2421875) (1.5019454956054687e-05, 3.244140625) (1.695625114440918e-05, 3.24609375) (1.897855758666992e-05, 3.248046875) (2.1087692260742186e-05, 3.25) (2.328464126586914e-05, 3.251953125) (2.557204246520996e-05, 3.25390625) (2.7952510833740233e-05, 3.255859375) (3.042618179321289e-05, 3.2578125) (3.299277877807617e-05, 3.259765625) (3.565108108520507e-05, 3.26171875) (3.839853286743164e-05, 3.263671875) (4.1233905792236325e-05, 3.265625) (4.415478897094726e-05, 3.267578125) (4.7156620025634764e-05, 3.26953125) (5.023451232910156e-05, 3.271484375) (5.3382621765136717e-05, 3.2734375) (5.659424209594726e-05, 3.275390625) (5.9862892150878906e-05, 3.27734375) (6.31812515258789e-05, 3.279296875) (6.654010772705077e-05, 3.28125) (6.99296646118164e-05, 3.283203125) (7.333977508544922e-05, 3.28515625) (7.675942230224608e-05, 3.287109375) (8.017745971679687e-05, 3.2890625) (8.358232116699218e-05, 3.291015625) (8.696153259277343e-05, 3.29296875) (9.030241394042968e-05, 3.294921875) (9.359243774414063e-05, 3.296875) (9.681883239746093e-05, 3.298828125) (9.996871948242187e-05, 3.30078125) (0.00010302926635742187, 3.302734375) (0.00010598744201660156, 3.3046875) (0.00010883039093017578, 3.306640625) (0.00011154567718505859, 3.30859375) (0.00011412111663818358, 3.310546875) (0.0001165447540283203, 3.3125) (0.00011880511474609374, 3.314453125) (0.00012089112854003905, 3.31640625) (0.00012279235076904297, 3.318359375) (0.00012449908447265625, 3.3203125) (0.00012600228881835937, 3.322265625) (0.00012729360961914063, 3.32421875) (0.00012836553955078125, 3.326171875) (0.00012921148681640623, 3.328125) (0.00012982586669921874, 3.330078125) (0.00013020434570312498, 3.33203125) (0.0001303436279296875, 3.333984375) (0.0001302416076660156, 3.3359375) (0.00012989739990234374, 3.337890625) (0.00012931132507324218, 3.33984375) (0.0001284850616455078, 3.341796875) (0.00012742172241210937, 3.34375) (0.00012612567138671875, 3.345703125) (0.00012460238647460937, 3.34765625) (0.00012285858154296875, 3.349609375) (0.00012090208435058593, 3.3515625) (0.0001187417755126953, 3.353515625) (0.00011638766479492187, 3.35546875) (0.00011385071563720702, 3.357421875) (0.00011114263916015624, 3.359375) (0.00010827601623535156, 3.361328125) (0.00010526421356201172, 3.36328125) (0.0001021212158203125, 3.365234375) (9.886163330078124e-05, 3.3671875) (9.550064849853515e-05, 3.369140625) (9.205375671386718e-05, 3.37109375) (8.853688812255859e-05, 3.373046875) (8.496617126464843e-05, 3.375) (8.135797119140624e-05, 3.376953125) (7.772882080078125e-05, 3.37890625) (7.40952911376953e-05, 3.380859375) (7.047395324707031e-05, 3.3828125) (6.688129425048827e-05, 3.384765625) (6.33336067199707e-05, 3.38671875) (5.984687042236328e-05, 3.388671875) (5.643667221069336e-05, 3.390625) (5.311805725097656e-05, 3.392578125) (4.990538787841797e-05, 3.39453125) (4.681229782104492e-05, 3.396484375) (4.3851493835449215e-05, 3.3984375) (4.103473663330078e-05, 3.400390625) (3.837271118164062e-05, 3.40234375) (3.587503814697265e-05, 3.404296875) (3.355013275146484e-05, 3.40625) (3.140521621704101e-05, 3.408203125) (2.9446298599243163e-05, 3.41015625) (2.7678119659423827e-05, 3.412109375) (2.6104156494140623e-05, 3.4140625) (2.4726650238037107e-05, 3.416015625) (2.3546586990356445e-05, 3.41796875) (2.2563747406005857e-05, 3.419921875) (2.1776727676391602e-05, 3.421875) (2.11829776763916e-05, 3.423828125) (2.0778865814208983e-05, 3.42578125) (2.055976104736328e-05, 3.427734375) (2.052004814147949e-05, 3.4296875) (2.0653207778930665e-05, 3.431640625) (2.0951841354370115e-05, 3.43359375) (2.1407699584960935e-05, 3.435546875) (2.2011747360229492e-05, 3.4375) (2.2754217147827147e-05, 3.439453125) (2.3624633789062498e-05, 3.44140625) (2.4611865997314453e-05, 3.443359375) (2.570423126220703e-05, 3.4453125) (2.6889545440673828e-05, 3.447265625) (2.8155284881591794e-05, 3.44921875) (2.948872375488281e-05, 3.451171875) (3.0876977920532225e-05, 3.453125) (3.230715942382812e-05, 3.455078125) (3.376647186279297e-05, 3.45703125) (3.524231719970703e-05, 3.458984375) (3.672239303588867e-05, 3.4609375) (3.8194801330566403e-05, 3.462890625) (3.964809036254883e-05, 3.46484375) (4.107129669189453e-05, 3.466796875) (4.245410919189453e-05, 3.46875) (4.378691101074218e-05, 3.470703125) (4.506088638305664e-05, 3.47265625) (4.626810455322265e-05, 3.474609375) (4.740145874023437e-05, 3.4765625) (4.845473480224609e-05, 3.478515625) (4.942264938354492e-05, 3.48046875) (5.030078887939453e-05, 3.482421875) (5.108561706542969e-05, 3.484375) (5.1774478912353516e-05, 3.486328125) (5.236543655395508e-05, 3.48828125) (5.28572998046875e-05, 3.490234375) (5.3249691009521485e-05, 3.4921875) (5.354296112060547e-05, 3.494140625) (5.3738235473632813e-05, 3.49609375) (5.383750915527344e-05, 3.498046875) (5.384343719482421e-05, 3.5) (5.37593994140625e-05, 3.501953125) (5.358957290649414e-05, 3.50390625) (5.333881378173828e-05, 3.505859375) (5.3012577056884766e-05, 3.5078125) (5.261686706542969e-05, 3.509765625) (5.2158027648925776e-05, 3.51171875) (5.164261245727539e-05, 3.513671875) (5.107755661010742e-05, 3.515625) (5.0470016479492185e-05, 3.517578125) (4.982726669311523e-05, 3.51953125) (4.915667724609375e-05, 3.521484375) (4.846560287475586e-05, 3.5234375) (4.776138687133789e-05, 3.525390625) (4.705145645141601e-05, 3.52734375) (4.634324264526367e-05, 3.529296875) (4.5643905639648435e-05, 3.53125) (4.4960250854492184e-05, 3.533203125) (4.4298545837402345e-05, 3.53515625) (4.366450881958008e-05, 3.537109375) (4.306352996826172e-05, 3.5390625) (4.250049591064453e-05, 3.541015625) (4.197968292236328e-05, 3.54296875) (4.150490951538086e-05, 3.544921875) (4.1079467773437495e-05, 3.546875) (4.070619201660156e-05, 3.548828125) (4.038783264160156e-05, 3.55078125) (4.0126850128173825e-05, 3.552734375) (3.9925102233886716e-05, 3.5546875) (3.978403091430664e-05, 3.556640625) (3.970448303222656e-05, 3.55859375) (3.968656921386719e-05, 3.560546875) (3.9730194091796875e-05, 3.5625) (3.9834804534912105e-05, 3.564453125) (3.9998912811279294e-05, 3.56640625) (4.022043991088867e-05, 3.568359375) (4.049683380126953e-05, 3.5703125) (4.082502365112304e-05, 3.572265625) (4.120193481445312e-05, 3.57421875) (4.1624412536621095e-05, 3.576171875) (4.2088554382324214e-05, 3.578125) (4.2589862823486325e-05, 3.580078125) (4.312370681762695e-05, 3.58203125) (4.368520355224609e-05, 3.583984375) (4.426923370361328e-05, 3.5859375) (4.4870365142822265e-05, 3.587890625) (4.548186492919922e-05, 3.58984375) (4.609591293334961e-05, 3.591796875) (4.67047004699707e-05, 3.59375) (4.7300407409667964e-05, 3.595703125) (4.787518310546875e-05, 3.59765625) (4.842126083374023e-05, 3.599609375) (4.893055725097656e-05, 3.6015625) (4.939515686035156e-05, 3.603515625) (4.980872344970703e-05, 3.60546875) (5.01659927368164e-05, 3.607421875) (5.046195220947265e-05, 3.609375) (5.069186782836914e-05, 3.611328125) (5.0849761962890624e-05, 3.61328125) (5.09288101196289e-05, 3.615234375) (5.092277526855469e-05, 3.6171875) (5.0824951171875e-05, 3.619140625) (5.062836074829101e-05, 3.62109375) (5.0326873779296875e-05, 3.623046875) (4.991376876831055e-05, 3.625) (4.938256072998047e-05, 3.626953125) (4.873106002807617e-05, 3.62890625) (4.795969772338867e-05, 3.630859375) (4.7067916870117184e-05, 3.6328125) (4.6055480957031246e-05, 3.634765625) (4.491773223876953e-05, 3.63671875) (4.3644996643066406e-05, 3.638671875) (4.223121643066406e-05, 3.640625) (4.067207336425781e-05, 3.642578125) (3.896236419677734e-05, 3.64453125) (3.7099281311035154e-05, 3.646484375) (3.5083618164062496e-05, 3.6484375) (3.2921321868896484e-05, 3.650390625) (3.062949752807617e-05, 3.65234375) (2.8234073638916014e-05, 3.654296875) (2.5758758544921875e-05, 3.65625) (2.3226013183593747e-05, 3.658203125) (2.0651268005371093e-05, 3.66015625) (1.8042350769042966e-05, 3.662109375) (1.5413543701171873e-05, 3.6640625) (1.2778894424438477e-05, 3.666015625) (1.0153482437133788e-05, 3.66796875) (7.5584397315979e-06, 3.669921875) (5.006266117095947e-06, 3.671875) (2.504279613494873e-06, 3.673828125) (6.760454177856445e-08, 3.67578125) (-2.290035247802734e-06, 3.677734375) (-4.58084774017334e-06, 3.6796875) (-6.839813232421875e-06, 3.681640625) (-9.124002456665038e-06, 3.68359375) (-1.1517000198364257e-05, 3.685546875) (-1.4080558776855468e-05, 3.6875) (-1.6852230072021483e-05, 3.689453125) (-1.9883195877075196e-05, 3.69140625) (-2.3229686737060546e-05, 3.693359375) (-2.6938137054443358e-05, 3.6953125) (-3.105038070678711e-05, 3.697265625) (-3.5600189208984375e-05, 3.69921875) (-4.0588573455810546e-05, 3.701171875) (-4.606130981445312e-05, 3.703125) (-5.2122825622558595e-05, 3.705078125) (-5.877745056152344e-05, 3.70703125) (-6.594129943847656e-05, 3.708984375) (-7.344023895263672e-05, 3.7109375) (-8.095125579833984e-05, 3.712890625) (-8.814336395263672e-05, 3.71484375) (-9.47344741821289e-05, 3.716796875) (-0.00010031924438476562, 3.71875) (-0.00010444818115234375, 3.720703125) (-0.00010700990295410156, 3.72265625) (-0.00010815459442138671, 3.724609375) (-0.00010827117919921874, 3.7265625) (-0.0001080246124267578, 3.728515625) (-0.00010816389465332031, 3.73046875) (-0.00010951634979248046, 3.732421875) (-0.00011289576721191406, 3.734375) (-0.00011906596374511718, 3.736328125) (-0.0001272201690673828, 3.73828125) (-0.000134952392578125, 3.740234375) (-0.0001411953887939453, 3.7421875) (-0.00014522293090820312, 3.744140625) (-0.00014744253540039062, 3.74609375) (-0.00015048208618164061, 3.748046875) (-0.00015124559020996092, 3.75) (-0.00014369293212890624, 3.751953125) (-0.00012414540100097655, 3.75390625) (-8.670660400390625e-05, 3.755859375) (-3.318791961669922e-05, 3.7578125) (2.9502796173095703e-05, 3.759765625) (9.975073242187499e-05, 3.76171875) (0.00017072935485839844, 3.763671875) (0.00023620809936523437, 3.765625) (0.0002907181701660156, 3.767578125) (0.00032071560668945313, 3.76953125) (0.0003187070007324219, 3.771484375) (0.000283221923828125, 3.7734375) (0.00021630001831054687, 3.775390625) (0.00012947416687011717, 3.77734375) (3.397127914428711e-05, 3.779296875) (-6.0360572814941406e-05, 3.78125) (-0.00014187928771972654, 3.783203125) (-0.0002038042297363281, 3.78515625) (-0.00024306259155273437, 3.787109375) (-0.00026095367431640623, 3.7890625) (-0.0002656827392578125, 3.791015625) (-0.00026494757080078123, 3.79296875) (-0.0002628493041992187, 3.794921875) (-0.00026000244140625, 3.796875) (-0.00025312382507324216, 3.798828125) (-0.00024039677429199218, 3.80078125) (-0.00022336880493164062, 3.802734375) (-0.00020513534545898437, 3.8046875) (-0.00018923001098632812, 3.806640625) (-0.00017730706787109373, 3.80859375) (-0.00016909461975097656, 3.810546875) (-0.00016375057983398437, 3.8125) (-0.00016018917846679688, 3.814453125) (-0.00015756015014648436, 3.81640625) (-0.00015509869384765625, 3.818359375) (-0.00015187559509277342, 3.8203125) (-0.00014741224670410157, 3.822265625) (-0.00014171762084960938, 3.82421875) (-0.00013501020812988282, 3.826171875) (-0.00012771865844726562, 3.828125) (-0.00012024517059326171, 3.830078125) (-0.00011290652465820312, 3.83203125) (-0.0001061265640258789, 3.833984375) (-0.0001003647232055664, 3.8359375) (-9.587168884277343e-05, 3.837890625) (-9.27014389038086e-05, 3.83984375) (-9.077273559570311e-05, 3.841796875) (-8.987881469726562e-05, 3.84375) (-8.983427429199219e-05, 3.845703125) (-9.04685821533203e-05, 3.84765625) (-9.155086517333983e-05, 3.849609375) (-9.285926818847655e-05, 3.8515625) (-9.4203857421875e-05, 3.853515625) (-9.543772888183594e-05, 3.85546875) (-9.648538208007812e-05, 3.857421875) (-9.730947875976562e-05, 3.859375) (-9.787362670898437e-05, 3.861328125) (-9.814016723632812e-05, 3.86328125) (-9.8072509765625e-05, 3.865234375) (-9.762467956542968e-05, 3.8671875) (-9.675975799560546e-05, 3.869140625) (-9.546237182617186e-05, 3.87109375) (-9.372702026367188e-05, 3.873046875) (-9.157394409179687e-05, 3.875) (-8.904379272460937e-05, 3.876953125) (-8.620053100585937e-05, 3.87890625) (-8.313533020019531e-05, 3.880859375) (-7.993724060058594e-05, 3.8828125) (-7.669074249267578e-05, 3.884765625) (-7.34605712890625e-05, 3.88671875) (-7.028472900390625e-05, 3.888671875) (-6.71883087158203e-05, 3.890625) (-6.418553161621093e-05, 3.892578125) (-6.12835807800293e-05, 3.89453125) (-5.848492050170898e-05, 3.896484375) (-5.5796424865722654e-05, 3.8984375) (-5.322646331787109e-05, 3.900390625) (-5.0781463623046875e-05, 3.90234375) (-4.846865844726562e-05, 3.904296875) (-4.6285301208496094e-05, 3.90625) (-4.422008895874023e-05, 3.908203125) (-4.225110626220703e-05, 3.91015625) (-4.034490966796875e-05, 3.912109375) (-3.846860122680664e-05, 3.9140625) (-3.659119415283203e-05, 3.916015625) (-3.468870544433593e-05, 3.91796875) (-3.2745704650878905e-05, 3.919921875) (-3.0751491546630856e-05, 3.921875) (-2.869990539550781e-05, 3.923828125) (-2.658988380432129e-05, 3.92578125) (-2.4424957275390625e-05, 3.927734375) (-2.2207035064697266e-05, 3.9296875) (-1.9936155319213867e-05, 3.931640625) (-1.7610071182250977e-05, 3.93359375) (-1.5223869323730468e-05, 3.935546875) (-1.27749605178833e-05, 3.9375) (-1.0262967109680175e-05, 3.939453125) (-7.689640045166015e-06, 3.94140625) (-5.059101104736328e-06, 3.943359375) (-2.3758978843688963e-06, 3.9453125) (3.5478395223617554e-07, 3.947265625) (3.1271684169769285e-06, 3.94921875) (5.935473442077637e-06, 3.951171875) (8.774314880371093e-06, 3.953125) (1.163873291015625e-05, 3.955078125) (1.452492904663086e-05, 3.95703125) (1.742999839782715e-05, 3.958984375) (2.03498420715332e-05, 3.9609375) (2.327928924560547e-05, 3.962890625) (2.6211952209472655e-05, 3.96484375) (2.914002227783203e-05, 3.966796875) (3.205528259277344e-05, 3.96875) (3.494902038574219e-05, 3.970703125) (3.78115348815918e-05, 3.97265625) (4.0632423400878905e-05, 3.974609375) (4.340108489990234e-05, 3.9765625) (4.6106918334960934e-05, 3.978515625) (4.873959732055664e-05, 3.98046875) (5.1289005279541015e-05, 3.982421875) (5.3744804382324216e-05, 3.984375) (5.609661102294922e-05, 3.986328125) (5.833420944213867e-05, 3.98828125) (6.0447704315185545e-05, 3.990234375) (6.242764282226562e-05, 3.9921875) (6.426503753662109e-05, 3.994140625) (6.595118713378906e-05, 3.99609375) (6.747784423828124e-05, 3.998046875) (6.88373031616211e-05, 4.0) (7.002250671386718e-05, 4.001953125) (7.10270538330078e-05, 4.00390625) (7.184522247314452e-05, 4.005859375) (7.247187805175781e-05, 4.0078125) (7.29026107788086e-05, 4.009765625) (7.313386535644531e-05, 4.01171875) (7.316294860839843e-05, 4.013671875) (7.298805999755858e-05, 4.015625) (7.260822296142578e-05, 4.017578125) (7.202327728271484e-05, 4.01953125) (7.123377990722656e-05, 4.021484375) (7.024114990234375e-05, 4.0234375) (6.904762268066406e-05, 4.025390625) (6.76563262939453e-05, 4.02734375) (6.607127380371093e-05, 4.029296875) (6.429737854003906e-05, 4.03125) (6.234047317504883e-05, 4.033203125) (6.020735168457031e-05, 4.03515625) (5.7905792236328123e-05, 4.037109375) (5.5444374084472654e-05, 4.0390625) (5.2832485198974604e-05, 4.041015625) (5.0080196380615235e-05, 4.04296875) (4.719818115234375e-05, 4.044921875) (4.4197704315185543e-05, 4.046875) (4.1090541839599604e-05, 4.048828125) (3.788880920410156e-05, 4.05078125) (3.460489654541015e-05, 4.052734375) (3.125141906738281e-05, 4.0546875) (2.784110641479492e-05, 4.056640625) (2.438675308227539e-05, 4.05859375) (2.090115737915039e-05, 4.060546875) (1.7396991729736328e-05, 4.0625) (1.3886793136596678e-05, 4.064453125) (1.0382909774780273e-05, 4.06640625) (6.897438526153564e-06, 4.068359375) (3.4421920776367187e-06, 4.0703125) (2.863951027393341e-08, 4.072265625) (-3.332165241241455e-06, 4.07421875) (-6.6296215057373045e-06, 4.076171875) (-9.85362148284912e-06, 4.078125) (-1.2994617462158202e-05, 4.080078125) (-1.6043645858764648e-05, 4.08203125) (-1.8992355346679687e-05, 4.083984375) (-2.1833045959472657e-05, 4.0859375) (-2.4558700561523436e-05, 4.087890625) (-2.7163009643554686e-05, 4.08984375) (-2.9640434265136716e-05, 4.091796875) (-3.1986244201660157e-05, 4.09375) (-3.419655609130859e-05, 4.095703125) (-3.626839828491211e-05, 4.09765625) (-3.819976806640625e-05, 4.099609375) (-3.998960876464844e-05, 4.1015625) (-4.163787078857422e-05, 4.103515625) (-4.314546966552734e-05, 4.10546875) (-4.451423645019531e-05, 4.107421875) (-4.5746925354003904e-05, 4.109375) (-4.6847076416015626e-05, 4.111328125) (-4.781899261474609e-05, 4.11328125) (-4.8667629241943354e-05, 4.115234375) (-4.9398509979248044e-05, 4.1171875) (-5.0017669677734374e-05, 4.119140625) (-5.0531532287597653e-05, 4.12109375) (-5.094687652587891e-05, 4.123046875) (-5.127075958251953e-05, 4.125) (-5.151046371459961e-05, 4.126953125) (-5.167346572875976e-05, 4.12890625) (-5.1767337799072264e-05, 4.130859375) (-5.1799652099609374e-05, 4.1328125) (-5.177800369262695e-05, 4.134765625) (-5.1709899902343746e-05, 4.13671875) (-5.16027603149414e-05, 4.138671875) (-5.1463844299316406e-05, 4.140625) (-5.13001708984375e-05, 4.142578125) (-5.111848449707031e-05, 4.14453125) (-5.0925251007080075e-05, 4.146484375) (-5.072662353515625e-05, 4.1484375) (-5.052843475341797e-05, 4.150390625) (-5.0336090087890626e-05, 4.15234375) (-5.015454864501953e-05, 4.154296875) (-4.998828125e-05, 4.15625) (-4.9841239929199215e-05, 4.158203125) (-4.9716762542724605e-05, 4.16015625) (-4.961751556396484e-05, 4.162109375) (-4.954543304443359e-05, 4.1640625) (-4.950165557861328e-05, 4.166015625) (-4.948663330078125e-05, 4.16796875) (-4.950006866455078e-05, 4.169921875) (-4.9540931701660155e-05, 4.171875) (-4.96075210571289e-05, 4.173828125) (-4.969749069213867e-05, 4.17578125) (-4.9807899475097655e-05, 4.177734375) (-4.993532562255859e-05, 4.1796875) (-5.0075973510742184e-05, 4.181640625) (-5.022575378417969e-05, 4.18359375) (-5.038030242919922e-05, 4.185546875) (-5.0535072326660154e-05, 4.1875) (-5.0685279846191406e-05, 4.189453125) (-5.082600021362304e-05, 4.19140625) (-5.095235824584961e-05, 4.193359375) (-5.1059555053710934e-05, 4.1953125) (-5.114279174804687e-05, 4.197265625) (-5.1197265625e-05, 4.19921875) (-5.1218212127685544e-05, 4.201171875) (-5.120090103149414e-05, 4.203125) (-5.1140991210937495e-05, 4.205078125) (-5.103450012207031e-05, 4.20703125) (-5.087763214111328e-05, 4.208984375) (-5.066681289672851e-05, 4.2109375) (-5.039875030517578e-05, 4.212890625) (-5.007058334350586e-05, 4.21484375) (-4.9679985046386713e-05, 4.216796875) (-4.922503662109375e-05, 4.21875) (-4.8704135894775386e-05, 4.220703125) (-4.811606979370117e-05, 4.22265625) (-4.746016693115234e-05, 4.224609375) (-4.673639678955078e-05, 4.2265625) (-4.5945480346679683e-05, 4.228515625) (-4.5088623046874997e-05, 4.23046875) (-4.416748809814453e-05, 4.232421875) (-4.3184406280517575e-05, 4.234375) (-4.2142303466796875e-05, 4.236328125) (-4.10447998046875e-05, 4.23828125) (-3.9896224975585937e-05, 4.240234375) (-3.8701404571533204e-05, 4.2421875) (-3.74653205871582e-05, 4.244140625) (-3.619321060180664e-05, 4.24609375) (-3.489058685302734e-05, 4.248046875) (-3.3563068389892576e-05, 4.25) (-3.2216758728027344e-05, 4.251953125) (-3.085810661315918e-05, 4.25390625) (-2.949319839477539e-05, 4.255859375) (-2.8127906799316405e-05, 4.2578125) (-2.6768432617187498e-05, 4.259765625) (-2.5421344757080078e-05, 4.26171875) (-2.4093814849853514e-05, 4.263671875) (-2.279362678527832e-05, 4.265625) (-2.1527950286865232e-05, 4.267578125) (-2.030344009399414e-05, 4.26953125) (-1.912712860107422e-05, 4.271484375) (-1.8006099700927734e-05, 4.2734375) (-1.6946952819824217e-05, 4.275390625) (-1.5955347061157227e-05, 4.27734375) (-1.5035171508789061e-05, 4.279296875) (-1.4189101219177245e-05, 4.28125) (-1.3419960021972656e-05, 4.283203125) (-1.2730260848999022e-05, 4.28515625) (-1.2122344970703125e-05, 4.287109375) (-1.1598247528076171e-05, 4.2890625) (-1.1159294128417967e-05, 4.291015625) (-1.0807761192321777e-05, 4.29296875) (-1.0546426773071288e-05, 4.294921875) (-1.0377127647399902e-05, 4.296875) (-1.0300445556640624e-05, 4.298828125) (-1.0315373420715331e-05, 4.30078125) (-1.0417953491210937e-05, 4.302734375) (-1.060251235961914e-05, 4.3046875) (-1.0864684104919433e-05, 4.306640625) (-1.1199573516845703e-05, 4.30859375) (-1.16043701171875e-05, 4.310546875) (-1.2079442977905274e-05, 4.3125) (-1.2623385429382323e-05, 4.314453125) (-1.3234678268432617e-05, 4.31640625) (-1.3912083625793456e-05, 4.318359375) (-1.4652066230773925e-05, 4.3203125) (-1.544570541381836e-05, 4.322265625) (-1.6277816772460938e-05, 4.32421875) (-1.712601089477539e-05, 4.326171875) (-1.7962989807128904e-05, 4.328125) (-1.876517868041992e-05, 4.330078125) (-1.9509988784790037e-05, 4.33203125) (-2.017804718017578e-05, 4.333984375) (-2.075391960144043e-05, 4.3359375) (-2.1221511840820313e-05, 4.337890625) (-2.1572338104248045e-05, 4.33984375) (-2.179939270019531e-05, 4.341796875) (-2.1891868591308593e-05, 4.34375) (-2.1839595794677732e-05, 4.345703125) (-2.1632513046264647e-05, 4.34765625) (-2.1264518737792967e-05, 4.349609375) (-2.0740619659423828e-05, 4.3515625) (-2.0086635589599608e-05, 4.353515625) (-1.933953857421875e-05, 4.35546875) (-1.854863166809082e-05, 4.357421875) (-1.7777498245239255e-05, 4.359375) (-1.7079412460327147e-05, 4.361328125) (-1.65051155090332e-05, 4.36328125) (-1.611037254333496e-05, 4.365234375) (-1.594631290435791e-05, 4.3671875) (-1.6057243347167967e-05, 4.369140625) (-1.648122787475586e-05, 4.37109375) (-1.7242942810058592e-05, 4.373046875) (-1.8347166061401367e-05, 4.375) (-1.9835077285766602e-05, 4.376953125) (-2.1759033203125e-05, 4.37890625) (-2.4086282730102537e-05, 4.380859375) (-2.6726348876953122e-05, 4.3828125) (-2.9479108810424802e-05, 4.384765625) (-3.2024898529052734e-05, 4.38671875) (-3.40794563293457e-05, 4.388671875) (-3.537930297851562e-05, 4.390625) (-3.558477401733398e-05, 4.392578125) (-3.444105529785156e-05, 4.39453125) (-3.192679214477539e-05, 4.396484375) (-2.814677810668945e-05, 4.3984375) (-2.3557262420654297e-05, 4.400390625) (-1.8908216476440427e-05, 4.40234375) (-1.4805694580078125e-05, 4.404296875) (-1.1930530548095702e-05, 4.40625) (-1.0996862411499023e-05, 4.408203125) (-1.2212493896484375e-05, 4.41015625) (-1.529929161071777e-05, 4.412109375) (-1.968306541442871e-05, 4.4140625) (-2.4107807159423827e-05, 4.416015625) (-2.6843410491943358e-05, 4.41796875) (-2.6255327224731444e-05, 4.419921875) (-2.0224184036254882e-05, 4.421875) (-6.380845546722412e-06, 4.423828125) (1.566543960571289e-05, 4.42578125) (4.451992797851562e-05, 4.427734375) (7.878375244140624e-05, 4.4296875) (0.0001160376968383789, 4.431640625) (0.0001566859130859375, 4.43359375) (0.0002043720245361328, 4.435546875) (0.00025768914794921876, 4.4375) (0.00031206488037109376, 4.439453125) (0.0003575460510253906, 4.44140625) (0.0003786358642578125, 4.443359375) (0.00036874041748046876, 4.4453125) (0.0003275081787109375, 4.447265625) (0.00026089855957031247, 4.44921875) (0.0001824698791503906, 4.451171875) (9.903056335449218e-05, 4.453125) (1.694535255432129e-05, 4.455078125) (-5.6535282135009765e-05, 4.45703125) (-0.00011888885498046874, 4.458984375) (-0.0001629360656738281, 4.4609375) (-0.00018599229431152343, 4.462890625) (-0.00019292874145507811, 4.46484375) (-0.00018670945739746093, 4.466796875) (-0.000173294677734375, 4.46875) (-0.0001564205322265625, 4.470703125) (-0.00013419882202148436, 4.47265625) (-0.0001075630645751953, 4.474609375) (-7.822288513183593e-05, 4.4765625) (-4.8261978149414064e-05, 4.478515625) (-2.1938562393188476e-05, 4.48046875) (-1.741692543029785e-06, 4.482421875) (1.1585273742675781e-05, 4.484375) (1.7926612854003905e-05, 4.486328125) (1.8275279998779296e-05, 4.48828125) (1.4256136894226073e-05, 4.490234375) (7.530806541442871e-06, 4.4921875) (-2.927777767181396e-07, 4.494140625) (-7.673169136047362e-06, 4.49609375) (-1.3517581939697265e-05, 4.498046875) (-1.703879165649414e-05, 4.5) (-1.775287055969238e-05, 4.501953125) (-1.564383316040039e-05, 4.50390625) (-1.1168193817138671e-05, 4.505859375) (-5.077855110168457e-06, 4.5078125) (1.7894949913024902e-06, 4.509765625) (8.574411392211914e-06, 4.51171875) (1.4719898223876953e-05, 4.513671875) (1.9869333267211912e-05, 4.515625) (2.3783447265624997e-05, 4.517578125) (2.6458614349365234e-05, 4.51953125) (2.8017139434814453e-05, 4.521484375) (2.8685871124267577e-05, 4.5234375) (2.8813995361328123e-05, 4.525390625) (2.8781276702880858e-05, 4.52734375) (2.8811126708984375e-05, 4.529296875) (2.901287460327148e-05, 4.53125) (2.9432884216308593e-05, 4.533203125) (3.0032001495361326e-05, 4.53515625) (3.079478073120117e-05, 4.537109375) (3.171651840209961e-05, 4.5390625) (3.274509048461914e-05, 4.541015625) (3.382006454467773e-05, 4.54296875) (3.490671920776367e-05, 4.544921875) (3.599048995971679e-05, 4.546875) (3.708106231689453e-05, 4.548828125) (3.8202934265136714e-05, 4.55078125) (3.93545913696289e-05, 4.552734375) (4.051482391357422e-05, 4.5546875) (4.16553840637207e-05, 4.556640625) (4.2741085052490234e-05, 4.55859375) (4.375485992431641e-05, 4.560546875) (4.469462585449218e-05, 4.5625) (4.555864715576172e-05, 4.564453125) (4.634937667846679e-05, 4.56640625) (4.7068756103515624e-05, 4.568359375) (4.771900177001953e-05, 4.5703125) (4.831239318847656e-05, 4.572265625) (4.886652374267578e-05, 4.57421875) (4.939394378662109e-05, 4.576171875) (4.990353393554687e-05, 4.578125) (5.0401851654052735e-05, 4.580078125) (5.089437484741211e-05, 4.58203125) (5.139303970336914e-05, 4.583984375) (5.1914100646972654e-05, 4.5859375) (5.247365570068359e-05, 4.587890625) (5.308802413940429e-05, 4.58984375) (5.3769683837890624e-05, 4.591796875) (5.4527633666992184e-05, 4.59375) (5.537063598632812e-05, 4.595703125) (5.630599212646484e-05, 4.59765625) (5.73390998840332e-05, 4.599609375) (5.847400665283203e-05, 4.6015625) (5.9712306976318355e-05, 4.603515625) (6.105384063720703e-05, 4.60546875) (6.249954986572266e-05, 4.607421875) (6.405093383789063e-05, 4.609375) (6.570872497558594e-05, 4.611328125) (6.747299194335937e-05, 4.61328125) (6.934231567382812e-05, 4.615234375) (7.131391143798827e-05, 4.6171875) (7.33846206665039e-05, 4.619140625) (7.555072021484374e-05, 4.62109375) (7.780722808837891e-05, 4.623046875) (8.014817047119141e-05, 4.625) (8.256668090820312e-05, 4.626953125) (8.50550308227539e-05, 4.62890625) (8.760511016845702e-05, 4.630859375) (9.020828247070312e-05, 4.6328125) (9.285498046875e-05, 4.634765625) (9.553488159179688e-05, 4.63671875) (9.823711395263672e-05, 4.638671875) (0.00010095022583007812, 4.640625) (0.000103662353515625, 4.642578125) (0.00010636133575439452, 4.64453125) (0.00010903440856933593, 4.646484375) (0.00011166854858398437, 4.6484375) (0.00011425067138671875, 4.650390625) (0.00011676766967773437, 4.65234375) (0.00011920646667480469, 4.654296875) (0.0001215541534423828, 4.65625) (0.0001237979278564453, 4.658203125) (0.00012592520141601563, 4.66015625) (0.00012792396545410157, 4.662109375) (0.00012978277587890623, 4.6640625) (0.00013149081420898436, 4.666015625) (0.00013303794860839842, 4.66796875) (0.00013441464233398436, 4.669921875) (0.0001356121368408203, 4.671875) (0.0001366224365234375, 4.673828125) (0.00013743853759765623, 4.67578125) (0.0001380540771484375, 4.677734375) (0.00013846366882324217, 4.6796875) (0.00013866262817382812, 4.681640625) (0.00013864710998535154, 4.68359375) (0.00013841439819335937, 4.685546875) (0.00013796279907226562, 4.6875) (0.00013729167175292967, 4.689453125) (0.00013640139770507812, 4.69140625) (0.00013529339599609375, 4.693359375) (0.00013397007751464842, 4.6953125) (0.0001324349822998047, 4.697265625) (0.0001306926574707031, 4.69921875) (0.00012874862670898436, 4.701171875) (0.00012660928344726563, 4.703125) (0.00012428192138671875, 4.705078125) (0.00012177462005615234, 4.70703125) (0.00011909632873535156, 4.708984375) (0.00011625672912597656, 4.7109375) (0.00011326622009277343, 4.712890625) (0.00011013577270507812, 4.71484375) (0.00010687692260742187, 4.716796875) (0.00010350167083740234, 4.71875) (0.00010002242279052735, 4.720703125) (9.645186614990235e-05, 4.72265625) (9.280284118652343e-05, 4.724609375) (8.908833312988281e-05, 4.7265625) (8.53212890625e-05, 4.728515625) (8.151457214355468e-05, 4.73046875) (7.768090057373046e-05, 4.732421875) (7.383277130126952e-05, 4.734375) (6.9982421875e-05, 4.736328125) (6.614177703857422e-05, 4.73828125) (6.23223876953125e-05, 4.740234375) (5.8535385131835936e-05, 4.7421875) (5.479142761230469e-05, 4.744140625) (5.110069274902344e-05, 4.74609375) (4.74727783203125e-05, 4.748046875) (4.3916660308837885e-05, 4.75) (4.044063186645508e-05, 4.751953125) (3.7052276611328125e-05, 4.75390625) (3.37584228515625e-05, 4.755859375) (3.0565122604370114e-05, 4.7578125) (2.7477632522583008e-05, 4.759765625) (2.450040817260742e-05, 4.76171875) (2.163709831237793e-05, 4.763671875) (1.8890554428100585e-05, 4.765625) (1.6262821197509764e-05, 4.767578125) (1.3755168914794921e-05, 4.76953125) (1.1368110656738281e-05, 4.771484375) (9.101424217224121e-06, 4.7734375) (6.9541587829589845e-06, 4.775390625) (4.924649715423584e-06, 4.77734375) (3.01054573059082e-06, 4.779296875) (1.2088533639907836e-06, 4.78125) (-4.840163290500641e-07, 4.783203125) (-2.0721917152404785e-06, 4.78515625) (-3.560284614562988e-06, 4.787109375) (-4.95334768295288e-06, 4.7890625) (-6.256806373596191e-06, 4.791015625) (-7.476376056671142e-06, 4.79296875) (-8.61799430847168e-06, 4.794921875) (-9.687768936157227e-06, 4.796875) (-1.069192123413086e-05, 4.798828125) (-1.1636763572692871e-05, 4.80078125) (-1.2528675079345702e-05, 4.802734375) (-1.3374034881591796e-05, 4.8046875) (-1.4179165840148925e-05, 4.806640625) (-1.4950299263000488e-05, 4.80859375) (-1.5693525314331053e-05, 4.810546875) (-1.641476249694824e-05, 4.8125) (-1.7119749069213866e-05, 4.814453125) (-1.7813980102539062e-05, 4.81640625) (-1.8502641677856446e-05, 4.818359375) (-1.9190589904785157e-05, 4.8203125) (-1.9882347106933593e-05, 4.822265625) (-2.0582103729248044e-05, 4.82421875) (-2.1293746948242185e-05, 4.826171875) (-2.2020816802978514e-05, 4.828125) (-2.27664737701416e-05, 4.830078125) (-2.3533462524414063e-05, 4.83203125) (-2.432413864135742e-05, 4.833984375) (-2.5140495300292967e-05, 4.8359375) (-2.5984165191650388e-05, 4.837890625) (-2.6856361389160156e-05, 4.83984375) (-2.775786781311035e-05, 4.841796875) (-2.8689010620117185e-05, 4.84375) (-2.9649677276611327e-05, 4.845703125) (-3.063937377929687e-05, 4.84765625) (-3.1657306671142574e-05, 4.849609375) (-3.270229339599609e-05, 4.8515625) (-3.377278137207031e-05, 4.853515625) (-3.486689758300781e-05, 4.85546875) (-3.598250579833984e-05, 4.857421875) (-3.7117225646972655e-05, 4.859375) (-3.826856994628906e-05, 4.861328125) (-3.943384552001953e-05, 4.86328125) (-4.061009216308594e-05, 4.865234375) (-4.179414749145508e-05, 4.8671875) (-4.298274612426758e-05, 4.869140625) (-4.417252349853515e-05, 4.87109375) (-4.536014175415039e-05, 4.873046875) (-4.6542236328125e-05, 4.875) (-4.7715335845947264e-05, 4.876953125) (-4.887586212158203e-05, 4.87890625) (-5.002027893066406e-05, 4.880859375) (-5.114515686035156e-05, 4.8828125) (-5.224713897705078e-05, 4.884765625) (-5.3322799682617185e-05, 4.88671875) (-5.4368629455566404e-05, 4.888671875) (-5.538097763061523e-05, 4.890625) (-5.635626983642578e-05, 4.892578125) (-5.7291175842285154e-05, 4.89453125) (-5.8182624816894526e-05, 4.896484375) (-5.902761077880859e-05, 4.8984375) (-5.982318115234375e-05, 4.900390625) (-6.0566581726074215e-05, 4.90234375) (-6.125532913208008e-05, 4.904296875) (-6.188738250732422e-05, 4.90625) (-6.246109390258789e-05, 4.908203125) (-6.29749298095703e-05, 4.91015625) (-6.342740631103515e-05, 4.912109375) (-6.381732177734375e-05, 4.9140625) (-6.414385986328124e-05, 4.916015625) (-6.440657043457031e-05, 4.91796875) (-6.460537719726562e-05, 4.919921875) (-6.47403564453125e-05, 4.921875) (-6.481165313720702e-05, 4.923828125) (-6.48196563720703e-05, 4.92578125) (-6.47653350830078e-05, 4.927734375) (-6.465016174316405e-05, 4.9296875) (-6.44759521484375e-05, 4.931640625) (-6.424464416503906e-05, 4.93359375) (-6.395832061767577e-05, 4.935546875) (-6.361916351318359e-05, 4.9375) (-6.322990417480469e-05, 4.939453125) (-6.279389190673828e-05, 4.94140625) (-6.231472015380859e-05, 4.943359375) (-6.179584503173828e-05, 4.9453125) (-6.124111175537109e-05, 4.947265625) (-6.0654899597167963e-05, 4.94921875) (-6.004237365722656e-05, 4.951171875) (-5.9409862518310544e-05, 4.953125) (-5.876400756835937e-05, 4.955078125) (-5.8111053466796874e-05, 4.95703125) (-5.745742034912109e-05, 4.958984375) (-5.681013488769531e-05, 4.9609375) (-5.6176227569580075e-05, 4.962890625) (-5.556259155273437e-05, 4.96484375) (-5.4975116729736325e-05, 4.966796875) (-5.441798400878906e-05, 4.96875) (-5.3895294189453124e-05, 4.970703125) (-5.341145324707031e-05, 4.97265625) (-5.297109222412109e-05, 4.974609375) (-5.25792236328125e-05, 4.9765625) (-5.2240112304687496e-05, 4.978515625) (-5.1957790374755855e-05, 4.98046875) (-5.173741912841797e-05, 4.982421875) (-5.158464813232422e-05, 4.984375) (-5.150499725341797e-05, 4.986328125) (-5.1503532409667966e-05, 4.98828125) (-5.1581695556640624e-05, 4.990234375) (-5.173793411254882e-05, 4.9921875) (-5.1972221374511716e-05, 4.994140625) (-5.228487396240234e-05, 4.99609375) (-5.267839050292969e-05, 4.998046875) (-5.3158630371093745e-05, 5.0) (-5.3727287292480464e-05, 5.001953125) (-5.438348770141601e-05, 5.00390625) (-5.5128746032714844e-05, 5.005859375) (-5.596308898925781e-05, 5.0078125) (-5.688337707519531e-05, 5.009765625) (-5.788179016113281e-05, 5.01171875) (-5.893763732910156e-05, 5.013671875) (-6.002186584472656e-05, 5.015625) (-6.11081085205078e-05, 5.017578125) (-6.21721076965332e-05, 5.01953125) (-6.319622802734375e-05, 5.021484375) (-6.416704559326172e-05, 5.0234375) (-6.506462097167969e-05, 5.025390625) (-6.586944580078125e-05, 5.02734375) (-6.656327819824219e-05, 5.029296875) (-6.71274185180664e-05, 5.03125) (-6.755532836914062e-05, 5.033203125) (-6.784337615966797e-05, 5.03515625) (-6.797734832763672e-05, 5.037109375) (-6.795079040527343e-05, 5.0390625) (-6.77724609375e-05, 5.041015625) (-6.746974182128906e-05, 5.04296875) (-6.710652160644531e-05, 5.044921875) (-6.676101684570312e-05, 5.046875) (-6.649861145019531e-05, 5.048828125) (-6.63741683959961e-05, 5.05078125) (-6.642774963378906e-05, 5.052734375) (-6.670289611816406e-05, 5.0546875) (-6.725782775878905e-05, 5.056640625) (-6.814447021484375e-05, 5.05859375) (-6.940910339355469e-05, 5.060546875) (-7.10810775756836e-05, 5.0625) (-7.315174102783202e-05, 5.064453125) (-7.564824676513672e-05, 5.06640625) (-7.863980102539062e-05, 5.068359375) (-8.209758758544922e-05, 5.0703125) (-8.590608215332031e-05, 5.072265625) (-8.983157348632812e-05, 5.07421875) (-9.346733856201171e-05, 5.076171875) (-9.644960021972655e-05, 5.078125) (-9.850688934326171e-05, 5.080078125) (-9.930014038085938e-05, 5.08203125) (-9.854190063476562e-05, 5.083984375) (-9.619080352783203e-05, 5.0859375) (-9.238449859619141e-05, 5.087890625) (-8.76246566772461e-05, 5.08984375) (-8.276564025878906e-05, 5.091796875) (-7.851222991943359e-05, 5.09375) (-7.547337341308593e-05, 5.095703125) (-7.422109985351563e-05, 5.09765625) (-7.488861083984375e-05, 5.099609375) (-7.711727905273437e-05, 5.1015625) (-8.017301940917969e-05, 5.103515625) (-8.266259002685546e-05, 5.10546875) (-8.260923004150391e-05, 5.107421875) (-7.811276245117187e-05, 5.109375) (-6.71962890625e-05, 5.111328125) (-4.7811523437499996e-05, 5.11328125) (-1.9934703826904296e-05, 5.115234375) (1.4463695526123046e-05, 5.1171875) (5.3560321807861326e-05, 5.119140625) (9.474178314208984e-05, 5.12109375) (0.00013804644775390623, 5.123046875) (0.00018733921813964842, 5.125) (0.0002420803527832031, 5.126953125) (0.00029751708984374997, 5.12890625) (0.000343845947265625, 5.130859375) (0.00036475079345703126, 5.1328125) (0.00035014266967773434, 5.134765625) (0.0003001815185546875, 5.13671875) (0.00022264425659179686, 5.138671875) (0.000133880126953125, 5.140625) (4.9735706329345704e-05, 5.142578125) (-2.1880359649658203e-05, 5.14453125) (-7.793235778808593e-05, 5.146484375) (-0.00012044340515136718, 5.1484375) (-0.00015374096679687498, 5.150390625) (-0.00017784368896484374, 5.15234375) (-0.0001911212463378906, 5.154296875) (-0.0001907180480957031, 5.15625) (-0.00017555589294433594, 5.158203125) (-0.00015097479248046873, 5.16015625) (-0.00012391070556640624, 5.162109375) (-0.00010274433898925781, 5.1640625) (-9.134197235107422e-05, 5.166015625) (-8.543307495117188e-05, 5.16796875) (-8.062186431884765e-05, 5.169921875) (-7.198925781249999e-05, 5.171875) (-5.8083602905273435e-05, 5.173828125) (-4.3471611022949215e-05, 5.17578125) (-3.109247207641602e-05, 5.177734375) (-2.2473560333251952e-05, 5.1796875) (-1.8081256866455076e-05, 5.181640625) (-1.599403381347656e-05, 5.18359375) (-1.5186340332031249e-05, 5.185546875) (-1.578248119354248e-05, 5.1875) (-1.7548112869262695e-05, 5.189453125) (-2.0146530151367186e-05, 5.19140625) (-2.3278194427490234e-05, 5.193359375) (-2.6450794219970704e-05, 5.1953125) (-2.913823699951172e-05, 5.197265625) (-3.107661437988281e-05, 5.19921875) (-3.209659194946289e-05, 5.201171875) (-3.200846481323242e-05, 5.203125) (-3.100145721435547e-05, 5.205078125) (-2.959012222290039e-05, 5.20703125) (-2.8053611755371093e-05, 5.208984375) (-2.659858703613281e-05, 5.2109375) (-2.5453184127807617e-05, 5.212890625) (-2.462665557861328e-05, 5.21484375) (-2.412472915649414e-05, 5.216796875) (-2.398780059814453e-05, 5.21875) (-2.4051509857177732e-05, 5.220703125) (-2.405316925048828e-05, 5.22265625) (-2.3860429763793944e-05, 5.224609375) (-2.339065933227539e-05, 5.2265625) (-2.260774040222168e-05, 5.228515625) (-2.1580020904541014e-05, 5.23046875) (-2.034381675720215e-05, 5.232421875) (-1.8909999847412107e-05, 5.234375) (-1.7340293884277343e-05, 5.236328125) (-1.570415115356445e-05, 5.23828125) (-1.4051182746887206e-05, 5.240234375) (-1.2424373626708983e-05, 5.2421875) (-1.0842951774597167e-05, 5.244140625) (-9.29787254333496e-06, 5.24609375) (-7.788294792175292e-06, 5.248046875) (-6.319876194000244e-06, 5.25) (-4.895389556884765e-06, 5.251953125) (-3.5208501815795895e-06, 5.25390625) (-2.194634675979614e-06, 5.255859375) (-9.066407084465026e-07, 5.2578125) (3.558104038238525e-07, 5.259765625) (1.604424238204956e-06, 5.26171875) (2.847677707672119e-06, 5.263671875) (4.092381477355957e-06, 5.265625) (5.344473838806152e-06, 5.267578125) (6.6107587814331055e-06, 5.26953125) (7.899188518524169e-06, 5.271484375) (9.217372894287109e-06, 5.2734375) (1.0570976257324219e-05, 5.275390625) (1.1964068412780762e-05, 5.27734375) (1.3401065826416015e-05, 5.279296875) (1.488698387145996e-05, 5.28125) (1.6428375244140623e-05, 5.283203125) (1.8032238006591797e-05, 5.28515625) (1.9703052520751953e-05, 5.287109375) (2.1442626953124998e-05, 5.2890625) (2.3251083374023436e-05, 5.291015625) (2.5128757476806638e-05, 5.29296875) (2.707707595825195e-05, 5.294921875) (2.9097694396972654e-05, 5.296875) (3.11917667388916e-05, 5.298828125) (3.335942077636718e-05, 5.30078125) (3.5599807739257813e-05, 5.302734375) (3.7911972045898434e-05, 5.3046875) (4.029490280151367e-05, 5.306640625) (4.2746299743652344e-05, 5.30859375) (4.52623176574707e-05, 5.310546875) (4.783781051635742e-05, 5.3125) (5.046627807617187e-05, 5.314453125) (5.314065551757812e-05, 5.31640625) (5.585378265380859e-05, 5.318359375) (5.8598037719726557e-05, 5.3203125) (6.136528778076171e-05, 5.322265625) (6.414699554443359e-05, 5.32421875) (6.693417358398438e-05, 5.326171875) (6.971756744384766e-05, 5.328125) (7.248771667480468e-05, 5.330078125) (7.52348175048828e-05, 5.33203125) (7.794873046875e-05, 5.333984375) (8.061878967285156e-05, 5.3359375) (8.323397827148438e-05, 5.337890625) (8.578323364257812e-05, 5.33984375) (8.825536346435547e-05, 5.341796875) (9.063912200927734e-05, 5.34375) (9.292324066162109e-05, 5.345703125) (9.509649658203125e-05, 5.34765625) (9.714781188964843e-05, 5.349609375) (9.906644439697265e-05, 5.3515625) (0.00010084208679199218, 5.353515625) (0.00010246464538574218, 5.35546875) (0.00010392449951171875, 5.357421875) (0.00010521256256103516, 5.359375) (0.00010632035827636718, 5.361328125) (0.00010724014282226562, 5.36328125) (0.00010796502685546875, 5.365234375) (0.00010848888397216796, 5.3671875) (0.0001088064727783203, 5.369140625) (0.00010891368103027343, 5.37109375) (0.00010880752563476562, 5.373046875) (0.00010848606872558594, 5.375) (0.00010794845581054688, 5.376953125) (0.00010719477081298827, 5.37890625) (0.00010622600555419921, 5.380859375) (0.00010504409790039063, 5.3828125) (0.00010365189361572265, 5.384765625) (0.00010205307006835937, 5.38671875) (0.00010025212097167968, 5.388671875) (9.82542953491211e-05, 5.390625) (9.606565856933593e-05, 5.392578125) (9.369306182861327e-05, 5.39453125) (9.114421081542968e-05, 5.396484375) (8.842753601074218e-05, 5.3984375) (8.555220794677733e-05, 5.400390625) (8.252798461914062e-05, 5.40234375) (7.936524963378906e-05, 5.404296875) (7.607489013671875e-05, 5.40625) (7.26683349609375e-05, 5.408203125) (6.915741729736328e-05, 5.41015625) (6.555433654785156e-05, 5.412109375) (6.187160491943359e-05, 5.4140625) (5.812196350097656e-05, 5.416015625) (5.431842041015625e-05, 5.41796875) (5.0474098205566405e-05, 5.419921875) (4.660221099853516e-05, 5.421875) (4.2715900421142574e-05, 5.423828125) (3.8828151702880857e-05, 5.42578125) (3.4951690673828125e-05, 5.427734375) (3.109891700744629e-05, 5.4296875) (2.7281824111938476e-05, 5.431640625) (2.351188278198242e-05, 5.43359375) (1.979999542236328e-05, 5.435546875) (1.615646934509277e-05, 5.4375) (1.2591018676757811e-05, 5.439453125) (9.112771987915039e-06, 5.44140625) (5.730269432067871e-06, 5.443359375) (2.451413631439209e-06, 5.4453125) (-7.165504097938537e-07, 5.447265625) (-3.7670669555664063e-06, 5.44921875) (-6.694286346435547e-06, 5.451171875) (-9.493083953857421e-06, 5.453125) (-1.215910243988037e-05, 5.455078125) (-1.4688791275024413e-05, 5.45703125) (-1.707940673828125e-05, 5.458984375) (-1.9329004287719726e-05, 5.4609375) (-2.1436384201049802e-05, 5.462890625) (-2.3401071548461913e-05, 5.46484375) (-2.5223293304443357e-05, 5.466796875) (-2.6903972625732422e-05, 5.46875) (-2.8444717407226562e-05, 5.470703125) (-2.984781265258789e-05, 5.47265625) (-3.111621856689453e-05, 5.474609375) (-3.225354385375977e-05, 5.4765625) (-3.3264057159423826e-05, 5.478515625) (-3.415265655517578e-05, 5.48046875) (-3.4924850463867183e-05, 5.482421875) (-3.558664321899414e-05, 5.484375) (-3.614447784423828e-05, 5.486328125) (-3.660509490966797e-05, 5.48828125) (-3.6975486755371094e-05, 5.490234375) (-3.7262802124023435e-05, 5.4921875) (-3.7474273681640624e-05, 5.494140625) (-3.7617172241210934e-05, 5.49609375) (-3.769870376586914e-05, 5.498046875) (-3.7726036071777344e-05, 5.5) (-3.770629119873047e-05, 5.501953125) (-3.764655303955078e-05, 5.50390625) (-3.755382537841797e-05, 5.505859375) (-3.7434963226318356e-05, 5.5078125) (-3.729663848876953e-05, 5.509765625) (-3.714527893066406e-05, 5.51171875) (-3.69870376586914e-05, 5.513671875) (-3.682776260375976e-05, 5.515625) (-3.667287445068359e-05, 5.517578125) (-3.652733612060547e-05, 5.51953125) (-3.639564895629883e-05, 5.521484375) (-3.628188323974609e-05, 5.5234375) (-3.6189678192138673e-05, 5.525390625) (-3.612229919433594e-05, 5.52734375) (-3.608256149291992e-05, 5.529296875) (-3.607283782958984e-05, 5.53125) (-3.609505462646484e-05, 5.533203125) (-3.615067291259766e-05, 5.53515625) (-3.624062728881836e-05, 5.537109375) (-3.636530685424805e-05, 5.5390625) (-3.6524486541748044e-05, 5.541015625) (-3.671733856201172e-05, 5.54296875) (-3.69424819946289e-05, 5.544921875) (-3.719802474975586e-05, 5.546875) (-3.748163604736328e-05, 5.548828125) (-3.779063034057617e-05, 5.55078125) (-3.812197113037109e-05, 5.552734375) (-3.847233200073242e-05, 5.5546875) (-3.8838226318359374e-05, 5.556640625) (-3.9216026306152344e-05, 5.55859375) (-3.9601982116699214e-05, 5.560546875) (-3.9992279052734376e-05, 5.5625) (-4.0382850646972655e-05, 5.564453125) (-4.07694091796875e-05, 5.56640625) (-4.1147583007812496e-05, 5.568359375) (-4.1513011932373045e-05, 5.5703125) (-4.186129379272461e-05, 5.572265625) (-4.218803787231445e-05, 5.57421875) (-4.2488807678222653e-05, 5.576171875) (-4.275914764404297e-05, 5.578125) (-4.299496841430664e-05, 5.580078125) (-4.319260406494141e-05, 5.58203125) (-4.3348651885986325e-05, 5.583984375) (-4.3459972381591796e-05, 5.5859375) (-4.352363586425781e-05, 5.587890625) (-4.3536972045898435e-05, 5.58984375) (-4.349772262573242e-05, 5.591796875) (-4.340410614013672e-05, 5.59375) (-4.325457763671875e-05, 5.595703125) (-4.304783630371094e-05, 5.59765625) (-4.2783046722412106e-05, 5.599609375) (-4.245984268188476e-05, 5.6015625) (-4.207852935791015e-05, 5.603515625) (-4.164006042480469e-05, 5.60546875) (-4.114581298828125e-05, 5.607421875) (-4.059763336181641e-05, 5.609375) (-3.999782562255859e-05, 5.611328125) (-3.9349178314208985e-05, 5.61328125) (-3.865502548217773e-05, 5.615234375) (-3.791925811767578e-05, 5.6171875) (-3.714598846435547e-05, 5.619140625) (-3.6339435577392574e-05, 5.62109375) (-3.550411987304687e-05, 5.623046875) (-3.4644809722900386e-05, 5.625) (-3.3766944885253904e-05, 5.626953125) (-3.287661743164062e-05, 5.62890625) (-3.197996139526367e-05, 5.630859375) (-3.1082998275756836e-05, 5.6328125) (-3.019214630126953e-05, 5.634765625) (-2.931446075439453e-05, 5.63671875) (-2.8457862854003907e-05, 5.638671875) (-2.763113784790039e-05, 5.640625) (-2.684268569946289e-05, 5.642578125) (-2.6100250244140623e-05, 5.64453125) (-2.5411792755126953e-05, 5.646484375) (-2.478555679321289e-05, 5.6484375) (-2.4229471206665038e-05, 5.650390625) (-2.3750703811645508e-05, 5.65234375) (-2.33548526763916e-05, 5.654296875) (-2.3045572280883788e-05, 5.65625) (-2.2826480865478514e-05, 5.658203125) (-2.2701894760131836e-05, 5.66015625) (-2.2675716400146483e-05, 5.662109375) (-2.2751918792724607e-05, 5.6640625) (-2.293405532836914e-05, 5.666015625) (-2.322445297241211e-05, 5.66796875) (-2.362565040588379e-05, 5.669921875) (-2.414051055908203e-05, 5.671875) (-2.477031135559082e-05, 5.673828125) (-2.551432418823242e-05, 5.67578125) (-2.6369356155395507e-05, 5.677734375) (-2.7328781127929686e-05, 5.6796875) (-2.8386886596679687e-05, 5.681640625) (-2.9540725708007812e-05, 5.68359375) (-3.07891731262207e-05, 5.685546875) (-3.21343879699707e-05, 5.6875) (-3.35771369934082e-05, 5.689453125) (-3.511441040039062e-05, 5.69140625) (-3.674318695068359e-05, 5.693359375) (-3.845879364013672e-05, 5.6953125) (-4.0250301361083985e-05, 5.697265625) (-4.2102367401123045e-05, 5.69921875) (-4.3992416381835933e-05, 5.701171875) (-4.58891487121582e-05, 5.703125) (-4.776565170288086e-05, 5.705078125) (-4.960113906860351e-05, 5.70703125) (-5.137728118896484e-05, 5.708984375) (-5.308222961425781e-05, 5.7109375) (-5.4702629089355464e-05, 5.712890625) (-5.622039413452148e-05, 5.71484375) (-5.761965179443359e-05, 5.716796875) (-5.888310623168945e-05, 5.71875) (-5.9992702484130854e-05, 5.720703125) (-6.0934684753417965e-05, 5.72265625) (-6.169720458984375e-05, 5.724609375) (-6.227834320068359e-05, 5.7265625) (-6.270067596435546e-05, 5.728515625) (-6.299907684326172e-05, 5.73046875) (-6.322231674194335e-05, 5.732421875) (-6.343185424804688e-05, 5.734375) (-6.367217254638672e-05, 5.736328125) (-6.398704147338867e-05, 5.73828125) (-6.442813873291016e-05, 5.740234375) (-6.503237152099609e-05, 5.7421875) (-6.584014129638672e-05, 5.744140625) (-6.690071105957031e-05, 5.74609375) (-6.823121643066406e-05, 5.748046875) (-6.987219238281249e-05, 5.75) (-7.191197967529297e-05, 5.751953125) (-7.435662078857421e-05, 5.75390625) (-7.715233612060547e-05, 5.755859375) (-8.017848205566405e-05, 5.7578125) (-8.314247894287109e-05, 5.759765625) (-8.574568939208984e-05, 5.76171875) (-8.776658630371093e-05, 5.763671875) (-8.884691619873046e-05, 5.765625) (-8.859411621093749e-05, 5.767578125) (-8.693749999999999e-05, 5.76953125) (-8.39589614868164e-05, 5.771484375) (-7.998509216308593e-05, 5.7734375) (-7.584201049804687e-05, 5.775390625) (-7.221556091308593e-05, 5.77734375) (-6.960142517089843e-05, 5.779296875) (-6.885450744628906e-05, 5.78125) (-7.06789321899414e-05, 5.783203125) (-7.497858428955078e-05, 5.78515625) (-8.135429382324218e-05, 5.787109375) (-8.88929214477539e-05, 5.7890625) (-9.555809020996093e-05, 5.791015625) (-9.950659179687499e-05, 5.79296875) (-9.912262725830078e-05, 5.794921875) (-9.168534088134766e-05, 5.796875) (-7.550843811035155e-05, 5.798828125) (-5.1303676605224606e-05, 5.80078125) (-1.9809173583984375e-05, 5.802734375) (1.756702423095703e-05, 5.8046875) (5.9981548309326166e-05, 5.806640625) (0.00011062623596191405, 5.80859375) (0.00017126438903808592, 5.810546875) (0.0002380477294921875, 5.8125) (0.00030206198120117186, 5.814453125) (0.0003486723327636719, 5.81640625) (0.00036471966552734374, 5.818359375) (0.00034569931030273434, 5.8203125) (0.0002957796630859375, 5.822265625) (0.00022446905517578124, 5.82421875) (0.0001407421875, 5.826171875) (5.195348358154297e-05, 5.828125) (-3.675680160522461e-05, 5.830078125) (-0.00011885050964355468, 5.83203125) (-0.0001838843994140625, 5.833984375) (-0.0002260057678222656, 5.8359375) (-0.0002436352081298828, 5.837890625) (-0.00024023236083984374, 5.83984375) (-0.00022436776733398436, 5.841796875) (-0.00019992010498046873, 5.84375) (-0.00016904254150390625, 5.845703125) (-0.0001345557403564453, 5.84765625) (-9.996786499023437e-05, 5.849609375) (-7.389064025878906e-05, 5.8515625) (-6.337931823730469e-05, 5.853515625) (-6.954750061035156e-05, 5.85546875) (-8.90362548828125e-05, 5.857421875) (-0.00011212260437011718, 5.859375) (-0.0001286343536376953, 5.861328125) (-0.0001338744201660156, 5.86328125) (-0.00012601393890380858, 5.865234375) (-0.00010887539672851562, 5.8671875) (-9.012171936035156e-05, 5.869140625) (-7.417707061767577e-05, 5.87109375) (-6.439376831054688e-05, 5.873046875) (-6.092566680908203e-05, 5.875) (-5.9769882202148434e-05, 5.876953125) (-5.87783203125e-05, 5.87890625) (-5.6740592956542966e-05, 5.880859375) (-5.329763793945312e-05, 5.8828125) (-5.008998870849609e-05, 5.884765625) (-4.7814254760742185e-05, 5.88671875) (-4.627126312255859e-05, 5.888671875) (-4.535668182373047e-05, 5.890625) (-4.4661624908447266e-05, 5.892578125) (-4.399147033691406e-05, 5.89453125) (-4.348714447021484e-05, 5.896484375) (-4.3171760559082026e-05, 5.8984375) (-4.2948371887207026e-05, 5.900390625) (-4.273396301269531e-05, 5.90234375) (-4.2467926025390624e-05, 5.904296875) (-4.209046936035156e-05, 5.90625) (-4.155222320556641e-05, 5.908203125) (-4.081356811523437e-05, 5.91015625) (-3.9819549560546877e-05, 5.912109375) (-3.854606628417968e-05, 5.9140625) (-3.702437591552734e-05, 5.916015625) (-3.52931900024414e-05, 5.91796875) (-3.338251495361328e-05, 5.919921875) (-3.132383728027344e-05, 5.921875) (-2.913991546630859e-05, 5.923828125) (-2.684706115722656e-05, 5.92578125) (-2.4474294662475585e-05, 5.927734375) (-2.2053667068481443e-05, 5.9296875) (-1.9616849899291992e-05, 5.931640625) (-1.7201520919799806e-05, 5.93359375) (-1.4834289550781249e-05, 5.935546875) (-1.2529743194580077e-05, 5.9375) (-1.0299704551696777e-05, 5.939453125) (-8.150592803955079e-06, 5.94140625) (-6.083950042724609e-06, 5.943359375) (-4.097797870635986e-06, 5.9453125) (-2.180769920349121e-06, 5.947265625) (-3.1301718950271607e-07, 5.94921875) (1.5215704441070555e-06, 5.951171875) (3.3350577354431153e-06, 5.953125) (5.1376552581787105e-06, 5.955078125) (6.936585426330566e-06, 5.95703125) (8.741958618164063e-06, 5.958984375) (1.0567060470581054e-05, 5.9609375) (1.2424365997314453e-05, 5.962890625) (1.43251895904541e-05, 5.96484375) (1.627916145324707e-05, 5.966796875) (1.8294086456298827e-05, 5.96875) (2.0377601623535155e-05, 5.970703125) (2.253736114501953e-05, 5.97265625) (2.477915573120117e-05, 5.974609375) (2.710677719116211e-05, 5.9765625) (2.9522029876708983e-05, 5.978515625) (3.202511978149414e-05, 5.98046875) (3.461724472045898e-05, 5.982421875) (3.7300437927246094e-05, 5.984375) (4.007622528076172e-05, 5.986328125) (4.294551086425781e-05, 5.98828125) (4.5908206939697266e-05, 5.990234375) (4.896318054199218e-05, 5.9921875) (5.210911560058593e-05, 5.994140625) (5.53443374633789e-05, 5.99609375) (5.8665771484374995e-05, 5.998046875) (6.206902313232421e-05, 6.0) (6.554884338378907e-05, 6.001953125) (6.909914398193359e-05, 6.00390625) (7.271339416503906e-05, 6.005859375) (7.638471984863282e-05, 6.0078125) (8.010540771484375e-05, 6.009765625) (8.386687469482422e-05, 6.01171875) (8.765989685058594e-05, 6.013671875) (9.147477722167969e-05, 6.015625) (9.530122375488281e-05, 6.017578125) (9.912850952148437e-05, 6.01953125) (0.00010294532775878906, 6.021484375) (0.00010673977661132813, 6.0234375) (0.00011049961853027343, 6.025390625) (0.00011421257781982421, 6.02734375) (0.0001178660888671875, 6.029296875) (0.00012144749450683593, 6.03125) (0.00012494387817382812, 6.033203125) (0.00012834225463867187, 6.03515625) (0.00013162960815429686, 6.037109375) (0.00013479325866699217, 6.0390625) (0.00013782077026367186, 6.041015625) (0.00014069992065429687, 6.04296875) (0.00014341896057128904, 6.044921875) (0.00014596655273437498, 6.046875) (0.00014833206176757813, 6.048828125) (0.0001505056915283203, 6.05078125) (0.00015247833251953125, 6.052734375) (0.00015424172973632812, 6.0546875) (0.00015578833007812498, 6.056640625) (0.00015711141967773436, 6.05859375) (0.00015820523071289063, 6.060546875) (0.00015906512451171873, 6.0625) (0.00015968734741210938, 6.064453125) (0.00016006915283203125, 6.06640625) (0.00016020872497558592, 6.068359375) (0.00016010528564453123, 6.0703125) (0.00015975904846191405, 6.072265625) (0.00015917144775390624, 6.07421875) (0.00015834481811523437, 6.076171875) (0.00015728248596191406, 6.078125) (0.0001559886932373047, 6.080078125) (0.00015446865844726562, 6.08203125) (0.0001527285461425781, 6.083984375) (0.000150775390625, 6.0859375) (0.00014861718749999999, 6.087890625) (0.00014626271057128907, 6.08984375) (0.00014372149658203125, 6.091796875) (0.00014100393676757812, 6.09375) (0.00013812110900878906, 6.095703125) (0.00013508486938476562, 6.09765625) (0.0001319075927734375, 6.099609375) (0.0001286021728515625, 6.1015625) (0.00012518193054199218, 6.103515625) (0.00012166044616699218, 6.10546875) (0.00011805155944824218, 6.107421875) (0.00011436918640136718, 6.109375) (0.00011062731933593749, 6.111328125) (0.00010683986663818359, 6.11328125) (0.0001030206069946289, 6.115234375) (9.918318939208984e-05, 6.1171875) (9.53410415649414e-05, 6.119140625) (9.150733947753906e-05, 6.12109375) (8.769487762451171e-05, 6.123046875) (8.391606903076171e-05, 6.125) (8.018281555175781e-05, 6.126953125) (7.650651550292968e-05, 6.12890625) (7.289799499511719e-05, 6.130859375) (6.936743164062499e-05, 6.1328125) (6.592436981201172e-05, 6.134765625) (6.257764053344727e-05, 6.13671875) (5.933533477783203e-05, 6.138671875) (5.620480346679687e-05, 6.140625) (5.319266510009765e-05, 6.142578125) (5.0304744720458984e-05, 6.14453125) (4.754602813720703e-05, 6.146484375) (4.492065811157226e-05, 6.1484375) (4.2431861877441406e-05, 6.150390625) (4.0081970214843745e-05, 6.15234375) (3.7872398376464845e-05, 6.154296875) (3.580363082885742e-05, 6.15625) (3.387525939941406e-05, 6.158203125) (3.2085964202880856e-05, 6.16015625) (3.0433607101440427e-05, 6.162109375) (2.891526985168457e-05, 6.1640625) (2.7527328491210937e-05, 6.166015625) (2.6265499114990233e-05, 6.16796875) (2.5124893188476562e-05, 6.169921875) (2.410004425048828e-05, 6.171875) (2.3184995651245116e-05, 6.173828125) (2.2373348236083982e-05, 6.17578125) (2.165835189819336e-05, 6.177734375) (2.1032962799072264e-05, 6.1796875) (2.048987579345703e-05, 6.181640625) (2.002163314819336e-05, 6.18359375) (1.9620662689208984e-05, 6.185546875) (1.9279359817504882e-05, 6.1875) (1.899015998840332e-05, 6.189453125) (1.8745594024658202e-05, 6.19140625) (1.8538265228271482e-05, 6.193359375) (1.8360889434814452e-05, 6.1953125) (1.8206329345703123e-05, 6.197265625) (1.8067615509033202e-05, 6.19921875) (1.793805694580078e-05, 6.201171875) (1.7811292648315428e-05, 6.203125) (1.7681262969970702e-05, 6.205078125) (1.7542299270629883e-05, 6.20703125) (1.738919448852539e-05, 6.208984375) (1.721726608276367e-05, 6.2109375) (1.702244186401367e-05, 6.212890625) (1.6801258087158203e-05, 6.21484375) (1.6550825119018554e-05, 6.216796875) (1.6268823623657225e-05, 6.21875) (1.5953571319580076e-05, 6.220703125) (1.5603996276855467e-05, 6.22265625) (1.521967887878418e-05, 6.224609375) (1.480079460144043e-05, 6.2265625) (1.4348066329956055e-05, 6.228515625) (1.3862794876098633e-05, 6.23046875) (1.3346834182739258e-05, 6.232421875) (1.280259609222412e-05, 6.234375) (1.2233016967773437e-05, 6.236328125) (1.1641484260559081e-05, 6.23828125) (1.1031654357910156e-05, 6.240234375) (1.0407388687133788e-05, 6.2421875) (9.772732734680176e-06, 6.244140625) (9.131776809692383e-06, 6.24609375) (8.488758087158202e-06, 6.248046875) (7.84799814224243e-06, 6.25) (7.21367597579956e-06, 6.251953125) (6.5898594856262205e-06, 6.25390625) (5.98065996170044e-06, 6.255859375) (5.3902034759521485e-06, 6.2578125) (4.822672843933105e-06, 6.259765625) (4.282303810119629e-06, 6.26171875) (3.7729716300964355e-06, 6.263671875) (3.2981371879577636e-06, 6.265625) (2.8610806465148926e-06, 6.267578125) (2.4647603034973144e-06, 6.26953125) (2.111759901046753e-06, 6.271484375) (1.8042273521423339e-06, 6.2734375) (1.5436816215515136e-06, 6.275390625) (1.331070065498352e-06, 6.27734375) (1.1670557260513305e-06, 6.279296875) (1.052046775817871e-06, 6.28125) (9.8600834608078e-07, 6.283203125) (9.684829711914062e-07, 6.28515625) (9.983801841735839e-07, 6.287109375) (1.0740065574645997e-06, 6.2890625) (1.1933274269104004e-06, 6.291015625) (1.3538010120391845e-06, 6.29296875) (1.5523428916931152e-06, 6.294921875) (1.785299777984619e-06, 6.296875) (2.0483229160308837e-06, 6.298828125) (2.3365063667297363e-06, 6.30078125) (2.644883871078491e-06, 6.302734375) (2.9684700965881348e-06, 6.3046875) (3.3021121025085448e-06, 6.306640625) (3.6407108306884763e-06, 6.30859375) (3.9787821769714355e-06, 6.310546875) (4.310446262359619e-06, 6.3125) (4.6302652359008786e-06, 6.314453125) (4.933085441589356e-06, 6.31640625) (5.213381767272949e-06, 6.318359375) (5.465344905853271e-06, 6.3203125) (5.682548522949219e-06, 6.322265625) (5.8578491210937494e-06, 6.32421875) (5.984797954559326e-06, 6.326171875) (6.057695388793945e-06, 6.328125) (6.070514678955078e-06, 6.330078125) (6.017282485961914e-06, 6.33203125) (5.892606735229492e-06, 6.333984375) (5.691877841949463e-06, 6.3359375) (5.412278652191162e-06, 6.337890625) (5.052610397338867e-06, 6.33984375) (4.6114683151245115e-06, 6.341796875) (4.0872354507446284e-06, 6.34375) (3.4785478115081784e-06, 6.345703125) (2.784095525741577e-06, 6.34765625) (2.003197193145752e-06, 6.349609375) (1.1353243589401244e-06, 6.3515625) (1.7943640053272246e-07, 6.353515625) (-8.653969168663025e-07, 6.35546875) (-1.998759150505066e-06, 6.357421875) 