(-0.00012112142944335937, 0.0) (-0.00012555047607421875, 0.001953125) (-0.00012919865417480468, 0.00390625) (-0.00013190310668945312, 0.005859375) (-0.00013361245727539062, 0.0078125) (-0.000134277099609375, 0.009765625) (-0.00013387249755859374, 0.01171875) (-0.000132447265625, 0.013671875) (-0.00013004365539550782, 0.015625) (-0.0001267306671142578, 0.017578125) (-0.0001226080551147461, 0.01953125) (-0.00011778388977050781, 0.021484375) (-0.0001124025650024414, 0.0234375) (-0.00010658488464355468, 0.025390625) (-0.0001004169921875, 0.02734375) (-9.399417877197266e-05, 0.029296875) (-8.740837097167969e-05, 0.03125) (-8.076931762695313e-05, 0.033203125) (-7.422562408447265e-05, 0.03515625) (-6.790380859375e-05, 0.037109375) (-6.188563537597656e-05, 0.0390625) (-5.6245399475097655e-05, 0.041015625) (-5.103191757202148e-05, 0.04296875) (-4.630503082275391e-05, 0.044921875) (-4.216263198852539e-05, 0.046875) (-3.865540695190429e-05, 0.048828125) (-3.579124450683594e-05, 0.05078125) (-3.355427551269531e-05, 0.052734375) (-3.188626098632812e-05, 0.0546875) (-3.076478576660156e-05, 0.056640625) (-3.0211265563964844e-05, 0.05859375) (-3.0211488723754882e-05, 0.060546875) (-3.072839164733886e-05, 0.0625) (-3.16989860534668e-05, 0.064453125) (-3.301298522949219e-05, 0.06640625) (-3.4593498229980465e-05, 0.068359375) (-3.640910720825195e-05, 0.0703125) (-3.841660690307617e-05, 0.072265625) (-4.0579654693603515e-05, 0.07421875) (-4.2838382720947265e-05, 0.076171875) (-4.5082645416259764e-05, 0.078125) (-4.7230758666992185e-05, 0.080078125) (-4.922917938232421e-05, 0.08203125) (-5.1008354187011714e-05, 0.083984375) (-5.250782775878906e-05, 0.0859375) (-5.363368225097656e-05, 0.087890625) (-5.424713897705078e-05, 0.08984375) (-5.4264854431152344e-05, 0.091796875) (-5.36463623046875e-05, 0.09375) (-5.2364559173583984e-05, 0.095703125) (-5.043052291870117e-05, 0.09765625) (-4.7831409454345704e-05, 0.099609375) (-4.451711273193359e-05, 0.1015625) (-4.0456832885742186e-05, 0.103515625) (-3.562267684936523e-05, 0.10546875) (-2.9986000061035155e-05, 0.107421875) (-2.355631637573242e-05, 0.109375) (-1.6343969345092773e-05, 0.111328125) (-8.354334831237792e-06, 0.11328125) (3.507421016693115e-07, 0.115234375) (9.681676864624023e-06, 0.1171875) (1.951970863342285e-05, 0.119140625) (2.9699033737182615e-05, 0.12109375) (4.009543609619141e-05, 0.123046875) (5.062281799316406e-05, 0.125) (6.118421173095703e-05, 0.126953125) (7.169613647460938e-05, 0.12890625) (8.207182312011719e-05, 0.130859375) (9.219752502441405e-05, 0.1328125) (0.00010197126770019531, 0.134765625) (0.00011129657745361327, 0.13671875) (0.00012003514099121093, 0.138671875) (0.00012805160522460937, 0.140625) (0.00013523130798339842, 0.142578125) (0.00014146533203125, 0.14453125) (0.00014670489501953125, 0.146484375) (0.0001509441223144531, 0.1484375) (0.0001541900634765625, 0.150390625) (0.00015648341369628904, 0.15234375) (0.00015785748291015624, 0.154296875) (0.000158326904296875, 0.15625) (0.00015793292236328124, 0.158203125) (0.00015673020935058594, 0.16015625) (0.00015475933837890625, 0.162109375) (0.00015207571411132812, 0.1640625) (0.00014873504638671873, 0.166015625) (0.00014478630065917967, 0.16796875) (0.0001403460693359375, 0.169921875) (0.00013556571960449219, 0.171875) (0.00013057478332519532, 0.173828125) (0.00012550181579589842, 0.17578125) (0.00012044213104248047, 0.177734375) (0.00011545740509033202, 0.1796875) (0.00011062172698974608, 0.181640625) (0.00010600409698486328, 0.18359375) (0.00010166383361816406, 0.185546875) (9.766950988769531e-05, 0.1875) (9.406826782226562e-05, 0.189453125) (9.08893814086914e-05, 0.19140625) (8.817094421386719e-05, 0.193359375) (8.59321060180664e-05, 0.1953125) (8.419557189941406e-05, 0.197265625) (8.299732971191405e-05, 0.19921875) (8.231492614746094e-05, 0.201171875) (8.210340881347656e-05, 0.203125) (8.230493927001953e-05, 0.205078125) (8.280828857421874e-05, 0.20703125) (8.359996795654296e-05, 0.208984375) (8.476470947265625e-05, 0.2109375) (8.634664916992187e-05, 0.212890625) (8.840666961669921e-05, 0.21484375) (9.090623474121094e-05, 0.216796875) (9.361725616455078e-05, 0.21875) (9.644612884521484e-05, 0.220703125) (9.946529388427734e-05, 0.22265625) (0.00010254246520996093, 0.224609375) (0.00010543969726562499, 0.2265625) (0.00010790310668945312, 0.228515625) (0.00010952494812011718, 0.23046875) (0.00011031445312499999, 0.232421875) (0.00011078603363037109, 0.234375) (0.00011121033477783203, 0.236328125) (0.00011165554809570312, 0.23828125) (0.00011234865570068358, 0.240234375) (0.00011348825073242187, 0.2421875) (0.00011540211486816406, 0.244140625) (0.0001186940689086914, 0.24609375) (0.00012338646697998047, 0.248046875) (0.00012888922119140623, 0.25) (0.00013483197021484374, 0.251953125) (0.00014096505737304688, 0.25390625) (0.0001470245819091797, 0.255859375) (0.00015290423583984373, 0.2578125) (0.0001583128967285156, 0.259765625) (0.00016268870544433592, 0.26171875) (0.00016590048217773437, 0.263671875) (0.00016824945068359375, 0.265625) (0.00016993229675292968, 0.267578125) (0.0001711209716796875, 0.26953125) (0.00017191992187499998, 0.271484375) (0.00017226991271972655, 0.2734375) (0.00017224151611328124, 0.275390625) (0.0001720723419189453, 0.27734375) (0.00017183053588867186, 0.279296875) (0.00017140269470214842, 0.28125) (0.0001707080078125, 0.283203125) (0.0001696668701171875, 0.28515625) (0.00016825827026367186, 0.287109375) (0.00016657110595703125, 0.2890625) (0.00016465951538085938, 0.291015625) (0.0001625189514160156, 0.29296875) (0.00016018156433105467, 0.294921875) (0.0001577174377441406, 0.296875) (0.00015517298889160155, 0.298828125) (0.00015259869384765624, 0.30078125) (0.00015002883911132813, 0.302734375) (0.00014743560791015626, 0.3046875) (0.00014479362487792967, 0.306640625) (0.0001420738830566406, 0.30859375) (0.00013921424865722656, 0.310546875) (0.0001361646728515625, 0.3125) (0.00013289117431640625, 0.314453125) (0.00012933154296874998, 0.31640625) (0.00012540899658203126, 0.318359375) (0.00012109544372558593, 0.3203125) (0.0001163870620727539, 0.322265625) (0.00011135629272460937, 0.32421875) (0.00010618335723876953, 0.326171875) (0.00010103386688232422, 0.328125) (9.602581024169922e-05, 0.330078125) (9.121867370605468e-05, 0.33203125) (8.664429473876953e-05, 0.333984375) (8.222754669189452e-05, 0.3359375) (7.772342681884765e-05, 0.337890625) (7.27237548828125e-05, 0.33984375) (6.654473876953125e-05, 0.341796875) (5.843907928466796e-05, 0.34375) (4.7912712097167966e-05, 0.345703125) (3.486062622070312e-05, 0.34765625) (1.9453868865966796e-05, 0.349609375) (2.1558971405029294e-06, 0.3515625) (-1.622560882568359e-05, 0.353515625) (-3.456275939941406e-05, 0.35546875) (-5.103273773193359e-05, 0.357421875) (-6.346939849853515e-05, 0.359375) (-7.012532806396484e-05, 0.361328125) (-7.078003692626953e-05, 0.36328125) (-6.667755126953124e-05, 0.365234375) (-5.9023899078369135e-05, 0.3671875) (-4.853792572021484e-05, 0.369140625) (-3.359207153320312e-05, 0.37109375) (-1.1907608032226562e-05, 0.373046875) (1.5016956329345702e-05, 0.375) (4.174514007568359e-05, 0.376953125) (5.823435974121093e-05, 0.37890625) (5.4133781433105464e-05, 0.380859375) (2.5698707580566405e-05, 0.3828125) (-2.352652359008789e-05, 0.384765625) (-8.288041687011718e-05, 0.38671875) (-0.00014080856323242188, 0.388671875) (-0.00019147726440429686, 0.390625) (-0.00023318977355957031, 0.392578125) (-0.0002694634399414062, 0.39453125) (-0.00030354501342773436, 0.396484375) (-0.00033198333740234374, 0.3984375) (-0.0003515494995117187, 0.400390625) (-0.0003576689453125, 0.40234375) (-0.0003465072021484375, 0.404296875) (-0.0003231397705078125, 0.40625) (-0.00029279052734374996, 0.408203125) (-0.00026041989135742186, 0.41015625) (-0.00023221331787109375, 0.412109375) (-0.00020830285644531248, 0.4140625) (-0.00018802561950683592, 0.416015625) (-0.00017202075195312498, 0.41796875) (-0.00015965679931640624, 0.419921875) (-0.00015171166992187498, 0.421875) (-0.00014864520263671875, 0.423828125) (-0.0001491764373779297, 0.42578125) (-0.00015179576110839843, 0.427734375) (-0.00015492843627929687, 0.4296875) (-0.00015745281982421875, 0.431640625) (-0.00015886155700683594, 0.43359375) (-0.00015874179077148438, 0.435546875) (-0.00015691641235351562, 0.4375) (-0.0001534955139160156, 0.439453125) (-0.00014885443115234375, 0.44140625) (-0.0001437522430419922, 0.443359375) (-0.00013895709228515623, 0.4453125) (-0.00013487411499023437, 0.447265625) (-0.00013171783447265626, 0.44921875) (-0.00012962908935546875, 0.451171875) (-0.00012859750366210938, 0.453125) (-0.00012853797912597655, 0.455078125) (-0.00012929895019531248, 0.45703125) (-0.0001305745391845703, 0.458984375) (-0.00013204176330566407, 0.4609375) (-0.0001335296630859375, 0.462890625) (-0.00013494515991210938, 0.46484375) (-0.00013622088623046875, 0.466796875) (-0.0001373332824707031, 0.46875) (-0.00013825453186035156, 0.470703125) (-0.00013895968627929687, 0.47265625) (-0.00013947555541992188, 0.474609375) (-0.00013985093688964842, 0.4765625) (-0.00014010736083984376, 0.478515625) (-0.0001402581787109375, 0.48046875) (-0.00014032342529296873, 0.482421875) (-0.00014032838439941405, 0.484375) (-0.00014032653808593749, 0.486328125) (-0.00014038131713867187, 0.48828125) (-0.00014052702331542968, 0.490234375) (-0.00014077775573730468, 0.4921875) (-0.00014114105224609375, 0.494140625) (-0.00014161561584472655, 0.49609375) (-0.00014220487976074217, 0.498046875) (-0.00014291644287109373, 0.5) (-0.0001437412109375, 0.501953125) (-0.00014466133117675781, 0.50390625) (-0.0001456648406982422, 0.505859375) (-0.00014673907470703123, 0.5078125) (-0.00014786990356445312, 0.509765625) (-0.0001490421142578125, 0.51171875) (-0.00015022445678710938, 0.513671875) (-0.00015137152099609373, 0.515625) (-0.0001524382629394531, 0.517578125) (-0.00015338156127929687, 0.51953125) (-0.00015416558837890625, 0.521484375) (-0.0001547646026611328, 0.5234375) (-0.00015516055297851562, 0.525390625) (-0.00015534216308593749, 0.52734375) (-0.00015530949401855467, 0.529296875) (-0.00015507345581054687, 0.53125) (-0.00015464364624023436, 0.533203125) (-0.00015402679443359373, 0.53515625) (-0.00015322221374511718, 0.537109375) (-0.00015222003173828125, 0.5390625) (-0.00015101220703124998, 0.541015625) (-0.00014959278869628906, 0.54296875) (-0.00014795764160156248, 0.544921875) (-0.0001461062774658203, 0.546875) (-0.0001440378875732422, 0.548828125) (-0.00014174888610839843, 0.55078125) (-0.00013924172973632813, 0.552734375) (-0.00013652404785156248, 0.5546875) (-0.00013359228515625, 0.556640625) (-0.00013043695068359375, 0.55859375) (-0.00012703390502929687, 0.560546875) (-0.00012334149169921873, 0.5625) (-0.0001193388442993164, 0.564453125) (-0.00011502670288085937, 0.56640625) (-0.0001104173583984375, 0.568359375) (-0.00010554206848144531, 0.5703125) (-0.00010044021606445312, 0.572265625) (-9.515451049804687e-05, 0.57421875) (-8.974451446533203e-05, 0.576171875) (-8.428227233886719e-05, 0.578125) (-7.883315277099609e-05, 0.580078125) (-7.346089935302734e-05, 0.58203125) (-6.821920013427735e-05, 0.583984375) (-6.31485595703125e-05, 0.5859375) (-5.830349731445312e-05, 0.587890625) (-5.374494934082031e-05, 0.58984375) (-4.9545249938964843e-05, 0.591796875) (-4.579457092285156e-05, 0.59375) (-4.255510330200195e-05, 0.595703125) (-3.985956573486328e-05, 0.59765625) (-3.77270393371582e-05, 0.599609375) (-3.615037536621094e-05, 0.6015625) (-3.5106857299804686e-05, 0.603515625) (-3.45662841796875e-05, 0.60546875) (-3.447149658203125e-05, 0.607421875) (-3.47479248046875e-05, 0.609375) (-3.533724594116211e-05, 0.611328125) (-3.6189567565917965e-05, 0.61328125) (-3.7265380859375e-05, 0.615234375) (-3.8542343139648434e-05, 0.6171875) (-3.9989620208740234e-05, 0.619140625) (-4.157656478881836e-05, 0.62109375) (-4.327150726318359e-05, 0.623046875) (-4.502546310424805e-05, 0.625) (-4.68061408996582e-05, 0.626953125) (-4.859877777099609e-05, 0.62890625) (-5.0396659851074215e-05, 0.630859375) (-5.2219635009765625e-05, 0.6328125) (-5.409548950195312e-05, 0.634765625) (-5.6049674987792966e-05, 0.63671875) (-5.812338256835937e-05, 0.638671875) (-6.0358734130859375e-05, 0.640625) (-6.277257537841797e-05, 0.642578125) (-6.536893463134766e-05, 0.64453125) (-6.81370391845703e-05, 0.646484375) (-7.103952026367187e-05, 0.6484375) (-7.403289794921875e-05, 0.650390625) (-7.705772399902343e-05, 0.65234375) (-8.003959655761719e-05, 0.654296875) (-8.292227172851563e-05, 0.65625) (-8.564821624755859e-05, 0.658203125) (-8.815594482421874e-05, 0.66015625) (-9.038261413574218e-05, 0.662109375) (-9.224159240722656e-05, 0.6640625) (-9.364933776855469e-05, 0.666015625) (-9.453895568847655e-05, 0.66796875) (-9.484642791748047e-05, 0.669921875) (-9.45222930908203e-05, 0.671875) (-9.354053497314452e-05, 0.673828125) (-9.188415527343749e-05, 0.67578125) (-8.955248260498046e-05, 0.677734375) (-8.657875061035155e-05, 0.6796875) (-8.301171875e-05, 0.681640625) (-7.892432403564453e-05, 0.68359375) (-7.44124298095703e-05, 0.685546875) (-6.955252075195312e-05, 0.6875) (-6.441458892822266e-05, 0.689453125) (-5.906953430175781e-05, 0.69140625) (-5.358661651611328e-05, 0.693359375) (-4.805293273925781e-05, 0.6953125) (-4.255126953125e-05, 0.697265625) (-3.71447639465332e-05, 0.69921875) (-3.188668823242187e-05, 0.701171875) (-2.6820671081542967e-05, 0.703125) (-2.1980447769165038e-05, 0.705078125) (-1.740004539489746e-05, 0.70703125) (-1.3105596542358397e-05, 0.708984375) (-9.096686363220214e-06, 0.7109375) (-5.362072467803955e-06, 0.712890625) (-1.8760894536972046e-06, 0.71484375) (1.4018774032592774e-06, 0.716796875) (4.494327545166016e-06, 0.71875) (7.415010452270507e-06, 0.720703125) (1.0178290367126464e-05, 0.72265625) (1.2794373512268066e-05, 0.724609375) (1.527980327606201e-05, 0.7265625) (1.76489200592041e-05, 0.728515625) (1.990238571166992e-05, 0.73046875) (2.2032873153686522e-05, 0.732421875) (2.403412055969238e-05, 0.734375) (2.5900272369384763e-05, 0.736328125) (2.762924575805664e-05, 0.73828125) (2.9219512939453125e-05, 0.740234375) (3.065729141235351e-05, 0.7421875) (3.19256706237793e-05, 0.744140625) (3.3005973815917966e-05, 0.74609375) (3.3876026153564454e-05, 0.748046875) (3.452440643310547e-05, 0.75) (3.4946334838867185e-05, 0.751953125) (3.5137733459472654e-05, 0.75390625) (3.509904098510742e-05, 0.755859375) (3.483319091796875e-05, 0.7578125) (3.434529876708984e-05, 0.759765625) (3.3647575378417964e-05, 0.76171875) (3.275747680664062e-05, 0.763671875) (3.1689891815185544e-05, 0.765625) (3.04588623046875e-05, 0.767578125) (2.9078094482421874e-05, 0.76953125) (2.756043243408203e-05, 0.771484375) (2.5922807693481443e-05, 0.7734375) (2.4183744430541992e-05, 0.775390625) (2.2361003875732422e-05, 0.77734375) (2.0472707748413085e-05, 0.779296875) (1.8535558700561524e-05, 0.78125) (1.656514549255371e-05, 0.783203125) (1.4577445983886717e-05, 0.78515625) (1.2587690353393554e-05, 0.787109375) (1.0609123229980468e-05, 0.7890625) (8.654117584228516e-06, 0.791015625) (6.733533859252929e-06, 0.79296875) (4.856548309326172e-06, 0.794921875) (3.0328917503356933e-06, 0.796875) (1.2719730138778687e-06, 0.798828125) (-4.18111115694046e-07, 0.80078125) (-2.0299842357635495e-06, 0.802734375) (-3.557450294494629e-06, 0.8046875) (-4.9957122802734374e-06, 0.806640625) (-6.3406000137329095e-06, 0.80859375) (-7.5887746810913085e-06, 0.810546875) (-8.738752365112304e-06, 0.8125) (-9.790454864501953e-06, 0.814453125) (-1.0744960784912108e-05, 0.81640625) (-1.1604705810546874e-05, 0.818359375) (-1.2372966766357422e-05, 0.8203125) (-1.3053861618041992e-05, 0.822265625) (-1.3652754783630371e-05, 0.82421875) (-1.4175899505615233e-05, 0.826171875) (-1.4629955291748046e-05, 0.828125) (-1.5022079467773438e-05, 0.830078125) (-1.535967254638672e-05, 0.83203125) (-1.5650430679321288e-05, 0.833984375) (-1.590274429321289e-05, 0.8359375) (-1.6125349044799803e-05, 0.837890625) (-1.6327026367187498e-05, 0.83984375) (-1.651654052734375e-05, 0.841796875) (-1.6702659606933594e-05, 0.84375) (-1.689432907104492e-05, 0.845703125) (-1.710088348388672e-05, 0.84765625) (-1.7331630706787107e-05, 0.849609375) (-1.7595355987548826e-05, 0.8515625) (-1.7899969100952148e-05, 0.853515625) (-1.8252254486083984e-05, 0.85546875) (-1.8658737182617186e-05, 0.857421875) (-1.912553787231445e-05, 0.859375) (-1.96580753326416e-05, 0.861328125) (-2.0261322021484373e-05, 0.86328125) (-2.0938190460205077e-05, 0.865234375) (-2.1689397811889646e-05, 0.8671875) (-2.251481246948242e-05, 0.869140625) (-2.3413133621215818e-05, 0.87109375) (-2.438160705566406e-05, 0.873046875) (-2.5417398452758788e-05, 0.875) (-2.6516254425048827e-05, 0.876953125) (-2.767205810546875e-05, 0.87890625) (-2.8880062103271484e-05, 0.880859375) (-3.013557434082031e-05, 0.8828125) (-3.143465805053711e-05, 0.884765625) (-3.277621841430664e-05, 0.88671875) (-3.415762329101562e-05, 0.888671875) (-3.557442474365234e-05, 0.890625) (-3.7021041870117186e-05, 0.892578125) (-3.8487091064453124e-05, 0.89453125) (-3.9961959838867186e-05, 0.896484375) (-4.143953704833984e-05, 0.8984375) (-4.291227340698242e-05, 0.900390625) (-4.437290954589844e-05, 0.90234375) (-4.581765747070312e-05, 0.904296875) (-4.7236595153808594e-05, 0.90625) (-4.861973190307617e-05, 0.908203125) (-4.996194839477539e-05, 0.91015625) (-5.124988555908203e-05, 0.912109375) (-5.246778106689453e-05, 0.9140625) (-5.3599037170410155e-05, 0.916015625) (-5.4615070343017576e-05, 0.91796875) (-5.548792266845703e-05, 0.919921875) (-5.6197601318359374e-05, 0.921875) (-5.672945404052734e-05, 0.923828125) (-5.7088783264160155e-05, 0.92578125) (-5.7287990570068356e-05, 0.927734375) (-5.732707214355468e-05, 0.9296875) (-5.720278167724609e-05, 0.931640625) (-5.689914703369141e-05, 0.93359375) (-5.640055084228515e-05, 0.935546875) (-5.572522354125976e-05, 0.9375) (-5.489648818969726e-05, 0.939453125) (-5.393300247192382e-05, 0.94140625) (-5.2868530273437495e-05, 0.943359375) (-5.169873046875e-05, 0.9453125) (-5.043912506103515e-05, 0.947265625) (-4.9200599670410154e-05, 0.94921875) (-4.8035884857177734e-05, 0.951171875) (-4.692162322998047e-05, 0.953125) (-4.576371765136719e-05, 0.955078125) (-4.426522064208984e-05, 0.95703125) (-4.2151649475097655e-05, 0.958984375) (-3.942821502685547e-05, 0.9609375) (-3.611731338500976e-05, 0.962890625) (-3.219770812988281e-05, 0.96484375) (-2.7873167037963867e-05, 0.966796875) (-2.3352001190185546e-05, 0.96875) (-1.9094400405883787e-05, 0.970703125) (-1.6158607482910157e-05, 0.97265625) (-1.53918399810791e-05, 0.974609375) (-1.7010112762451172e-05, 0.9765625) (-2.0958358764648437e-05, 0.978515625) (-2.6798561096191404e-05, 0.98046875) (-3.3724044799804685e-05, 0.982421875) (-4.094088363647461e-05, 0.984375) (-4.6954494476318355e-05, 0.986328125) (-4.940557861328125e-05, 0.98828125) (-4.629869079589843e-05, 0.990234375) (-3.7279628753662105e-05, 0.9921875) (-2.365742492675781e-05, 0.994140625) (-7.106535911560058e-06, 0.99609375) (1.1400336265563964e-05, 0.998046875) (3.38358268737793e-05, 1.0) (6.305989837646485e-05, 1.001953125) (9.796543884277343e-05, 1.00390625) (0.000132862060546875, 1.005859375) (0.0001568806915283203, 1.0078125) (0.00015900103759765625, 1.009765625) (0.00013551055908203125, 1.01171875) (9.097904205322265e-05, 1.013671875) (3.6830394744873045e-05, 1.015625) (-1.4758242607116698e-05, 1.017578125) (-5.659542846679687e-05, 1.01953125) (-8.710458374023437e-05, 1.021484375) (-0.00010879019165039062, 1.0234375) (-0.0001239874725341797, 1.025390625) (-0.00013322140502929688, 1.02734375) (-0.00013576464843749998, 1.029296875) (-0.0001302088623046875, 1.03125) (-0.0001168534927368164, 1.033203125) (-9.764141845703124e-05, 1.03515625) (-7.512979125976563e-05, 1.037109375) (-5.2441635131835933e-05, 1.0390625) (-3.184702301025391e-05, 1.041015625) (-1.4482006072998046e-05, 1.04296875) (-1.070169687271118e-06, 1.044921875) (8.014852523803711e-06, 1.046875) (1.2638637542724608e-05, 1.048828125) (1.305672264099121e-05, 1.05078125) (1.019282817840576e-05, 1.052734375) (5.537202835083008e-06, 1.0546875) (5.134456157684326e-07, 1.056640625) (-3.970293045043945e-06, 1.05859375) (-7.454272270202636e-06, 1.060546875) (-9.615208625793457e-06, 1.0625) (-1.0057421684265136e-05, 1.064453125) (-8.621009826660155e-06, 1.06640625) (-5.499884605407715e-06, 1.068359375) (-1.2538530826568603e-06, 1.0703125) (3.3509330749511717e-06, 1.072265625) (7.854143619537352e-06, 1.07421875) (1.2127437591552735e-05, 1.076171875) (1.608998680114746e-05, 1.078125) (1.963098907470703e-05, 1.080078125) (2.2690338134765624e-05, 1.08203125) (2.5248157501220704e-05, 1.083984375) (2.7434322357177734e-05, 1.0859375) (2.9540164947509764e-05, 1.087890625) (3.172511863708496e-05, 1.08984375) (3.4021190643310544e-05, 1.091796875) (3.642795181274414e-05, 1.09375) (3.889804077148437e-05, 1.095703125) (4.1409988403320313e-05, 1.09765625) (4.398051452636719e-05, 1.099609375) (4.658849334716796e-05, 1.1015625) (4.9174880981445313e-05, 1.103515625) (5.170228576660156e-05, 1.10546875) (5.4139621734619136e-05, 1.107421875) (5.647178268432617e-05, 1.109375) (5.8711891174316404e-05, 1.111328125) (6.085415649414062e-05, 1.11328125) (6.288777542114258e-05, 1.115234375) (6.480972290039063e-05, 1.1171875) (6.661031341552734e-05, 1.119140625) (6.828792572021484e-05, 1.12109375) (6.984907531738281e-05, 1.123046875) (7.129822540283203e-05, 1.125) (7.264273071289063e-05, 1.126953125) (7.389179992675781e-05, 1.12890625) (7.504781341552735e-05, 1.130859375) (7.611164855957031e-05, 1.1328125) (7.70866241455078e-05, 1.134765625) (7.797561645507812e-05, 1.13671875) (7.878575897216796e-05, 1.138671875) (7.952490234374999e-05, 1.140625) (8.019814300537109e-05, 1.142578125) (8.08135757446289e-05, 1.14453125) (8.138057708740234e-05, 1.146484375) (8.190914916992188e-05, 1.1484375) (8.241180419921874e-05, 1.150390625) (8.289876556396483e-05, 1.15234375) (8.337686157226562e-05, 1.154296875) (8.385256958007813e-05, 1.15625) (8.433113098144531e-05, 1.158203125) (8.481703186035155e-05, 1.16015625) (8.531638336181641e-05, 1.162109375) (8.583534240722656e-05, 1.1640625) (8.637891387939453e-05, 1.166015625) (8.695240783691406e-05, 1.16796875) (8.756063842773437e-05, 1.169921875) (8.82076644897461e-05, 1.171875) (8.889776611328124e-05, 1.173828125) (8.963440704345702e-05, 1.17578125) (9.041934204101562e-05, 1.177734375) (9.12532958984375e-05, 1.1796875) (9.21359634399414e-05, 1.181640625) (9.306625366210938e-05, 1.18359375) (9.404291534423828e-05, 1.185546875) (9.506416320800781e-05, 1.1875) (9.612750244140624e-05, 1.189453125) (9.72299575805664e-05, 1.19140625) (9.836813354492187e-05, 1.193359375) (9.953811645507812e-05, 1.1953125) (0.00010073558044433594, 1.197265625) (0.00010195570373535156, 1.19921875) (0.0001031930923461914, 1.201171875) (0.00010444195556640625, 1.203125) (0.00010569610595703125, 1.205078125) (0.00010694889831542969, 1.20703125) (0.00010819346618652344, 1.208984375) (0.00010942282104492187, 1.2109375) (0.00011062987518310546, 1.212890625) (0.00011180770111083984, 1.21484375) (0.00011294960021972656, 1.216796875) (0.00011404901885986327, 1.21875) (0.0001150996856689453, 1.220703125) (0.00011609570312499999, 1.22265625) (0.00011703146362304687, 1.224609375) (0.00011790180969238281, 1.2265625) (0.00011870203399658203, 1.228515625) (0.00011942782592773437, 1.23046875) (0.00012007524108886718, 1.232421875) (0.00012064093017578125, 1.234375) (0.00012112196350097656, 1.236328125) (0.00012151596069335937, 1.23828125) (0.00012182121276855469, 1.240234375) (0.00012203666687011719, 1.2421875) (0.00012216184997558593, 1.244140625) (0.00012219694519042967, 1.24609375) (0.00012214276123046874, 1.248046875) (0.00012200071716308593, 1.25) (0.00012177279663085937, 1.251953125) (0.00012146160888671875, 1.25390625) (0.0001210701904296875, 1.255859375) (0.00012060214233398437, 1.2578125) (0.00012006145477294921, 1.259765625) (0.00011945254516601562, 1.26171875) (0.00011878024291992187, 1.263671875) (0.00011804974365234375, 1.265625) (0.00011726656341552734, 1.267578125) (0.0001164365463256836, 1.26953125) (0.00011556571960449219, 1.271484375) (0.00011466033172607421, 1.2734375) (0.00011372669982910156, 1.275390625) (0.0001127712173461914, 1.27734375) (0.00011180014038085937, 1.279296875) (0.00011081971740722656, 1.28125) (0.00010983593749999999, 1.283203125) (0.00010885454559326172, 1.28515625) (0.00010788101196289062, 1.287109375) (0.00010692041015625, 1.2890625) (0.00010597749328613281, 1.291015625) (0.000105056640625, 1.29296875) (0.00010416179656982422, 1.294921875) (0.0001032964630126953, 1.296875) (0.00010246368408203124, 1.298828125) (0.00010166600036621094, 1.30078125) (0.0001009054946899414, 1.302734375) (0.00010018363952636718, 1.3046875) (9.950135803222656e-05, 1.306640625) (9.885900115966797e-05, 1.30859375) (9.825625610351562e-05, 1.310546875) (9.769227600097656e-05, 1.3125) (9.716561126708984e-05, 1.314453125) (9.66742935180664e-05, 1.31640625) (9.621580505371094e-05, 1.318359375) (9.578715515136719e-05, 1.3203125) (9.53848876953125e-05, 1.322265625) (9.500512695312499e-05, 1.32421875) (9.464360046386718e-05, 1.326171875) (9.4295654296875e-05, 1.328125) (9.395623779296874e-05, 1.330078125) (9.361994934082031e-05, 1.33203125) (9.3281005859375e-05, 1.333984375) (9.293331909179688e-05, 1.3359375) (9.257056427001953e-05, 1.337890625) (9.21861114501953e-05, 1.33984375) (9.177320098876952e-05, 1.341796875) (9.132491302490234e-05, 1.34375) (9.083428955078125e-05, 1.345703125) (9.029439544677733e-05, 1.34765625) (8.969834899902343e-05, 1.349609375) (8.903945922851562e-05, 1.3515625) (8.831120300292968e-05, 1.353515625) (8.750730895996093e-05, 1.35546875) (8.662191009521484e-05, 1.357421875) (8.564945983886719e-05, 1.359375) (8.458485412597656e-05, 1.361328125) (8.342352294921875e-05, 1.36328125) (8.216143798828125e-05, 1.365234375) (8.079520416259765e-05, 1.3671875) (7.932209014892578e-05, 1.369140625) (7.774005889892577e-05, 1.37109375) (7.604783630371093e-05, 1.373046875) (7.424490356445312e-05, 1.375) (7.233148193359375e-05, 1.376953125) (7.03084716796875e-05, 1.37890625) (6.817752075195312e-05, 1.380859375) (6.594090270996094e-05, 1.3828125) (6.36015510559082e-05, 1.384765625) (6.116302490234375e-05, 1.38671875) (5.8629482269287104e-05, 1.388671875) (5.600564193725586e-05, 1.390625) (5.329692840576172e-05, 1.392578125) (5.050939559936523e-05, 1.39453125) (4.764975357055664e-05, 1.396484375) (4.472548675537109e-05, 1.3984375) (4.174478912353515e-05, 1.400390625) (3.871659851074219e-05, 1.40234375) (3.5650680541992184e-05, 1.404296875) (3.2557437896728515e-05, 1.40625) (2.9447845458984375e-05, 1.408203125) (2.6333557128906248e-05, 1.41015625) (2.3226745605468748e-05, 1.412109375) (2.013992691040039e-05, 1.4140625) (1.7085937499999998e-05, 1.416015625) (1.407773208618164e-05, 1.41796875) (1.1128211975097656e-05, 1.419921875) (8.250441551208495e-06, 1.421875) (5.45743989944458e-06, 1.423828125) (2.7619030475616454e-06, 1.42578125) (1.7624181509017943e-07, 1.427734375) (-2.2875943183898925e-06, 1.4296875) (-4.618279457092285e-06, 1.431640625) (-6.804957389831543e-06, 1.43359375) (-8.837408065795898e-06, 1.435546875) (-1.0706327438354492e-05, 1.4375) (-1.2403188705444335e-05, 1.439453125) (-1.3920150756835937e-05, 1.44140625) (-1.5250201225280762e-05, 1.443359375) (-1.6386806488037108e-05, 1.4453125) (-1.732387351989746e-05, 1.447265625) (-1.8056184768676756e-05, 1.44921875) (-1.8579177856445313e-05, 1.451171875) (-1.8889083862304686e-05, 1.453125) (-1.8983278274536133e-05, 1.455078125) (-1.8859846115112304e-05, 1.45703125) (-1.8517694473266602e-05, 1.458984375) (-1.7957084655761718e-05, 1.4609375) (-1.7179410934448242e-05, 1.462890625) (-1.6187248229980468e-05, 1.46484375) (-1.4984547615051269e-05, 1.466796875) (-1.3575687408447265e-05, 1.46875) (-1.1965277671813964e-05, 1.470703125) (-1.015929889678955e-05, 1.47265625) (-8.164838790893554e-06, 1.474609375) (-5.990042209625244e-06, 1.4765625) (-3.6446127891540528e-06, 1.478515625) (-1.1380059719085694e-06, 1.48046875) (1.52091908454895e-06, 1.482421875) (4.322755336761474e-06, 1.484375) (7.258134841918945e-06, 1.486328125) (1.031791877746582e-05, 1.48828125) (1.3493045806884765e-05, 1.490234375) (1.677497100830078e-05, 1.4921875) (2.0155529022216796e-05, 1.494140625) (2.3625324249267578e-05, 1.49609375) (2.7173091888427733e-05, 1.498046875) (3.078549003601074e-05, 1.5) (3.444621276855469e-05, 1.501953125) (3.8138122558593746e-05, 1.50390625) (4.18439826965332e-05, 1.505859375) (4.5547264099121095e-05, 1.5078125) (4.9233642578124995e-05, 1.509765625) (5.2887939453125e-05, 1.51171875) (5.649395751953125e-05, 1.513671875) (6.003468322753906e-05, 1.515625) (6.349243927001952e-05, 1.517578125) (6.684989166259765e-05, 1.51953125) (7.008805084228516e-05, 1.521484375) (7.318893432617187e-05, 1.5234375) (7.613668823242188e-05, 1.525390625) (7.891874694824218e-05, 1.52734375) (8.153092193603515e-05, 1.529296875) (8.39776382446289e-05, 1.53125) (8.626994323730468e-05, 1.533203125) (8.842327117919922e-05, 1.53515625) (9.045791625976562e-05, 1.537109375) (9.238409423828124e-05, 1.5390625) (9.419850158691406e-05, 1.541015625) (9.590130615234374e-05, 1.54296875) (9.748717498779297e-05, 1.544921875) (9.896108245849609e-05, 1.546875) (0.00010035108947753905, 1.548828125) (0.00010167022705078125, 1.55078125) (0.00010291967010498047, 1.552734375) (0.00010410867309570312, 1.5546875) (0.00010523747253417968, 1.556640625) (0.00010629994964599608, 1.55859375) (0.00010729875183105468, 1.560546875) (0.00010818061065673828, 1.5625) (0.00010881493377685546, 1.564453125) (0.00010913188171386718, 1.56640625) (0.00010914268493652344, 1.568359375) (0.00010892581939697266, 1.5703125) (0.00010869007873535156, 1.572265625) (0.0001086537628173828, 1.57421875) (0.00010894904327392577, 1.576171875) (0.00010972341918945312, 1.578125) (0.00011115788269042968, 1.580078125) (0.00011323791503906249, 1.58203125) (0.00011563531494140625, 1.583984375) (0.00011781305694580078, 1.5859375) (0.00011900542449951172, 1.587890625) (0.00011818839263916015, 1.58984375) (0.00011446189880371093, 1.591796875) (0.000107388427734375, 1.59375) (9.659852600097655e-05, 1.595703125) (8.278773498535156e-05, 1.59765625) (6.840347290039062e-05, 1.599609375) (5.48558349609375e-05, 1.6015625) (4.309877777099609e-05, 1.603515625) (3.3909339904785155e-05, 1.60546875) (2.4949169158935545e-05, 1.607421875) (1.6348869323730467e-05, 1.609375) (1.205448055267334e-05, 1.611328125) (1.549691390991211e-05, 1.61328125) (3.3453155517578124e-05, 1.615234375) (7.117239379882812e-05, 1.6171875) (0.000126217529296875, 1.619140625) (0.00019326889038085937, 1.62109375) (0.0002608671264648437, 1.623046875) (0.0003107483825683594, 1.625) (0.00032793652343749997, 1.626953125) (0.00030262136840820313, 1.62890625) (0.0002336601104736328, 1.630859375) (0.00013568240356445313, 1.6328125) (3.078425216674804e-05, 1.634765625) (-6.0187004089355466e-05, 1.63671875) (-0.00012206204223632812, 1.638671875) (-0.0001537406463623047, 1.640625) (-0.00016497686767578124, 1.642578125) (-0.00016739283752441406, 1.64453125) (-0.0001699636993408203, 1.646484375) (-0.0001746544189453125, 1.6484375) (-0.00017719009399414063, 1.650390625) (-0.00017229318237304688, 1.65234375) (-0.0001575997314453125, 1.654296875) (-0.00013427398681640625, 1.65625) (-0.00010614799499511718, 1.658203125) (-7.774208068847656e-05, 1.66015625) (-5.158900451660156e-05, 1.662109375) (-2.8751487731933593e-05, 1.6640625) (-9.608494758605957e-06, 1.666015625) (6.031239986419678e-06, 1.66796875) (1.801579475402832e-05, 1.669921875) (2.6309799194335935e-05, 1.671875) (3.1640697479248045e-05, 1.673828125) (3.494281005859375e-05, 1.67578125) (3.707477188110351e-05, 1.677734375) (3.892718505859375e-05, 1.6796875) (4.090553283691406e-05, 1.681640625) (4.315299606323242e-05, 1.68359375) (4.603485870361328e-05, 1.685546875) (4.9665939331054684e-05, 1.6875) (5.381929016113281e-05, 1.689453125) (5.819168853759765e-05, 1.69140625) (6.22922019958496e-05, 1.693359375) (6.551862335205078e-05, 1.6953125) (6.761630249023437e-05, 1.697265625) (6.849079895019531e-05, 1.69921875) (6.796992492675781e-05, 1.701171875) (6.608192443847655e-05, 1.703125) (6.294722366333008e-05, 1.705078125) (5.868303298950195e-05, 1.70703125) (5.359307861328125e-05, 1.708984375) (4.806310272216797e-05, 1.7109375) (4.234658050537109e-05, 1.712890625) (3.665688705444336e-05, 1.71484375) (3.11871452331543e-05, 1.716796875) (2.600514793395996e-05, 1.71875) (2.1164054870605468e-05, 1.720703125) (1.6707828521728514e-05, 1.72265625) (1.259675121307373e-05, 1.724609375) (8.795587539672852e-06, 1.7265625) (5.2906956672668455e-06, 1.728515625) (2.0593681335449218e-06, 1.73046875) (-8.92031192779541e-07, 1.732421875) (-3.5485105514526365e-06, 1.734375) (-5.909445762634277e-06, 1.736328125) (-7.960142135620117e-06, 1.73828125) (-9.697619438171386e-06, 1.740234375) (-1.1149223327636718e-05, 1.7421875) (-1.2348493576049804e-05, 1.744140625) (-1.3348329544067382e-05, 1.74609375) (-1.4208930015563964e-05, 1.748046875) (-1.4947669982910155e-05, 1.75) (-1.5556904792785645e-05, 1.751953125) (-1.6009265899658203e-05, 1.75390625) (-1.6250247955322265e-05, 1.755859375) (-1.6245346069335936e-05, 1.7578125) (-1.5969600677490233e-05, 1.759765625) (-1.539126396179199e-05, 1.76171875) (-1.4501646041870117e-05, 1.763671875) (-1.3304525375366211e-05, 1.765625) (-1.1819046020507812e-05, 1.767578125) (-1.0096427917480468e-05, 1.76953125) (-8.180132865905762e-06, 1.771484375) (-6.090174674987793e-06, 1.7734375) (-3.841601848602294e-06, 1.775390625) (-1.4323441982269287e-06, 1.77734375) (1.1452429294586182e-06, 1.779296875) (3.8719024658203125e-06, 1.78125) (6.719545841217041e-06, 1.783203125) (9.652002334594727e-06, 1.78515625) (1.26127872467041e-05, 1.787109375) (1.555880355834961e-05, 1.7890625) (1.8454944610595703e-05, 1.791015625) (2.1260486602783203e-05, 1.79296875) (2.3953651428222656e-05, 1.794921875) (2.6527042388916015e-05, 1.796875) (2.8987207412719726e-05, 1.798828125) (3.13663272857666e-05, 1.80078125) (3.3693241119384764e-05, 1.802734375) (3.597871398925781e-05, 1.8046875) (3.8228015899658205e-05, 1.806640625) (4.043536376953125e-05, 1.80859375) (4.258877182006836e-05, 1.810546875) (4.468587493896484e-05, 1.8125) (4.672230529785156e-05, 1.814453125) (4.8690845489501954e-05, 1.81640625) (5.059490585327148e-05, 1.818359375) (5.243466186523437e-05, 1.8203125) (5.420773315429687e-05, 1.822265625) (5.591680908203125e-05, 1.82421875) (5.755553436279297e-05, 1.826171875) (5.910943222045898e-05, 1.828125) (6.055884170532226e-05, 1.830078125) (6.18730354309082e-05, 1.83203125) (6.302206420898437e-05, 1.833984375) (6.398556518554687e-05, 1.8359375) (6.47469482421875e-05, 1.837890625) (6.529421997070313e-05, 1.83984375) (6.562030029296875e-05, 1.841796875) (6.571759033203125e-05, 1.84375) (6.558235931396484e-05, 1.845703125) (6.521637725830078e-05, 1.84765625) (6.461869812011719e-05, 1.849609375) (6.37873878479004e-05, 1.8515625) (6.272076416015625e-05, 1.853515625) (6.141497802734374e-05, 1.85546875) (5.986857604980468e-05, 1.857421875) (5.808328628540039e-05, 1.859375) (5.606163024902343e-05, 1.861328125) (5.380837249755859e-05, 1.86328125) (5.132944107055664e-05, 1.865234375) (4.862933731079101e-05, 1.8671875) (4.57122573852539e-05, 1.869140625) (4.2582515716552735e-05, 1.87109375) (3.924329376220703e-05, 1.873046875) (3.569770812988281e-05, 1.875) (3.194842529296875e-05, 1.876953125) (2.799665069580078e-05, 1.87890625) (2.384428596496582e-05, 1.880859375) (1.9494586944580077e-05, 1.8828125) (1.4951496124267577e-05, 1.884765625) (1.0220029830932618e-05, 1.88671875) (5.305825233459473e-06, 1.888671875) (2.1454715728759766e-07, 1.890625) (-5.047558307647705e-06, 1.892578125) (-1.0473617553710937e-05, 1.89453125) (-1.605697250366211e-05, 1.896484375) (-2.179102325439453e-05, 1.8984375) (-2.7668996810913085e-05, 1.900390625) (-3.368412399291992e-05, 1.90234375) (-3.982932662963867e-05, 1.904296875) (-4.60972900390625e-05, 1.90625) (-5.248059463500976e-05, 1.908203125) (-5.897133636474609e-05, 1.91015625) (-6.556087493896484e-05, 1.912109375) (-7.223983764648437e-05, 1.9140625) (-7.8998291015625e-05, 1.916015625) (-8.582590484619141e-05, 1.91796875) (-9.271188354492186e-05, 1.919921875) (-9.96447525024414e-05, 1.921875) (-0.00010661220550537109, 1.923828125) (-0.00011360137939453124, 1.92578125) (-0.00012059884643554687, 1.927734375) (-0.00012759066772460937, 1.9296875) (-0.00013456234741210938, 1.931640625) (-0.0001414985809326172, 1.93359375) (-0.00014838331604003906, 1.935546875) (-0.00015519979858398436, 1.9375) (-0.00016193019104003906, 1.939453125) (-0.00016855590820312498, 1.94140625) (-0.0001750577392578125, 1.943359375) (-0.00018141598510742186, 1.9453125) (-0.00018761112976074218, 1.947265625) (-0.00019362338256835937, 1.94921875) (-0.00019943197631835938, 1.951171875) (-0.0002050154113769531, 1.953125) (-0.0002103519592285156, 1.955078125) (-0.00021541976928710936, 1.95703125) (-0.0002201980285644531, 1.958984375) (-0.00022466685485839842, 1.9609375) (-0.0002288056945800781, 1.962890625) (-0.00023259396362304688, 1.96484375) (-0.0002360117492675781, 1.966796875) (-0.00023904046630859375, 1.96875) (-0.0002416648712158203, 1.970703125) (-0.00024387155151367186, 1.97265625) (-0.0002456478271484375, 1.974609375) (-0.00024698028564453125, 1.9765625) (-0.0002478541259765625, 1.978515625) (-0.00024825631713867185, 1.98046875) (-0.00024817904663085934, 1.982421875) (-0.00024761929321289063, 1.984375) (-0.0002465752258300781, 1.986328125) (-0.0002450437927246094, 1.98828125) (-0.00024301701354980466, 1.990234375) (-0.00024048370361328124, 1.9921875) (-0.00023743939208984373, 1.994140625) (-0.00023388499450683592, 1.99609375) (-0.00022982170104980467, 1.998046875) (-0.00022524798583984374, 2.0) (-0.00022015765380859373, 2.001953125) (-0.00021454586791992187, 2.00390625) (-0.0002084171142578125, 2.005859375) (-0.00020179034423828125, 2.0078125) (-0.00019469177246093748, 2.009765625) (-0.00018714512634277343, 2.01171875) (-0.00017916490173339842, 2.013671875) (-0.00017075265502929687, 2.015625) (-0.00016190798950195312, 2.017578125) (-0.00015264329528808594, 2.01953125) (-0.00014299301147460938, 2.021484375) (-0.0001330097198486328, 2.0234375) (-0.00012274510192871092, 2.025390625) (-0.00011223161315917968, 2.02734375) (-0.00010148143005371093, 2.029296875) (-9.052911376953124e-05, 2.03125) (-7.944541168212891e-05, 2.033203125) (-6.827756500244141e-05, 2.03515625) (-5.703193664550781e-05, 2.037109375) (-4.562416839599609e-05, 2.0390625) (-3.384596252441406e-05, 2.041015625) (-2.1532772064208982e-05, 2.04296875) (-8.672534942626953e-06, 2.044921875) (4.6863355636596674e-06, 2.046875) (1.8470329284667968e-05, 2.048828125) (3.253303527832031e-05, 2.05078125) (4.6764686584472654e-05, 2.052734375) (6.091091156005859e-05, 2.0546875) (7.426148986816406e-05, 2.056640625) (8.615200042724609e-05, 2.05859375) (9.627870941162108e-05, 2.060546875) (0.00010439559173583984, 2.0625) (0.00011071913909912109, 2.064453125) (0.00011580834960937499, 2.06640625) (0.00011970204162597655, 2.068359375) (0.00012367451477050782, 2.0703125) (0.00012999102783203123, 2.072265625) (0.00013953266906738281, 2.07421875) (0.00015359303283691406, 2.076171875) (0.00017031613159179687, 2.078125) (0.0001853506622314453, 2.080078125) (0.000199301025390625, 2.08203125) (0.00021379669189453124, 2.083984375) (0.00023496533203125, 2.0859375) (0.0002711460266113281, 2.087890625) (0.0003195262756347656, 2.08984375) (0.0003711082153320312, 2.091796875) (0.00041039199829101563, 2.09375) (0.00042004257202148435, 2.095703125) (0.0003960076293945312, 2.09765625) (0.00034500949096679686, 2.099609375) (0.0002816137390136719, 2.1015625) (0.0002220408172607422, 2.103515625) (0.0001746110382080078, 2.10546875) (0.00013993106079101563, 2.107421875) (0.00011385326385498046, 2.109375) (9.325983428955078e-05, 2.111328125) (7.821508789062499e-05, 2.11328125) (7.076993560791016e-05, 2.115234375) (7.400695800781249e-05, 2.1171875) (8.831166839599609e-05, 2.119140625) (0.00011141192626953124, 2.12109375) (0.0001404735412597656, 2.123046875) (0.0001719603271484375, 2.125) (0.00020255014038085935, 2.126953125) (0.00022998968505859375, 2.12890625) (0.00025241110229492185, 2.130859375) (0.0002682829895019531, 2.1328125) (0.0002771452331542969, 2.134765625) (0.0002793587646484375, 2.13671875) (0.00027580480957031247, 2.138671875) (0.0002680415649414062, 2.140625) (0.00025797540283203126, 2.142578125) (0.00024729093933105467, 2.14453125) (0.00023733517456054687, 2.146484375) (0.00022921847534179688, 2.1484375) (0.00022352508544921874, 2.150390625) (0.00022037889099121093, 2.15234375) (0.00021960754394531248, 2.154296875) (0.00022066250610351562, 2.15625) (0.00022272543334960938, 2.158203125) (0.00022499212646484373, 2.16015625) (0.00022692063903808593, 2.162109375) (0.0002281392822265625, 2.1640625) (0.00022846073913574219, 2.166015625) (0.00022788812255859374, 2.16796875) (0.00022647991943359374, 2.169921875) (0.00022438121032714842, 2.171875) (0.00022187213134765624, 2.173828125) (0.0002192554931640625, 2.17578125) (0.00021667849731445312, 2.177734375) (0.00021419493103027343, 2.1796875) (0.00021182699584960937, 2.181640625) (0.00020953068542480468, 2.18359375) (0.00020729348754882813, 2.185546875) (0.00020511190795898437, 2.1875) (0.00020289218139648438, 2.189453125) (0.00020049667358398437, 2.19140625) (0.0001978575439453125, 2.193359375) (0.00019496261596679688, 2.1953125) (0.0001916846923828125, 2.197265625) (0.00018789791870117188, 2.19921875) (0.00018368643188476562, 2.201171875) (0.00017904701232910155, 2.203125) (0.0001739720458984375, 2.205078125) (0.0001687926788330078, 2.20703125) (0.0001628001708984375, 2.208984375) (0.00015530610656738281, 2.2109375) (0.00014745574951171875, 2.212890625) (0.00013961950683593748, 2.21484375) (0.00013381393432617187, 2.216796875) (0.00013246324157714843, 2.21875) (0.00013297535705566405, 2.220703125) (0.00013366468811035155, 2.22265625) (0.00013200337219238282, 2.224609375) (0.00012445264434814452, 2.2265625) (0.00011424592590332031, 2.228515625) (0.00010412628936767578, 2.23046875) (9.598067474365234e-05, 2.232421875) (9.289425659179688e-05, 2.234375) (9.2672607421875e-05, 2.236328125) (9.304017639160156e-05, 2.23828125) (9.339871215820313e-05, 2.240234375) (9.230554962158203e-05, 2.2421875) (9.048335266113281e-05, 2.244140625) (8.890206146240234e-05, 2.24609375) (8.735733032226562e-05, 2.248046875) (8.594841766357422e-05, 2.25) (8.455665588378906e-05, 2.251953125) (8.291587829589843e-05, 2.25390625) (8.109041595458983e-05, 2.255859375) (7.914047241210937e-05, 2.2578125) (7.69989013671875e-05, 2.259765625) (7.461958312988281e-05, 2.26171875) (7.196752166748046e-05, 2.263671875) (6.900354766845703e-05, 2.265625) (6.571855926513672e-05, 2.267578125) (6.2163818359375e-05, 2.26953125) (5.8426090240478514e-05, 2.271484375) (5.456941986083984e-05, 2.2734375) (5.0658443450927734e-05, 2.275390625) (4.673881530761719e-05, 2.27734375) (4.282332611083984e-05, 2.279296875) (3.8942901611328126e-05, 2.28125) (3.5138843536376953e-05, 2.283203125) (3.144316864013672e-05, 2.28515625) (2.7883069992065428e-05, 2.287109375) (2.447744560241699e-05, 2.2890625) (2.1242813110351562e-05, 2.291015625) (1.8209423065185547e-05, 2.29296875) (1.5425689697265623e-05, 2.294921875) (1.2931721687316893e-05, 2.296875) (1.073957061767578e-05, 2.298828125) (8.824648857116698e-06, 2.30078125) (7.129951953887939e-06, 2.302734375) (5.610737323760986e-06, 2.3046875) (4.242701053619385e-06, 2.306640625) (3.0092225074768066e-06, 2.30859375) (1.8994767665863037e-06, 2.310546875) (8.951680660247803e-07, 2.3125) (-2.2992461919784544e-08, 2.314453125) (-8.60745370388031e-07, 2.31640625) (-1.6102542877197266e-06, 2.318359375) (-2.2645905017852784e-06, 2.3203125) (-2.8263568878173827e-06, 2.322265625) (-3.309146165847778e-06, 2.32421875) (-3.7391328811645506e-06, 2.326171875) (-4.139594554901123e-06, 2.328125) (-4.520846366882324e-06, 2.330078125) (-4.88165283203125e-06, 2.33203125) (-5.211732864379883e-06, 2.333984375) (-5.505480289459228e-06, 2.3359375) (-5.764132022857666e-06, 2.337890625) (-5.989913940429687e-06, 2.33984375) (-6.184052467346191e-06, 2.341796875) (-6.345771789550781e-06, 2.34375) (-6.47758674621582e-06, 2.345703125) (-6.590520858764648e-06, 2.34765625) (-6.703310966491699e-06, 2.349609375) (-6.833230018615722e-06, 2.3515625) (-6.9922380447387695e-06, 2.353515625) (-7.188338279724121e-06, 2.35546875) (-7.425755023956299e-06, 2.357421875) (-7.709743499755859e-06, 2.359375) (-8.048043251037597e-06, 2.361328125) (-8.44836139678955e-06, 2.36328125) (-8.917797088623046e-06, 2.365234375) (-9.462551116943358e-06, 2.3671875) (-1.0088344573974609e-05, 2.369140625) (-1.0801300048828125e-05, 2.37109375) (-1.160840606689453e-05, 2.373046875) (-1.2516170501708984e-05, 2.375) (-1.3528778076171874e-05, 2.376953125) (-1.4647741317749022e-05, 2.37890625) (-1.5872259140014646e-05, 2.380859375) (-1.7200862884521483e-05, 2.3828125) (-1.863197326660156e-05, 2.384765625) (-2.0163288116455078e-05, 2.38671875) (-2.1791379928588866e-05, 2.388671875) (-2.3511398315429687e-05, 2.390625) (-2.531766891479492e-05, 2.392578125) (-2.72043342590332e-05, 2.39453125) (-2.9165279388427733e-05, 2.396484375) (-3.119340705871582e-05, 2.3984375) (-3.3280319213867185e-05, 2.400390625) (-3.541655731201172e-05, 2.40234375) (-3.759181213378906e-05, 2.404296875) (-3.979524230957031e-05, 2.40625) (-4.2015533447265626e-05, 2.408203125) (-4.424068832397461e-05, 2.41015625) (-4.6458106994628904e-05, 2.412109375) (-4.865510559082031e-05, 2.4140625) (-5.0819091796874995e-05, 2.416015625) (-5.2937652587890625e-05, 2.41796875) (-5.499861526489257e-05, 2.419921875) (-5.699003219604492e-05, 2.421875) (-5.890020370483398e-05, 2.423828125) (-6.0717941284179685e-05, 2.42578125) (-6.243267822265625e-05, 2.427734375) (-6.403425598144531e-05, 2.4296875) (-6.551296997070313e-05, 2.431640625) (-6.685964965820312e-05, 2.43359375) (-6.806564331054687e-05, 2.435546875) (-6.912310791015624e-05, 2.4375) (-7.002519226074218e-05, 2.439453125) (-7.076599884033202e-05, 2.44140625) (-7.134065246582031e-05, 2.443359375) (-7.174528503417969e-05, 2.4453125) (-7.197702026367188e-05, 2.447265625) (-7.20342559814453e-05, 2.44921875) (-7.19166488647461e-05, 2.451171875) (-7.162503814697265e-05, 2.453125) (-7.116128540039062e-05, 2.455078125) (-7.052822875976562e-05, 2.45703125) (-6.972964477539063e-05, 2.458984375) (-6.877059936523437e-05, 2.4609375) (-6.765743255615233e-05, 2.462890625) (-6.639765930175781e-05, 2.46484375) (-6.499983215332031e-05, 2.466796875) (-6.347343063354492e-05, 2.46875) (-6.182886505126953e-05, 2.470703125) (-6.0077499389648436e-05, 2.47265625) (-5.823157501220703e-05, 2.474609375) (-5.6303871154785156e-05, 2.4765625) (-5.430758666992187e-05, 2.478515625) (-5.225619506835937e-05, 2.48046875) (-5.016341400146484e-05, 2.482421875) (-4.8043231964111324e-05, 2.484375) (-4.590980529785156e-05, 2.486328125) (-4.377737426757812e-05, 2.48828125) (-4.1660125732421874e-05, 2.490234375) (-3.957207107543945e-05, 2.4921875) (-3.752698516845703e-05, 2.494140625) (-3.5538475036621094e-05, 2.49609375) (-3.361982345581054e-05, 2.498046875) (-3.17837963104248e-05, 2.5) (-3.0042556762695312e-05, 2.501953125) (-2.8407522201538085e-05, 2.50390625) (-2.688928413391113e-05, 2.505859375) (-2.5497856140136717e-05, 2.5078125) (-2.424259567260742e-05, 2.509765625) (-2.3131967544555664e-05, 2.51171875) (-2.2173507690429687e-05, 2.513671875) (-2.137383270263672e-05, 2.515625) (-2.073855972290039e-05, 2.517578125) (-2.0272525787353514e-05, 2.51953125) (-1.997969055175781e-05, 2.521484375) (-1.986269760131836e-05, 2.5234375) (-1.992281150817871e-05, 2.525390625) (-2.0160018920898438e-05, 2.52734375) (-2.0573036193847657e-05, 2.529296875) (-2.1159484863281247e-05, 2.53125) (-2.1915897369384766e-05, 2.533203125) (-2.2837554931640623e-05, 2.53515625) (-2.391860771179199e-05, 2.537109375) (-2.5152341842651366e-05, 2.5390625) (-2.653125762939453e-05, 2.541015625) (-2.804726791381836e-05, 2.54296875) (-2.969163131713867e-05, 2.544921875) (-3.1454723358154294e-05, 2.546875) (-3.3326190948486324e-05, 2.548828125) (-3.5294986724853515e-05, 2.55078125) (-3.734934997558594e-05, 2.552734375) (-3.947720336914062e-05, 2.5546875) (-4.1666175842285154e-05, 2.556640625) (-4.3903289794921875e-05, 2.55859375) (-4.6175308227539064e-05, 2.560546875) (-4.846906280517578e-05, 2.5625) (-5.077138519287109e-05, 2.564453125) (-5.306951141357422e-05, 2.56640625) (-5.535109710693359e-05, 2.568359375) (-5.760355377197265e-05, 2.5703125) (-5.9814033508300776e-05, 2.572265625) (-6.19700927734375e-05, 2.57421875) (-6.405960083007812e-05, 2.576171875) (-6.607052612304687e-05, 2.578125) (-6.799109649658203e-05, 2.580078125) (-6.98092803955078e-05, 2.58203125) (-7.151290893554687e-05, 2.583984375) (-7.309100341796874e-05, 2.5859375) (-7.453404235839843e-05, 2.587890625) (-7.583342742919922e-05, 2.58984375) (-7.698145294189452e-05, 2.591796875) (-7.797166442871093e-05, 2.59375) (-7.879866790771484e-05, 2.595703125) (-7.945900726318358e-05, 2.59765625) (-7.99511260986328e-05, 2.599609375) (-8.027333068847656e-05, 2.6015625) (-8.042364501953125e-05, 2.603515625) (-8.040013885498047e-05, 2.60546875) (-8.020093536376952e-05, 2.607421875) (-7.98250961303711e-05, 2.609375) (-7.927272033691406e-05, 2.611328125) (-7.854391479492187e-05, 2.61328125) (-7.76393585205078e-05, 2.615234375) (-7.656143951416015e-05, 2.6171875) (-7.531384277343749e-05, 2.619140625) (-7.390351867675781e-05, 2.62109375) (-7.23403091430664e-05, 2.623046875) (-7.063218688964843e-05, 2.625) (-6.87863998413086e-05, 2.626953125) (-6.680853271484374e-05, 2.62890625) (-6.470086669921874e-05, 2.630859375) (-6.246947479248047e-05, 2.6328125) (-6.012503051757812e-05, 2.634765625) (-5.7676940917968744e-05, 2.63671875) (-5.513581848144531e-05, 2.638671875) (-5.251781845092773e-05, 2.640625) (-4.984149551391601e-05, 2.642578125) (-4.7134296417236323e-05, 2.64453125) (-4.4432689666748045e-05, 2.646484375) (-4.176432800292968e-05, 2.6484375) (-3.91493034362793e-05, 2.650390625) (-3.660223770141601e-05, 2.65234375) (-3.412799835205078e-05, 2.654296875) (-3.173293495178223e-05, 2.65625) (-2.9424285888671875e-05, 2.658203125) (-2.720280647277832e-05, 2.66015625) (-2.5069557189941406e-05, 2.662109375) (-2.3025051116943358e-05, 2.6640625) (-2.1065773010253907e-05, 2.666015625) (-1.919664764404297e-05, 2.66796875) (-1.7424869537353516e-05, 2.669921875) (-1.5739131927490233e-05, 2.671875) (-1.41193208694458e-05, 2.673828125) (-1.2528791427612305e-05, 2.67578125) (-1.0908349990844726e-05, 2.677734375) (-9.218262672424316e-06, 2.6796875) (-7.435521602630615e-06, 2.681640625) (-5.537205219268799e-06, 2.68359375) (-3.5196330547332764e-06, 2.685546875) (-1.3879299163818359e-06, 2.6875) (8.489584922790527e-07, 2.689453125) (3.1534533500671387e-06, 2.69140625) (5.473116874694824e-06, 2.693359375) (7.766493797302245e-06, 2.6953125) (9.994450569152832e-06, 2.697265625) (1.2129969596862792e-05, 2.69921875) (1.4154409408569335e-05, 2.701171875) (1.6017391204833985e-05, 2.703125) (1.7652278900146484e-05, 2.705078125) (1.898516082763672e-05, 2.70703125) (1.9917984008789062e-05, 2.708984375) (2.037662124633789e-05, 2.7109375) (2.0308353424072264e-05, 2.712890625) (1.964794921875e-05, 2.71484375) (1.8355365753173827e-05, 2.716796875) (1.6419532775878905e-05, 2.71875) (1.3844776153564452e-05, 2.720703125) (1.0686859130859374e-05, 2.72265625) (7.037079811096191e-06, 2.724609375) (2.968170166015625e-06, 2.7265625) (-1.451585292816162e-06, 2.728515625) (-6.152527809143066e-06, 2.73046875) (-1.1071781158447265e-05, 2.732421875) (-1.6108245849609373e-05, 2.734375) (-2.1136884689331053e-05, 2.736328125) (-2.6046905517578124e-05, 2.73828125) (-3.071678924560547e-05, 2.740234375) (-3.503883361816406e-05, 2.7421875) (-3.892049407958984e-05, 2.744140625) (-4.2245510101318356e-05, 2.74609375) (-4.4916538238525386e-05, 2.748046875) (-4.687683486938476e-05, 2.75) (-4.8092353820800776e-05, 2.751953125) (-4.857764434814453e-05, 2.75390625) (-4.838594055175781e-05, 2.755859375) (-4.7553901672363276e-05, 2.7578125) (-4.611661529541015e-05, 2.759765625) (-4.412965393066406e-05, 2.76171875) (-4.16494140625e-05, 2.763671875) (-3.876309967041016e-05, 2.765625) (-3.558234786987304e-05, 2.767578125) (-3.219023513793945e-05, 2.76953125) (-2.866423988342285e-05, 2.771484375) (-2.5081853866577148e-05, 2.7734375) (-2.1514619827270507e-05, 2.775390625) (-1.8055608749389648e-05, 2.77734375) (-1.4791561126708984e-05, 2.779296875) (-1.1775802612304687e-05, 2.78125) (-9.042516708374024e-06, 2.783203125) (-6.603796958923339e-06, 2.78515625) (-4.4512133598327635e-06, 2.787109375) (-2.5863857269287107e-06, 2.7890625) (-1.0114595890045166e-06, 2.791015625) (2.9547777771949766e-07, 2.79296875) (1.3609572649002075e-06, 2.794921875) (2.225182056427002e-06, 2.796875) (2.9426906108856198e-06, 2.798828125) (3.542799949645996e-06, 2.80078125) (4.042665481567382e-06, 2.802734375) (4.463302612304687e-06, 2.8046875) (4.822893619537353e-06, 2.806640625) (5.147921085357666e-06, 2.80859375) (5.4647803306579584e-06, 2.810546875) (5.782175064086914e-06, 2.8125) (6.0977983474731445e-06, 2.814453125) (6.4088687896728516e-06, 2.81640625) (6.709809303283691e-06, 2.818359375) (6.999038696289062e-06, 2.8203125) (7.276328563690185e-06, 2.822265625) (7.527897834777832e-06, 2.82421875) (7.736373901367187e-06, 2.826171875) (7.882956504821777e-06, 2.828125) (7.945196628570557e-06, 2.830078125) (7.912582874298096e-06, 2.83203125) (7.782524108886718e-06, 2.833984375) (7.5512900352478024e-06, 2.8359375) (7.217852592468262e-06, 2.837890625) (6.782384872436523e-06, 2.83984375) (6.2453861236572265e-06, 2.841796875) (5.613720417022705e-06, 2.84375) (4.899055480957031e-06, 2.845703125) (4.109447002410888e-06, 2.84765625) (3.251441717147827e-06, 2.849609375) (2.3314275741577147e-06, 2.8515625) (1.3549883365631102e-06, 2.853515625) (3.324034810066223e-07, 2.85546875) (-7.233955860137939e-07, 2.857421875) (-1.7996704578399657e-06, 2.859375) (-2.882556676864624e-06, 2.861328125) (-3.959755659103393e-06, 2.86328125) (-5.020838737487792e-06, 2.865234375) (-6.05479907989502e-06, 2.8671875) (-7.051313877105712e-06, 2.869140625) (-8.001983642578124e-06, 2.87109375) (-8.898791313171386e-06, 2.873046875) (-9.736337661743163e-06, 2.875) (-1.0512374877929687e-05, 2.876953125) (-1.1223278999328614e-05, 2.87890625) (-1.186526870727539e-05, 2.880859375) (-1.2435676574707031e-05, 2.8828125) (-1.2930952072143554e-05, 2.884765625) (-1.3349023818969726e-05, 2.88671875) (-1.3689838409423827e-05, 2.888671875) (-1.3951505661010741e-05, 2.890625) (-1.4131926536560058e-05, 2.892578125) (-1.4229925155639649e-05, 2.89453125) (-1.4241640090942382e-05, 2.896484375) (-1.4164505004882811e-05, 2.8984375) (-1.3998513221740722e-05, 2.900390625) (-1.3742006301879882e-05, 2.90234375) (-1.3394502639770508e-05, 2.904296875) (-1.2952844619750976e-05, 2.90625) (-1.240633487701416e-05, 2.908203125) (-1.1744803428649901e-05, 2.91015625) (-1.0961029052734374e-05, 2.912109375) (-1.0046823501586914e-05, 2.9140625) (-8.997833251953124e-06, 2.916015625) (-7.813500881195067e-06, 2.91796875) (-6.493018150329589e-06, 2.919921875) (-5.0484447479248046e-06, 2.921875) (-3.5044989585876464e-06, 2.923828125) (-1.8884201049804687e-06, 2.92578125) (-2.3736923933029174e-07, 2.927734375) (1.4123204946517944e-06, 2.9296875) (3.0321576595306397e-06, 2.931640625) (4.594838142395019e-06, 2.93359375) (6.082173347473144e-06, 2.935546875) (7.475563049316406e-06, 2.9375) (8.744133949279785e-06, 2.939453125) (9.851468086242675e-06, 2.94140625) (1.0762088775634765e-05, 2.943359375) (1.1449313163757323e-05, 2.9453125) (1.1907766342163086e-05, 2.947265625) (1.2149656295776366e-05, 2.94921875) (1.2197696685791014e-05, 2.951171875) (1.2107051849365234e-05, 2.953125) (1.1947168350219727e-05, 2.955078125) (1.1825392723083496e-05, 2.95703125) (1.1911383628845215e-05, 2.958984375) (1.2305836677551268e-05, 2.9609375) (1.3031474113464355e-05, 2.962890625) (1.4037868499755858e-05, 2.96484375) (1.5128677368164062e-05, 2.966796875) (1.6124025344848633e-05, 2.96875) (1.6975137710571288e-05, 2.970703125) (1.758159828186035e-05, 2.97265625) (1.780125045776367e-05, 2.974609375) (1.7745693206787108e-05, 2.9765625) (1.7669151306152343e-05, 2.978515625) (1.8049476623535154e-05, 2.98046875) (1.978211212158203e-05, 2.982421875) (2.3569313049316407e-05, 2.984375) (2.975269317626953e-05, 2.986328125) (3.868464279174804e-05, 2.98828125) (5.046019744873047e-05, 2.990234375) (6.455558776855469e-05, 2.9921875) (8.01260528564453e-05, 2.994140625) (9.578714752197265e-05, 2.99609375) (0.00010942841339111328, 2.998046875) (0.0001192317886352539, 3.0) (0.0001237444839477539, 3.001953125) (0.00012145372772216796, 3.00390625) (0.00011144552612304686, 3.005859375) (9.378033447265625e-05, 3.0078125) (6.914183807373047e-05, 3.009765625) (3.9095985412597655e-05, 3.01171875) (6.117930412292481e-06, 3.013671875) (-2.744844627380371e-05, 3.015625) (-5.932228851318359e-05, 3.017578125) (-8.689113616943359e-05, 3.01953125) (-0.00010803404235839843, 3.021484375) (-0.00012157585906982422, 3.0234375) (-0.0001270546875, 3.025390625) (-0.00012490786743164062, 3.02734375) (-0.00011637577056884765, 3.029296875) (-0.00010275737762451172, 3.03125) (-8.551860809326172e-05, 3.033203125) (-6.665167999267578e-05, 3.03515625) (-4.805868148803711e-05, 3.037109375) (-3.1060457229614255e-05, 3.0390625) (-1.650186538696289e-05, 3.041015625) (-4.655012130737304e-06, 3.04296875) (4.681535720825195e-06, 3.044921875) (1.1757822036743164e-05, 3.046875) (1.693583297729492e-05, 3.048828125) (2.092794418334961e-05, 3.05078125) (2.4510679244995117e-05, 3.052734375) (2.8170398712158202e-05, 3.0546875) (3.2149948120117187e-05, 3.056640625) (3.643967819213867e-05, 3.05859375) (4.083978271484375e-05, 3.060546875) (4.5170623779296875e-05, 3.0625) (4.925430679321289e-05, 3.064453125) (5.2834892272949214e-05, 3.06640625) (5.565848159790039e-05, 3.068359375) (5.762306213378906e-05, 3.0703125) (5.876098251342773e-05, 3.072265625) (5.919032287597656e-05, 3.07421875) (5.90857048034668e-05, 3.076171875) (5.859056854248047e-05, 3.078125) (5.781726837158203e-05, 3.080078125) (5.68813247680664e-05, 3.08203125) (5.5889503479003904e-05, 3.083984375) (5.491020584106445e-05, 3.0859375) (5.397951507568359e-05, 3.087890625) (5.3116050720214843e-05, 3.08984375) (5.231909942626953e-05, 3.091796875) (5.160245513916016e-05, 3.09375) (5.099350357055664e-05, 3.095703125) (5.0494735717773435e-05, 3.09765625) (5.00887451171875e-05, 3.099609375) (4.973699188232422e-05, 3.1015625) (4.9373405456542963e-05, 3.103515625) (4.893013000488281e-05, 3.10546875) (4.834869384765625e-05, 3.107421875) (4.756950759887695e-05, 3.109375) (4.653950881958007e-05, 3.111328125) (4.521901702880859e-05, 3.11328125) (4.357000732421875e-05, 3.115234375) (4.1556182861328124e-05, 3.1171875) (3.914348983764648e-05, 3.119140625) (3.630115127563476e-05, 3.12109375) (3.301330947875976e-05, 3.123046875) (2.9278823852539062e-05, 3.125) (2.510357093811035e-05, 3.126953125) (2.050290298461914e-05, 3.12890625) (1.550798988342285e-05, 3.130859375) (1.0165475845336914e-05, 3.1328125) (4.544718265533447e-06, 3.134765625) (-1.2670986652374268e-06, 3.13671875) (-7.1903209686279295e-06, 3.138671875) (-1.3156225204467773e-05, 3.140625) (-1.9105609893798826e-05, 3.142578125) (-2.4984012603759765e-05, 3.14453125) (-3.072861289978027e-05, 3.146484375) (-3.6262199401855467e-05, 3.1484375) (-4.149810409545898e-05, 3.150390625) (-4.636453628540039e-05, 3.15234375) (-5.0812347412109376e-05, 3.154296875) (-5.481299591064453e-05, 3.15625) (-5.8352035522460935e-05, 3.158203125) (-6.141851806640625e-05, 3.16015625) (-6.401807403564453e-05, 3.162109375) (-6.617636108398437e-05, 3.1640625) (-6.794465637207031e-05, 3.166015625) (-6.939588928222656e-05, 3.16796875) (-7.059029388427735e-05, 3.169921875) (-7.156924438476562e-05, 3.171875) (-7.236273193359374e-05, 3.173828125) (-7.299944305419921e-05, 3.17578125) (-7.35184326171875e-05, 3.177734375) (-7.39747314453125e-05, 3.1796875) (-7.443102264404296e-05, 3.181640625) (-7.493218994140625e-05, 3.18359375) (-7.550804138183593e-05, 3.185546875) (-7.617737579345703e-05, 3.1875) (-7.695050811767578e-05, 3.189453125) (-7.783782958984374e-05, 3.19140625) (-7.883541107177734e-05, 3.193359375) (-7.992017364501953e-05, 3.1953125) (-8.104798889160157e-05, 3.197265625) (-8.216188049316406e-05, 3.19921875) (-8.321942138671875e-05, 3.201171875) (-8.419552612304687e-05, 3.203125) (-8.507510375976563e-05, 3.205078125) (-8.58454818725586e-05, 3.20703125) (-8.648966979980468e-05, 3.208984375) (-8.698451232910155e-05, 3.2109375) (-8.73079833984375e-05, 3.212890625) (-8.745063781738281e-05, 3.21484375) (-8.740659332275391e-05, 3.216796875) (-8.7170654296875e-05, 3.21875) (-8.67387466430664e-05, 3.220703125) (-8.610531616210937e-05, 3.22265625) (-8.52734375e-05, 3.224609375) (-8.425755310058594e-05, 3.2265625) (-8.308241271972656e-05, 3.228515625) (-8.177664184570312e-05, 3.23046875) (-8.036103820800781e-05, 3.232421875) (-7.884857177734375e-05, 3.234375) (-7.724823760986328e-05, 3.236328125) (-7.556784057617188e-05, 3.23828125) (-7.381550598144531e-05, 3.240234375) (-7.199936676025391e-05, 3.2421875) (-7.012406921386719e-05, 3.244140625) (-6.818985748291015e-05, 3.24609375) (-6.619934082031249e-05, 3.248046875) (-6.415830993652343e-05, 3.25) (-6.207455444335938e-05, 3.251953125) (-5.9957855224609374e-05, 3.25390625) (-5.781578063964844e-05, 3.255859375) (-5.56530532836914e-05, 3.2578125) (-5.347311401367187e-05, 3.259765625) (-5.1279838562011714e-05, 3.26171875) (-4.907887649536132e-05, 3.263671875) (-4.687720489501953e-05, 3.265625) (-4.468221282958984e-05, 3.267578125) (-4.250125122070312e-05, 3.26953125) (-4.034235382080078e-05, 3.271484375) (-3.821456527709961e-05, 3.2734375) (-3.612843322753906e-05, 3.275390625) (-3.4095111846923824e-05, 3.27734375) (-3.2124252319335936e-05, 3.279296875) (-3.0224077224731446e-05, 3.28125) (-2.8401824951171872e-05, 3.283203125) (-2.6663862228393554e-05, 3.28515625) (-2.501629066467285e-05, 3.287109375) (-2.3464746475219726e-05, 3.2890625) (-2.201374053955078e-05, 3.291015625) (-2.0666807174682615e-05, 3.29296875) (-1.9427234649658203e-05, 3.294921875) (-1.829803466796875e-05, 3.296875) (-1.7281866073608398e-05, 3.298828125) (-1.6380952835083006e-05, 3.30078125) (-1.5596574783325195e-05, 3.302734375) (-1.4929027557373046e-05, 3.3046875) (-1.4377799034118652e-05, 3.306640625) (-1.3941509246826172e-05, 3.30859375) (-1.3617792129516601e-05, 3.310546875) (-1.3403230667114257e-05, 3.3125) (-1.3293298721313476e-05, 3.314453125) (-1.3282476425170898e-05, 3.31640625) (-1.3364423751831053e-05, 3.318359375) (-1.3532135009765624e-05, 3.3203125) (-1.3778021812438965e-05, 3.322265625) (-1.4093906402587889e-05, 3.32421875) (-1.447107982635498e-05, 3.326171875) (-1.4900456428527831e-05, 3.328125) (-1.537270736694336e-05, 3.330078125) (-1.5878316879272462e-05, 3.33203125) (-1.6407623291015623e-05, 3.333984375) (-1.695081329345703e-05, 3.3359375) (-1.749795341491699e-05, 3.337890625) (-1.803923225402832e-05, 3.33984375) (-1.8565164566040038e-05, 3.341796875) (-1.9066654205322266e-05, 3.34375) (-1.9535053253173828e-05, 3.345703125) (-1.996216583251953e-05, 3.34765625) (-2.0340311050415038e-05, 3.349609375) (-2.0662418365478514e-05, 3.3515625) (-2.092213249206543e-05, 3.353515625) (-2.1113792419433594e-05, 3.35546875) (-2.1232295989990235e-05, 3.357421875) (-2.1273090362548828e-05, 3.359375) (-2.123223304748535e-05, 3.361328125) (-2.110646629333496e-05, 3.36328125) (-2.0893337249755857e-05, 3.365234375) (-2.0591272354125977e-05, 3.3671875) (-2.01995906829834e-05, 3.369140625) (-1.9718503952026367e-05, 3.37109375) (-1.9149221420288086e-05, 3.373046875) (-1.8493961334228514e-05, 3.375) (-1.7755973815917968e-05, 3.376953125) (-1.6939491271972655e-05, 3.37890625) (-1.6049619674682615e-05, 3.380859375) (-1.5092226982116698e-05, 3.3828125) (-1.407383632659912e-05, 3.384765625) (-1.3001558303833008e-05, 3.38671875) (-1.1883026123046874e-05, 3.388671875) (-1.0726303100585938e-05, 3.390625) (-9.539791107177734e-06, 3.392578125) (-8.332109451293946e-06, 3.39453125) (-7.112027645111083e-06, 3.396484375) (-5.888400077819824e-06, 3.3984375) (-4.670121669769287e-06, 3.400390625) (-3.4660472869873047e-06, 3.40234375) (-2.284879684448242e-06, 3.404296875) (-1.1350750923156737e-06, 3.40625) (-2.477172017097473e-08, 3.408203125) (1.0382593870162963e-06, 3.41015625) (2.046644926071167e-06, 3.412109375) (2.993446111679077e-06, 3.4140625) (3.8722152709960935e-06, 3.416015625) (4.6770362854003904e-06, 3.41796875) (5.4025382995605466e-06, 3.419921875) (6.043904304504394e-06, 3.421875) (6.596896171569824e-06, 3.423828125) (7.057886600494385e-06, 3.42578125) (7.423926353454589e-06, 3.427734375) (7.692819118499756e-06, 3.4296875) (7.863168716430664e-06, 3.431640625) (7.934419155120849e-06, 3.43359375) (7.906879425048827e-06, 3.435546875) (7.781743049621582e-06, 3.4375) (7.561110019683837e-06, 3.439453125) (7.247980117797851e-06, 3.44140625) (6.846209526062011e-06, 3.443359375) (6.360444068908691e-06, 3.4453125) (5.7960309982299805e-06, 3.447265625) (5.158944129943847e-06, 3.44921875) (4.45572566986084e-06, 3.451171875) (3.6934237480163573e-06, 3.453125) (2.8795213699340817e-06, 3.455078125) (2.0218544006347655e-06, 3.45703125) (1.1285322904586792e-06, 3.458984375) (2.0787560939788818e-07, 3.4609375) (-7.316277623176574e-07, 3.462890625) (-1.6813724040985107e-06, 3.46484375) (-2.6327061653137207e-06, 3.466796875) (-3.5770068168640134e-06, 3.46875) (-4.50575828552246e-06, 3.470703125) (-5.410608768463135e-06, 3.47265625) (-6.283410549163818e-06, 3.474609375) (-7.116254806518554e-06, 3.4765625) (-7.901518821716308e-06, 3.478515625) (-8.631912231445313e-06, 3.48046875) (-9.30052089691162e-06, 3.482421875) (-9.900829315185547e-06, 3.484375) (-1.0426755905151366e-05, 3.486328125) (-1.0872673988342285e-05, 3.48828125) (-1.1233478546142577e-05, 3.490234375) (-1.1504651069641112e-05, 3.4921875) (-1.1682320594787597e-05, 3.494140625) (-1.1763336181640625e-05, 3.49609375) (-1.1745303153991698e-05, 3.498046875) (-1.162663459777832e-05, 3.5) (-1.1406584739685058e-05, 3.501953125) (-1.1085282325744629e-05, 3.50390625) (-1.0663722991943359e-05, 3.505859375) (-1.0143747329711914e-05, 3.5078125) (-9.52799415588379e-06, 3.509765625) (-8.81985855102539e-06, 3.51171875) (-8.023444175720214e-06, 3.513671875) (-7.143536567687988e-06, 3.515625) (-6.185552597045898e-06, 3.517578125) (-5.155492305755615e-06, 3.51953125) (-4.05989122390747e-06, 3.521484375) (-2.9057724475860594e-06, 3.5234375) (-1.7006168365478515e-06, 3.525390625) (-4.5231872797012325e-07, 3.52734375) (8.308730721473693e-07, 3.529296875) (2.140423536300659e-06, 3.53125) (3.46758770942688e-06, 3.533203125) (4.803483009338379e-06, 3.53515625) (6.139144420623779e-06, 3.537109375) (7.46558141708374e-06, 3.5390625) (8.773837089538574e-06, 3.541015625) (1.0055042266845703e-05, 3.54296875) (1.1300466537475585e-05, 3.544921875) (1.250156021118164e-05, 3.546875) (1.3649993896484375e-05, 3.548828125) (1.4737701416015625e-05, 3.55078125) (1.5756948471069336e-05, 3.552734375) (1.6700397491455077e-05, 3.5546875) (1.7561195373535157e-05, 3.556640625) (1.833305740356445e-05, 3.55859375) (1.9010337829589843e-05, 3.560546875) (1.9588104248046874e-05, 3.5625) (2.0062208175659178e-05, 3.564453125) (2.0429334640502927e-05, 3.56640625) (2.0687034606933594e-05, 3.568359375) (2.0833724975585937e-05, 3.5703125) (2.0868701934814453e-05, 3.572265625) (2.0792104721069334e-05, 3.57421875) (2.0604928970336912e-05, 3.576171875) (2.030899429321289e-05, 3.578125) (1.9906944274902342e-05, 3.580078125) (1.940220832824707e-05, 3.58203125) (1.8799007415771482e-05, 3.583984375) (1.810231781005859e-05, 3.5859375) (1.7317863464355467e-05, 3.587890625) (1.6452072143554688e-05, 3.58984375) (1.5512030601501466e-05, 3.591796875) (1.4505397796630858e-05, 3.59375) (1.3440359115600585e-05, 3.595703125) (1.2325533866882324e-05, 3.59765625) (1.1169903755187989e-05, 3.599609375) (9.982740402221679e-06, 3.6015625) (8.773523330688476e-06, 3.603515625) (7.551887512207031e-06, 3.60546875) (6.327564239501953e-06, 3.607421875) (5.110328674316406e-06, 3.609375) (3.909952402114868e-06, 3.611328125) (2.736162424087524e-06, 3.61328125) (1.5985704660415648e-06, 3.615234375) (5.066014528274536e-07, 3.6171875) (-5.305816531181336e-07, 3.619140625) (-1.5041756629943847e-06, 3.62109375) (-2.4058260917663575e-06, 3.623046875) (-3.2277193069458008e-06, 3.625) (-3.96268081665039e-06, 3.626953125) (-4.604226112365722e-06, 3.62890625) (-5.146599769592285e-06, 3.630859375) (-5.584818840026855e-06, 3.6328125) (-5.914699554443359e-06, 3.634765625) (-6.132877349853515e-06, 3.63671875) (-6.236843585968017e-06, 3.638671875) (-6.2249259948730466e-06, 3.640625) (-6.096258640289306e-06, 3.642578125) (-5.850833892822265e-06, 3.64453125) (-5.489535808563232e-06, 3.646484375) (-5.014154434204101e-06, 3.6484375) (-4.427396774291992e-06, 3.650390625) (-3.7328338623046874e-06, 3.65234375) (-2.934826374053955e-06, 3.654296875) (-2.0385053157806395e-06, 3.65625) (-1.0497641563415528e-06, 3.658203125) (2.483975887298584e-08, 3.66015625) (1.1781730651855468e-06, 3.662109375) (2.402600288391113e-06, 3.6640625) (3.690110445022583e-06, 3.666015625) (5.032370567321777e-06, 3.66796875) (6.420744895935058e-06, 3.669921875) (7.846363067626953e-06, 3.671875) (9.300148010253905e-06, 3.673828125) (1.0772843360900878e-05, 3.67578125) (1.2255085945129394e-05, 3.677734375) (1.3737444877624511e-05, 3.6796875) (1.5210441589355468e-05, 3.681640625) (1.666464614868164e-05, 3.68359375) (1.809073257446289e-05, 3.685546875) (1.947958755493164e-05, 3.6875) (2.0822505950927735e-05, 3.689453125) (2.2111164093017578e-05, 3.69140625) (2.3337604522705078e-05, 3.693359375) (2.4494333267211912e-05, 3.6953125) (2.5574386596679687e-05, 3.697265625) (2.6571353912353515e-05, 3.69921875) (2.7479520797729492e-05, 3.701171875) (2.8293746948242186e-05, 3.703125) (2.9009307861328125e-05, 3.705078125) (2.962217903137207e-05, 3.70703125) (3.0129148483276366e-05, 3.708984375) (3.052785301208496e-05, 3.7109375) (3.0816898345947264e-05, 3.712890625) (3.0995704650878904e-05, 3.71484375) (3.10643196105957e-05, 3.716796875) (3.102357864379883e-05, 3.71875) (3.0875244140625e-05, 3.720703125) (3.0621852874755856e-05, 3.72265625) (3.026660919189453e-05, 3.724609375) (2.9813285827636716e-05, 3.7265625) (2.9265926361083984e-05, 3.728515625) (2.8628910064697265e-05, 3.73046875) (2.7906999588012694e-05, 3.732421875) (2.7105260848999023e-05, 3.734375) (2.622908592224121e-05, 3.736328125) (2.528417205810547e-05, 3.73828125) (2.4276363372802733e-05, 3.740234375) (2.3211713790893554e-05, 3.7421875) (2.2096582412719726e-05, 3.744140625) (2.093752098083496e-05, 3.74609375) (1.9741355895996094e-05, 3.748046875) (1.8514972686767576e-05, 3.75) (1.7264869689941407e-05, 3.751953125) (1.5997540473937987e-05, 3.75390625) (1.471961212158203e-05, 3.755859375) (1.3437585830688476e-05, 3.7578125) (1.215800380706787e-05, 3.759765625) (1.0887163162231445e-05, 3.76171875) (9.630597114562987e-06, 3.763671875) (8.393651962280274e-06, 3.765625) (7.181897163391113e-06, 3.767578125) (6.000186920166016e-06, 3.76953125) (4.8526830673217775e-06, 3.771484375) (3.742703437805176e-06, 3.7734375) (2.6723458766937253e-06, 3.775390625) (1.6435221433639525e-06, 3.77734375) (6.583513021469116e-07, 3.779296875) (-2.813978791236877e-07, 3.78125) (-1.174670696258545e-06, 3.783203125) (-2.0208849906921385e-06, 3.78515625) (-2.8199214935302734e-06, 3.787109375) (-3.5718588829040524e-06, 3.7890625) (-4.277132034301757e-06, 3.791015625) (-4.937018871307373e-06, 3.79296875) (-5.5530791282653804e-06, 3.794921875) (-6.127255439758301e-06, 3.796875) (-6.661086082458496e-06, 3.798828125) (-7.155138969421387e-06, 3.80078125) (-7.610520362854003e-06, 3.802734375) (-8.028432846069336e-06, 3.8046875) (-8.409671783447266e-06, 3.806640625) (-8.756204605102538e-06, 3.80859375) (-9.07145881652832e-06, 3.810546875) (-9.3597412109375e-06, 3.8125) (-9.62757110595703e-06, 3.814453125) (-9.884546279907225e-06, 3.81640625) (-1.0141809463500975e-05, 3.818359375) (-1.0412233352661133e-05, 3.8203125) (-1.070691967010498e-05, 3.822265625) (-1.1031667709350586e-05, 3.82421875) (-1.1389125823974609e-05, 3.826171875) (-1.1779560089111327e-05, 3.828125) (-1.2205451965332031e-05, 3.830078125) (-1.2670647621154785e-05, 3.83203125) (-1.3173624992370605e-05, 3.833984375) (-1.3710249900817871e-05, 3.8359375) (-1.4278279304504393e-05, 3.837890625) (-1.4876768112182616e-05, 3.83984375) (-1.5508180618286133e-05, 3.841796875) (-1.6175498962402344e-05, 3.84375) (-1.6868892669677735e-05, 3.845703125) (-1.7568962097167967e-05, 3.84765625) (-1.8254539489746094e-05, 3.849609375) (-1.8900585174560547e-05, 3.8515625) (-1.9491928100585937e-05, 3.853515625) (-2.0028133392333985e-05, 3.85546875) (-2.051454734802246e-05, 3.857421875) (-2.096260643005371e-05, 3.859375) (-2.1376419067382812e-05, 3.861328125) (-2.1761968612670896e-05, 3.86328125) (-2.2151931762695312e-05, 3.865234375) (-2.2586380004882813e-05, 3.8671875) (-2.3105419158935547e-05, 3.869140625) (-2.3747905731201172e-05, 3.87109375) (-2.4500690460205076e-05, 3.873046875) (-2.535127830505371e-05, 3.875) (-2.636613082885742e-05, 3.876953125) (-2.758144378662109e-05, 3.87890625) (-2.8990577697753904e-05, 3.880859375) (-3.056414794921875e-05, 3.8828125) (-3.2105552673339844e-05, 3.884765625) (-3.336474609375e-05, 3.88671875) (-3.4292919158935545e-05, 3.888671875) (-3.484562301635742e-05, 3.890625) (-3.491916275024414e-05, 3.892578125) (-3.4637653350830076e-05, 3.89453125) (-3.4106544494628904e-05, 3.896484375) (-3.352698898315429e-05, 3.8984375) (-3.367015838623047e-05, 3.900390625) (-3.53272819519043e-05, 3.90234375) (-3.8799125671386714e-05, 3.904296875) (-4.42309341430664e-05, 3.90625) (-5.149192810058593e-05, 3.908203125) (-5.98719253540039e-05, 3.91015625) (-6.865805053710937e-05, 3.912109375) (-7.679733276367187e-05, 3.9140625) (-8.217642211914062e-05, 3.916015625) (-8.258601379394531e-05, 3.91796875) (-7.74423370361328e-05, 3.919921875) (-6.753871154785155e-05, 3.921875) (-5.380744171142578e-05, 3.923828125) (-3.782107925415039e-05, 3.92578125) (-1.791521644592285e-05, 3.927734375) (1.068354034423828e-05, 3.9296875) (4.8115020751953124e-05, 3.931640625) (9.106597900390625e-05, 3.93359375) (0.000130302001953125, 3.935546875) (0.0001501830139160156, 3.9375) (0.0001423369903564453, 3.939453125) (0.00010700358581542969, 3.94140625) (5.2138004302978514e-05, 3.943359375) (-6.502240180969238e-06, 3.9453125) (-5.785942077636718e-05, 3.947265625) (-9.797018432617186e-05, 3.94921875) (-0.00012726278686523438, 3.951171875) (-0.00014990858459472655, 3.953125) (-0.0001674364318847656, 3.955078125) (-0.00017862344360351562, 3.95703125) (-0.00018182299804687498, 3.958984375) (-0.00017531011962890626, 3.9609375) (-0.00015956378173828125, 3.962890625) (-0.00013648844909667967, 3.96484375) (-0.00010829967498779297, 3.966796875) (-7.793378448486327e-05, 3.96875) (-4.793727874755859e-05, 3.970703125) (-2.027071762084961e-05, 3.97265625) (3.30829119682312e-06, 3.974609375) (2.177925682067871e-05, 3.9765625) (3.4666778564453125e-05, 3.978515625) (4.182913970947265e-05, 3.98046875) (4.374907302856445e-05, 3.982421875) (4.1500366210937496e-05, 3.984375) (3.632270431518555e-05, 3.986328125) (2.9537324905395508e-05, 3.98828125) (2.2430261611938476e-05, 3.990234375) (1.590261650085449e-05, 3.9921875) (1.0692121505737304e-05, 3.994140625) (7.287751197814941e-06, 3.99609375) (5.768378257751465e-06, 3.998046875) (5.9403562545776365e-06, 4.0) (7.420408248901367e-06, 4.001953125) (9.68572425842285e-06, 4.00390625) (1.2189340591430664e-05, 4.005859375) (1.4567862510681152e-05, 4.0078125) (1.6523967742919922e-05, 4.009765625) (1.7864383697509767e-05, 4.01171875) (1.8568132400512695e-05, 4.013671875) (1.8688182830810548e-05, 4.015625) (1.837904357910156e-05, 4.017578125) (1.7891056060791014e-05, 4.01953125) (1.750531768798828e-05, 4.021484375) (1.739842987060547e-05, 4.0234375) (1.7660743713378906e-05, 4.025390625) (1.8333616256713867e-05, 4.02734375) (1.939315414428711e-05, 4.029296875) (2.0809354782104492e-05, 4.03125) (2.2534652709960938e-05, 4.033203125) (2.4472881317138672e-05, 4.03515625) (2.6500541687011717e-05, 4.037109375) (2.8531707763671874e-05, 4.0390625) (3.0530292510986327e-05, 4.041015625) (3.248863983154297e-05, 4.04296875) (3.442672348022461e-05, 4.044921875) (3.635201644897461e-05, 4.046875) (3.825266265869141e-05, 4.048828125) (4.011962127685547e-05, 4.05078125) (4.194425582885742e-05, 4.052734375) (4.372138977050781e-05, 4.0546875) (4.544705963134766e-05, 4.056640625) (4.7109714508056635e-05, 4.05859375) (4.869301986694336e-05, 4.060546875) (5.0188751220703124e-05, 4.0625) (5.159932708740234e-05, 4.064453125) (5.293863677978515e-05, 4.06640625) (5.423145294189453e-05, 4.068359375) (5.549357986450195e-05, 4.0703125) (5.672867965698242e-05, 4.072265625) (5.7936706542968746e-05, 4.07421875) (5.9112575531005855e-05, 4.076171875) (6.0251113891601556e-05, 4.078125) (6.134847259521484e-05, 4.080078125) (6.239672088623046e-05, 4.08203125) (6.338423156738281e-05, 4.083984375) (6.430068969726563e-05, 4.0859375) (6.513841247558594e-05, 4.087890625) (6.589249420166016e-05, 4.08984375) (6.656050872802734e-05, 4.091796875) (6.713832855224609e-05, 4.09375) (6.761976623535155e-05, 4.095703125) (6.799720764160156e-05, 4.09765625) (6.826166534423828e-05, 4.099609375) (6.840633392333983e-05, 4.1015625) (6.842637634277343e-05, 4.103515625) (6.831719970703124e-05, 4.10546875) (6.807536315917969e-05, 4.107421875) (6.769857788085938e-05, 4.109375) (6.718550872802734e-05, 4.111328125) (6.653750610351563e-05, 4.11328125) (6.575844573974609e-05, 4.115234375) (6.485214233398437e-05, 4.1171875) (6.382261276245117e-05, 4.119140625) (6.267452239990234e-05, 4.12109375) (6.141267013549804e-05, 4.123046875) (6.0043022155761716e-05, 4.125) (5.857267379760742e-05, 4.126953125) (5.7008991241455074e-05, 4.12890625) (5.535971450805664e-05, 4.130859375) (5.363346862792969e-05, 4.1328125) (5.183960723876953e-05, 4.134765625) (4.998828125e-05, 4.13671875) (4.809039688110351e-05, 4.138671875) (4.615717315673828e-05, 4.140625) (4.420013046264648e-05, 4.142578125) (4.223101043701172e-05, 4.14453125) (4.026157379150391e-05, 4.146484375) (3.8303581237792965e-05, 4.1484375) (3.6368591308593745e-05, 4.150390625) (3.446787643432617e-05, 4.15234375) (3.261244201660156e-05, 4.154296875) (3.0813007354736325e-05, 4.15625) (2.9079864501953125e-05, 4.158203125) (2.7422969818115232e-05, 4.16015625) (2.5851879119873046e-05, 4.162109375) (2.437559127807617e-05, 4.1640625) (2.3002666473388672e-05, 4.166015625) (2.174110794067383e-05, 4.16796875) (2.0598194122314453e-05, 4.169921875) (1.958032989501953e-05, 4.171875) (1.8692935943603513e-05, 4.173828125) (1.7940296173095703e-05, 4.17578125) (1.7325513839721678e-05, 4.177734375) (1.6850700378417967e-05, 4.1796875) (1.6516899108886717e-05, 4.181640625) (1.6324016571044922e-05, 4.18359375) (1.6270919799804686e-05, 4.185546875) (1.6355434417724607e-05, 4.1875) (1.6574380874633787e-05, 4.189453125) (1.6923690795898437e-05, 4.19140625) (1.7398420333862303e-05, 4.193359375) (1.7992589950561523e-05, 4.1953125) (1.8699220657348633e-05, 4.197265625) (1.9510440826416014e-05, 4.19921875) (2.0417530059814452e-05, 4.201171875) (2.1411098480224608e-05, 4.203125) (2.248117446899414e-05, 4.205078125) (2.361729049682617e-05, 4.20703125) (2.4808563232421874e-05, 4.208984375) (2.604386520385742e-05, 4.2109375) (2.7311866760253906e-05, 4.212890625) (2.8601140975952147e-05, 4.21484375) (2.9900218963623046e-05, 4.216796875) (3.1197601318359377e-05, 4.21875) (3.2481811523437496e-05, 4.220703125) (3.3741451263427736e-05, 4.22265625) (3.496527862548828e-05, 4.224609375) (3.6142311096191404e-05, 4.2265625) (3.726192855834961e-05, 4.228515625) (3.831397247314453e-05, 4.23046875) (3.9288848876953126e-05, 4.232421875) (4.017760467529297e-05, 4.234375) (4.097203063964844e-05, 4.236328125) (4.166475677490234e-05, 4.23828125) (4.224932861328125e-05, 4.240234375) (4.272020721435547e-05, 4.2421875) (4.307276916503906e-05, 4.244140625) (4.3303367614746094e-05, 4.24609375) (4.340932464599609e-05, 4.248046875) (4.3388965606689454e-05, 4.25) (4.3241630554199215e-05, 4.251953125) (4.296769332885742e-05, 4.25390625) (4.2568515777587886e-05, 4.255859375) (4.204648208618164e-05, 4.2578125) (4.1404937744140625e-05, 4.259765625) (4.0648178100585936e-05, 4.26171875) (3.978140258789062e-05, 4.263671875) (3.881061553955078e-05, 4.265625) (3.7742538452148434e-05, 4.267578125) (3.658451080322266e-05, 4.26953125) (3.534443664550781e-05, 4.271484375) (3.403070068359375e-05, 4.2734375) (3.265213012695312e-05, 4.275390625) (3.121792602539062e-05, 4.27734375) (2.9737613677978514e-05, 4.279296875) (2.8220958709716795e-05, 4.28125) (2.667794609069824e-05, 4.283203125) (2.5118698120117185e-05, 4.28515625) (2.3553440093994138e-05, 4.287109375) (2.1992376327514648e-05, 4.2890625) (2.0445592880249023e-05, 4.291015625) (1.892294692993164e-05, 4.29296875) (1.7433982849121094e-05, 4.294921875) (1.5987862586975095e-05, 4.296875) (1.4593281745910643e-05, 4.298828125) (1.3258399963378905e-05, 4.30078125) (1.1990748405456542e-05, 4.302734375) (1.0797182083129882e-05, 4.3046875) (9.683843612670897e-06, 4.306640625) (8.656128883361816e-06, 4.30859375) (7.7186541557312e-06, 4.310546875) (6.87520170211792e-06, 4.3125) (6.128649234771728e-06, 4.314453125) (5.480946063995361e-06, 4.31640625) (4.933093070983886e-06, 4.318359375) (4.485146522521973e-06, 4.3203125) (4.136226654052734e-06, 4.322265625) (3.884524822235107e-06, 4.32421875) (3.7273206710815426e-06, 4.326171875) (3.661039352416992e-06, 4.328125) (3.6813273429870603e-06, 4.330078125) (3.783129215240478e-06, 4.33203125) (3.960755586624145e-06, 4.333984375) (4.207931995391845e-06, 4.3359375) (4.517839908599853e-06, 4.337890625) (4.883174896240234e-06, 4.33984375) (5.296213626861572e-06, 4.341796875) (5.748878479003906e-06, 4.34375) (6.232800006866455e-06, 4.345703125) (6.739369392395019e-06, 4.34765625) (7.25979995727539e-06, 4.349609375) (7.785220146179199e-06, 4.3515625) (8.306775093078612e-06, 4.353515625) (8.815725326538085e-06, 4.35546875) (9.303532600402832e-06, 4.357421875) (9.761924743652343e-06, 4.359375) (1.0182952880859375e-05, 4.361328125) (1.0559072494506836e-05, 4.36328125) (1.0883210182189941e-05, 4.365234375) (1.114883041381836e-05, 4.3671875) (1.1349979400634765e-05, 4.369140625) (1.1481326103210449e-05, 4.37109375) (1.1538199424743651e-05, 4.373046875) (1.151666259765625e-05, 4.375) (1.141358757019043e-05, 4.376953125) (1.1226709365844726e-05, 4.37890625) (1.0954668045043944e-05, 4.380859375) (1.059702491760254e-05, 4.3828125) (1.0154273986816406e-05, 4.384765625) (9.62784767150879e-06, 4.38671875) (9.020120620727538e-06, 4.388671875) (8.33437156677246e-06, 4.390625) (7.574726104736328e-06, 4.392578125) (6.746085166931152e-06, 4.39453125) (5.854043006896972e-06, 4.396484375) (4.904841423034667e-06, 4.3984375) (3.90531063079834e-06, 4.400390625) (2.862797498703003e-06, 4.40234375) (1.7850975990295408e-06, 4.404296875) (6.8036949634552e-07, 4.40625) (-4.429507851600647e-07, 4.408203125) (-1.5762066841125488e-06, 4.41015625) (-2.7105937004089356e-06, 4.412109375) (-3.837249755859375e-06, 4.4140625) (-4.947334289550781e-06, 4.416015625) (-6.032133102416992e-06, 4.41796875) (-7.0831508636474605e-06, 4.419921875) (-8.09216022491455e-06, 4.421875) (-9.051258087158202e-06, 4.423828125) (-9.952920913696289e-06, 4.42578125) (-1.0790057182312012e-05, 4.427734375) (-1.155606460571289e-05, 4.4296875) (-1.2244897842407226e-05, 4.431640625) (-1.2851058959960936e-05, 4.43359375) (-1.3369646072387694e-05, 4.435546875) (-1.3796408653259277e-05, 4.4375) (-1.4127807617187499e-05, 4.439453125) (-1.4361112594604491e-05, 4.44140625) (-1.4494476318359374e-05, 4.443359375) (-1.4526939392089843e-05, 4.4453125) (-1.4458471298217773e-05, 4.447265625) (-1.4290019035339355e-05, 4.44921875) (-1.4023482322692871e-05, 4.451171875) (-1.3661739349365234e-05, 4.453125) (-1.3208635330200195e-05, 4.455078125) (-1.2668852806091309e-05, 4.45703125) (-1.2047832489013672e-05, 4.458984375) (-1.1351733207702637e-05, 4.4609375) (-1.0587312698364258e-05, 4.462890625) (-9.76188850402832e-06, 4.46484375) (-8.883312225341797e-06, 4.466796875) (-7.959828853607178e-06, 4.46875) (-6.999964714050293e-06, 4.470703125) (-6.012483596801757e-06, 4.47265625) (-5.0062837600708e-06, 4.474609375) (-3.9903399944305415e-06, 4.4765625) (-2.9737124443054196e-06, 4.478515625) (-1.9653639793395994e-06, 4.48046875) (-9.740518331527709e-07, 4.482421875) (-8.306533098220825e-09, 4.484375) (9.236594438552856e-07, 4.486328125) (1.813927173614502e-06, 4.48828125) (2.6548445224761963e-06, 4.490234375) (3.439155578613281e-06, 4.4921875) (4.160054683685302e-06, 4.494140625) (4.811080455780029e-06, 4.49609375) (5.386181354522705e-06, 4.498046875) (5.879729270935059e-06, 4.5) (6.286464691162109e-06, 4.501953125) (6.601763725280761e-06, 4.50390625) (6.821767807006836e-06, 4.505859375) (6.94332218170166e-06, 4.5078125) (6.964115142822265e-06, 4.509765625) (6.88276195526123e-06, 4.51171875) (6.698698043823242e-06, 4.513671875) (6.412330150604248e-06, 4.515625) (6.025163650512695e-06, 4.517578125) (5.539478302001953e-06, 4.51953125) (4.958270072937012e-06, 4.521484375) (4.2852325439453126e-06, 4.5234375) (3.5244805812835693e-06, 4.525390625) (2.6806817054748535e-06, 4.52734375) (1.7591867446899414e-06, 4.529296875) (7.657809853553771e-07, 4.53125) (-2.93468028306961e-07, 4.533203125) (-1.4121938943862914e-06, 4.53515625) (-2.583909511566162e-06, 4.537109375) (-3.8019359111785888e-06, 4.5390625) (-5.059143066406249e-06, 4.541015625) (-6.34833812713623e-06, 4.54296875) (-7.662437438964843e-06, 4.544921875) (-8.994417190551757e-06, 4.546875) (-1.0337531089782714e-05, 4.548828125) (-1.1685136795043945e-05, 4.55078125) (-1.3030458450317382e-05, 4.552734375) (-1.4366910934448242e-05, 4.5546875) (-1.5688230514526368e-05, 4.556640625) (-1.6988115310668946e-05, 4.55859375) (-1.8260372161865234e-05, 4.560546875) (-1.949887466430664e-05, 4.5625) (-2.0697196960449217e-05, 4.564453125) (-2.1849205017089843e-05, 4.56640625) (-2.2949398040771482e-05, 4.568359375) (-2.399259567260742e-05, 4.5703125) (-2.4974224090576172e-05, 4.572265625) (-2.5890703201293945e-05, 4.57421875) (-2.6739009857177733e-05, 4.576171875) (-2.751708602905273e-05, 4.578125) (-2.8224353790283202e-05, 4.580078125) (-2.886063003540039e-05, 4.58203125) (-2.9426002502441406e-05, 4.583984375) (-2.9921260833740234e-05, 4.5859375) (-3.0347137451171873e-05, 4.587890625) (-3.0704248428344725e-05, 4.58984375) (-3.099385833740234e-05, 4.591796875) (-3.121700859069824e-05, 4.59375) (-3.1374103546142575e-05, 4.595703125) (-3.1466421127319337e-05, 4.59765625) (-3.149570846557617e-05, 4.599609375) (-3.1464080810546875e-05, 4.6015625) (-3.1375320434570314e-05, 4.603515625) (-3.1233634948730466e-05, 4.60546875) (-3.104283714294433e-05, 4.607421875) (-3.080744171142578e-05, 4.609375) (-3.0532304763793945e-05, 4.611328125) (-3.022189903259277e-05, 4.61328125) (-2.988138389587402e-05, 4.615234375) (-2.9514375686645505e-05, 4.6171875) (-2.9121496200561523e-05, 4.619140625) (-2.87049446105957e-05, 4.62109375) (-2.8268238067626953e-05, 4.623046875) (-2.781650161743164e-05, 4.625) (-2.7357913970947264e-05, 4.626953125) (-2.6897300720214843e-05, 4.62890625) (-2.6434526443481444e-05, 4.630859375) (-2.596955108642578e-05, 4.6328125) (-2.5502025604248045e-05, 4.634765625) (-2.5027946472167966e-05, 4.63671875) (-2.4542362213134764e-05, 4.638671875) (-2.403516387939453e-05, 4.640625) (-2.3487289428710935e-05, 4.642578125) (-2.2883060455322264e-05, 4.64453125) (-2.2210453033447266e-05, 4.646484375) (-2.146091842651367e-05, 4.6484375) (-2.063616371154785e-05, 4.650390625) (-1.973798370361328e-05, 4.65234375) (-1.876372718811035e-05, 4.654296875) (-1.771088218688965e-05, 4.65625) (-1.6580577850341796e-05, 4.658203125) (-1.5382800102233886e-05, 4.66015625) (-1.4139450073242187e-05, 4.662109375) (-1.2871517181396483e-05, 4.6640625) (-1.1587940216064453e-05, 4.666015625) (-1.0303327560424805e-05, 4.66796875) (-9.039249420166015e-06, 4.669921875) (-7.827361106872558e-06, 4.671875) (-6.718478679656982e-06, 4.673828125) (-5.753968715667724e-06, 4.67578125) (-4.960349082946777e-06, 4.677734375) (-4.361082077026367e-06, 4.6796875) (-3.970721244812012e-06, 4.681640625) (-3.7978200912475585e-06, 4.68359375) (-3.856034755706787e-06, 4.685546875) (-4.154669761657714e-06, 4.6875) (-4.674899578094482e-06, 4.689453125) (-5.3801589012146e-06, 4.69140625) (-6.212529182434082e-06, 4.693359375) (-7.103411197662353e-06, 4.6953125) (-8.02051544189453e-06, 4.697265625) (-8.942761421203613e-06, 4.69921875) (-9.835521697998046e-06, 4.701171875) (-1.064769172668457e-05, 4.703125) (-1.1298906326293945e-05, 4.705078125) (-1.1700808525085448e-05, 4.70703125) (-1.1811216354370116e-05, 4.708984375) (-1.1635376930236816e-05, 4.7109375) (-1.1127714157104491e-05, 4.712890625) (-1.016635513305664e-05, 4.71484375) (-8.546316146850585e-06, 4.716796875) (-6.037802696228027e-06, 4.71875) (-2.5658612251281736e-06, 4.720703125) (1.760235548019409e-06, 4.72265625) (6.8052487373352046e-06, 4.724609375) (1.2531932830810547e-05, 4.7265625) (1.8881824493408203e-05, 4.728515625) (2.5576889038085938e-05, 4.73046875) (3.197603607177734e-05, 4.732421875) (3.728362274169922e-05, 4.734375) (4.10069580078125e-05, 4.736328125) (4.312938690185547e-05, 4.73828125) (4.395394134521484e-05, 4.740234375) (4.369906616210937e-05, 4.7421875) (4.2430664062499995e-05, 4.744140625) (4.076369476318359e-05, 4.74609375) (4.0147865295410153e-05, 4.748046875) (4.2032203674316406e-05, 4.75) (4.763096618652344e-05, 4.751953125) (5.672103881835937e-05, 4.75390625) (6.718129730224609e-05, 4.755859375) (7.842698669433593e-05, 4.7578125) (9.092006683349608e-05, 4.759765625) (0.00010558204650878905, 4.76171875) (0.00012481727600097654, 4.763671875) (0.00014585885620117188, 4.765625) (0.00016161573791503907, 4.767578125) (0.00016543798828125, 4.76953125) (0.00014958892822265624, 4.771484375) (0.00011392852020263672, 4.7734375) (6.630332946777344e-05, 4.775390625) (1.3904722213745116e-05, 4.77734375) (-3.47125244140625e-05, 4.779296875) (-7.552983093261719e-05, 4.78125) (-0.00011087187194824218, 4.783203125) (-0.00014089044189453124, 4.78515625) (-0.00016536767578125, 4.787109375) (-0.00018381202697753907, 4.7890625) (-0.00019372930908203125, 4.791015625) (-0.00019470913696289062, 4.79296875) (-0.00018829925537109375, 4.794921875) (-0.00017576763916015624, 4.796875) (-0.00015871530151367186, 4.798828125) (-0.00013929252624511718, 4.80078125) (-0.00011932371520996093, 4.802734375) (-0.00010034524536132813, 4.8046875) (-8.37559814453125e-05, 4.806640625) (-7.012872314453125e-05, 4.80859375) (-5.934615325927734e-05, 4.810546875) (-5.154455184936523e-05, 4.8125) (-4.700033187866211e-05, 4.814453125) (-4.533155822753906e-05, 4.81640625) (-4.583353424072265e-05, 4.818359375) (-4.7691322326660156e-05, 4.8203125) (-4.9849021911621094e-05, 4.822265625) (-5.174150466918945e-05, 4.82421875) (-5.3292022705078124e-05, 4.826171875) (-5.421190643310547e-05, 4.828125) (-5.407854461669922e-05, 4.830078125) (-5.2784152984619135e-05, 4.83203125) (-5.040248107910156e-05, 4.833984375) (-4.7235511779785154e-05, 4.8359375) (-4.390469741821289e-05, 4.837890625) (-4.074382400512695e-05, 4.83984375) (-3.7782527923583984e-05, 4.841796875) (-3.512334442138672e-05, 4.84375) (-3.286049652099609e-05, 4.845703125) (-3.101354789733886e-05, 4.84765625) (-2.961202239990234e-05, 4.849609375) (-2.854636764526367e-05, 4.8515625) (-2.753591537475586e-05, 4.853515625) (-2.6438264846801757e-05, 4.85546875) (-2.5230037689208983e-05, 4.857421875) (-2.3898548126220702e-05, 4.859375) (-2.249932861328125e-05, 4.861328125) (-2.107645797729492e-05, 4.86328125) (-1.9631370544433592e-05, 4.865234375) (-1.821039581298828e-05, 4.8671875) (-1.6892957687377928e-05, 4.869140625) (-1.5728107452392577e-05, 4.87109375) (-1.4755318641662598e-05, 4.873046875) (-1.3998976707458496e-05, 4.875) (-1.3453588485717772e-05, 4.876953125) (-1.312582778930664e-05, 4.87890625) (-1.3027918815612792e-05, 4.880859375) (-1.3163996696472167e-05, 4.8828125) (-1.3544300079345703e-05, 4.884765625) (-1.4173778533935546e-05, 4.88671875) (-1.5045217514038084e-05, 4.888671875) (-1.6147518157958983e-05, 4.890625) (-1.7464311599731444e-05, 4.892578125) (-1.8975404739379883e-05, 4.89453125) (-2.0662031173706055e-05, 4.896484375) (-2.2503150939941404e-05, 4.8984375) (-2.4468360900878905e-05, 4.900390625) (-2.6519863128662108e-05, 4.90234375) (-2.862381362915039e-05, 4.904296875) (-3.0753360748291016e-05, 4.90625) (-3.2890148162841796e-05, 4.908203125) (-3.502275848388672e-05, 4.91015625) (-3.7137115478515626e-05, 4.912109375) (-3.921588134765625e-05, 4.9140625) (-4.1242553710937496e-05, 4.916015625) (-4.32043571472168e-05, 4.91796875) (-4.5094535827636715e-05, 4.919921875) (-4.691070556640625e-05, 4.921875) (-4.8644691467285154e-05, 4.923828125) (-5.0280426025390624e-05, 4.92578125) (-5.1810321807861324e-05, 4.927734375) (-5.323760604858398e-05, 4.9296875) (-5.458519744873047e-05, 4.931640625) (-5.589596939086914e-05, 4.93359375) (-5.719403076171875e-05, 4.935546875) (-5.848465728759765e-05, 4.9375) (-5.9767623901367187e-05, 4.939453125) (-6.1034225463867186e-05, 4.94140625) (-6.227902221679687e-05, 4.943359375) (-6.349498748779296e-05, 4.9453125) (-6.465203094482422e-05, 4.947265625) (-6.569792938232421e-05, 4.94921875) (-6.658085632324219e-05, 4.951171875) (-6.725411987304688e-05, 4.953125) (-6.768373107910156e-05, 4.955078125) (-6.785308837890625e-05, 4.95703125) (-6.772843933105469e-05, 4.958984375) (-6.725463104248047e-05, 4.9609375) (-6.636122131347656e-05, 4.962890625) (-6.496361541748047e-05, 4.96484375) (-6.300655364990234e-05, 4.966796875) (-6.046148681640625e-05, 4.96875) (-5.7300033569335934e-05, 4.970703125) (-5.3494987487792965e-05, 4.97265625) (-4.9019821166992185e-05, 4.974609375) (-4.386621475219726e-05, 4.9765625) (-3.807441711425781e-05, 4.978515625) (-3.173117446899414e-05, 4.98046875) (-2.4923751831054687e-05, 4.982421875) (-1.7729209899902343e-05, 4.984375) (-1.022090721130371e-05, 4.986328125) (-2.462881088256836e-06, 4.98828125) (5.452624320983887e-06, 4.990234375) (1.3402074813842773e-05, 4.9921875) (2.1262136459350585e-05, 4.994140625) (2.891326904296875e-05, 4.99609375) (3.6260734558105465e-05, 4.998046875) (4.3227821350097654e-05, 5.0) (4.972790908813476e-05, 5.001953125) (5.566091918945312e-05, 5.00390625) (6.0926929473876953e-05, 5.005859375) (6.545396423339843e-05, 5.0078125) (6.921871948242187e-05, 5.009765625) (7.224355316162109e-05, 5.01171875) (7.455287933349609e-05, 5.013671875) (7.616083526611328e-05, 5.015625) (7.709056091308594e-05, 5.017578125) (7.737225341796874e-05, 5.01953125) (7.70678482055664e-05, 5.021484375) (7.626799774169922e-05, 5.0234375) (7.504788208007812e-05, 5.025390625) (7.346372222900391e-05, 5.02734375) (7.155817413330078e-05, 5.029296875) (6.93690948486328e-05, 5.03125) (6.694831848144531e-05, 5.033203125) (6.436672973632813e-05, 5.03515625) (6.169589614868164e-05, 5.037109375) (5.8984321594238276e-05, 5.0390625) (5.625670623779297e-05, 5.041015625) (5.351697540283203e-05, 5.04296875) (5.0769874572753906e-05, 5.044921875) (4.802914047241211e-05, 5.046875) (4.5297367095947265e-05, 5.048828125) (4.2564361572265626e-05, 5.05078125) (3.979940032958984e-05, 5.052734375) (3.695858383178711e-05, 5.0546875) (3.401810836791992e-05, 5.056640625) (3.097559928894043e-05, 5.05859375) (2.783686065673828e-05, 5.060546875) (2.4609441757202146e-05, 5.0625) (2.1295137405395508e-05, 5.064453125) (1.7887212753295897e-05, 5.06640625) (1.4382887840270995e-05, 5.068359375) (1.0793672561645507e-05, 5.0703125) (7.135019302368164e-06, 5.072265625) (3.4244260787963864e-06, 5.07421875) (-3.218116760253906e-07, 5.076171875) (-4.091590404510498e-06, 5.078125) (-7.86513328552246e-06, 5.080078125) (-1.1613128662109374e-05, 5.08203125) (-1.5298328399658204e-05, 5.083984375) (-1.8881187438964843e-05, 5.0859375) (-2.233295440673828e-05, 5.087890625) (-2.5635694503784178e-05, 5.08984375) (-2.877560997009277e-05, 5.091796875) (-3.174062347412109e-05, 5.09375) (-3.4519683837890624e-05, 5.095703125) (-3.710257339477539e-05, 5.09765625) (-3.948440933227539e-05, 5.099609375) (-4.166681671142578e-05, 5.1015625) (-4.365016174316406e-05, 5.103515625) (-4.5433158874511715e-05, 5.10546875) (-4.7014850616455074e-05, 5.107421875) (-4.839433288574218e-05, 5.109375) (-4.957479095458984e-05, 5.111328125) (-5.05640869140625e-05, 5.11328125) (-5.137250518798828e-05, 5.115234375) (-5.2011180877685545e-05, 5.1171875) (-5.249090957641601e-05, 5.119140625) (-5.2822277069091794e-05, 5.12109375) (-5.3016376495361324e-05, 5.123046875) (-5.308505249023437e-05, 5.125) (-5.303998184204101e-05, 5.126953125) (-5.289226150512695e-05, 5.12890625) (-5.265191650390625e-05, 5.130859375) (-5.2328468322753906e-05, 5.1328125) (-5.1932777404785155e-05, 5.134765625) (-5.147681427001953e-05, 5.13671875) (-5.097285461425781e-05, 5.138671875) (-5.043327713012695e-05, 5.140625) (-4.986994171142578e-05, 5.142578125) (-4.929415512084961e-05, 5.14453125) (-4.8717140197753907e-05, 5.146484375) (-4.814971923828125e-05, 5.1484375) (-4.7601512908935546e-05, 5.150390625) (-4.708089828491211e-05, 5.15234375) (-4.659529876708984e-05, 5.154296875) (-4.615121078491211e-05, 5.15625) (-4.575448608398437e-05, 5.158203125) (-4.541033935546875e-05, 5.16015625) (-4.5123100280761717e-05, 5.162109375) (-4.489632415771484e-05, 5.1640625) (-4.473295593261719e-05, 5.166015625) (-4.4635414123535156e-05, 5.16796875) (-4.4605365753173825e-05, 5.169921875) (-4.464372253417968e-05, 5.171875) (-4.475054550170898e-05, 5.173828125) (-4.4925025939941405e-05, 5.17578125) (-4.516560363769531e-05, 5.177734375) (-4.547005462646484e-05, 5.1796875) (-4.58354377746582e-05, 5.181640625) (-4.625808334350586e-05, 5.18359375) (-4.6733642578124995e-05, 5.185546875) (-4.725720596313476e-05, 5.1875) (-4.7823410034179684e-05, 5.189453125) (-4.84266242980957e-05, 5.19140625) (-4.906092834472656e-05, 5.193359375) (-4.97200927734375e-05, 5.1953125) (-5.039754486083984e-05, 5.197265625) (-5.108651733398437e-05, 5.19921875) (-5.1780204772949217e-05, 5.201171875) (-5.247187042236328e-05, 5.203125) (-5.315488052368164e-05, 5.205078125) (-5.3822723388671874e-05, 5.20703125) (-5.446907424926758e-05, 5.208984375) (-5.508790969848632e-05, 5.2109375) (-5.5673767089843746e-05, 5.212890625) (-5.6221778869628904e-05, 5.21484375) (-5.672758483886718e-05, 5.216796875) (-5.718733978271484e-05, 5.21875) (-5.759766387939453e-05, 5.220703125) (-5.795557785034179e-05, 5.22265625) (-5.825861358642578e-05, 5.224609375) (-5.8504718780517576e-05, 5.2265625) (-5.8692138671874995e-05, 5.228515625) (-5.881938171386719e-05, 5.23046875) (-5.888525390625e-05, 5.232421875) (-5.888883209228515e-05, 5.234375) (-5.8829566955566406e-05, 5.236328125) (-5.87072639465332e-05, 5.23828125) (-5.852207946777343e-05, 5.240234375) (-5.827450942993164e-05, 5.2421875) (-5.7965419769287104e-05, 5.244140625) (-5.759602355957031e-05, 5.24609375) (-5.716790771484375e-05, 5.248046875) (-5.668297576904297e-05, 5.25) (-5.614340972900391e-05, 5.251953125) (-5.555162811279297e-05, 5.25390625) (-5.491025543212891e-05, 5.255859375) (-5.422211456298828e-05, 5.2578125) (-5.3490211486816406e-05, 5.259765625) (-5.271769332885742e-05, 5.26171875) (-5.190779495239258e-05, 5.263671875) (-5.106380844116211e-05, 5.265625) (-5.018902587890625e-05, 5.267578125) (-4.928672027587891e-05, 5.26953125) (-4.836007690429687e-05, 5.271484375) (-4.741217803955078e-05, 5.2734375) (-4.6445873260498045e-05, 5.275390625) (-4.546381378173828e-05, 5.27734375) (-4.4468429565429683e-05, 5.279296875) (-4.346193695068359e-05, 5.28125) (-4.244636535644531e-05, 5.283203125) (-4.1423583984375e-05, 5.28515625) (-4.039535140991211e-05, 5.287109375) (-3.936334991455078e-05, 5.2890625) (-3.832924652099609e-05, 5.291015625) (-3.7294708251953124e-05, 5.29296875) (-3.626142120361328e-05, 5.294921875) (-3.523109436035156e-05, 5.296875) (-3.4205432891845703e-05, 5.298828125) (-3.3186134338378905e-05, 5.30078125) (-3.217486572265625e-05, 5.302734375) (-3.1173257827758785e-05, 5.3046875) (-3.018288230895996e-05, 5.306640625) (-2.9205236434936522e-05, 5.30859375) (-2.824176788330078e-05, 5.310546875) (-2.729385757446289e-05, 5.3125) (-2.636286163330078e-05, 5.314453125) (-2.5450069427490235e-05, 5.31640625) (-2.455672836303711e-05, 5.318359375) (-2.3684024810791014e-05, 5.3203125) (-2.283307647705078e-05, 5.322265625) (-2.2004913330078123e-05, 5.32421875) (-2.1200489044189453e-05, 5.326171875) (-2.0420658111572265e-05, 5.328125) (-1.9666181564331052e-05, 5.330078125) (-1.8937744140625e-05, 5.33203125) (-1.823598861694336e-05, 5.333984375) (-1.756153869628906e-05, 5.3359375) (-1.691501235961914e-05, 5.337890625) (-1.6297027587890624e-05, 5.33984375) (-1.570818519592285e-05, 5.341796875) (-1.5149065017700195e-05, 5.34375) (-1.462018585205078e-05, 5.345703125) (-1.4121971130371093e-05, 5.34765625) (-1.3654685974121094e-05, 5.349609375) (-1.3218383789062499e-05, 5.3515625) (-1.2812854766845703e-05, 5.353515625) (-1.243759822845459e-05, 5.35546875) (-1.209182071685791e-05, 5.357421875) (-1.1774419784545898e-05, 5.359375) (-1.1484000205993651e-05, 5.361328125) (-1.1218868255615234e-05, 5.36328125) (-1.097705364227295e-05, 5.365234375) (-1.0756308555603026e-05, 5.3671875) (-1.0554141044616698e-05, 5.369140625) (-1.0367803573608399e-05, 5.37109375) (-1.0194290161132812e-05, 5.373046875) (-1.0030313491821288e-05, 5.375) (-9.872313499450683e-06, 5.376953125) (-9.71646499633789e-06, 5.37890625) (-9.558706283569336e-06, 5.380859375) (-9.394773483276367e-06, 5.3828125) (-9.220222473144531e-06, 5.384765625) (-9.03046989440918e-06, 5.38671875) (-8.820820808410644e-06, 5.388671875) (-8.58651351928711e-06, 5.390625) (-8.322753906249999e-06, 5.392578125) (-8.024707794189452e-06, 5.39453125) (-7.687500476837158e-06, 5.396484375) (-7.306214332580566e-06, 5.3984375) (-6.875888824462891e-06, 5.400390625) (-6.391547679901123e-06, 5.40234375) (-5.8482284545898435e-06, 5.404296875) (-5.241025924682617e-06, 5.40625) (-4.565140724182129e-06, 5.408203125) (-3.815947771072387e-06, 5.41015625) (-2.989068508148193e-06, 5.412109375) (-2.0804543495178223e-06, 5.4140625) (-1.086453080177307e-06, 5.416015625) (-3.84899228811264e-09, 5.41796875) (1.1701123714447022e-06, 5.419921875) (2.43770956993103e-06, 5.421875) (3.8007383346557617e-06, 5.423828125) (5.260497570037841e-06, 5.42578125) (6.817779541015625e-06, 5.427734375) (8.472865104675292e-06, 5.4296875) (1.0225523948669434e-05, 5.431640625) (1.2074983596801758e-05, 5.43359375) (1.4019906997680663e-05, 5.435546875) (1.6058355331420898e-05, 5.4375) (1.8187763214111326e-05, 5.439453125) (2.0404945373535155e-05, 5.44140625) (2.270611763000488e-05, 5.443359375) (2.5086906433105468e-05, 5.4453125) (2.754240036010742e-05, 5.447265625) (3.006715393066406e-05, 5.44921875) (3.2655250549316406e-05, 5.451171875) (3.5300308227539064e-05, 5.453125) (3.7995544433593746e-05, 5.455078125) (4.0733741760253905e-05, 5.45703125) (4.350727081298828e-05, 5.458984375) (4.630806732177734e-05, 5.4609375) (4.912766265869141e-05, 5.462890625) (5.195720291137695e-05, 5.46484375) (5.478748321533203e-05, 5.466796875) (5.760904312133789e-05, 5.46875) (6.041221237182617e-05, 5.470703125) (6.318721771240234e-05, 5.47265625) (6.592425537109375e-05, 5.474609375) (6.861363220214844e-05, 5.4765625) (7.124581909179687e-05, 5.478515625) (7.38115234375e-05, 5.48046875) (7.630174255371093e-05, 5.482421875) (7.870779418945312e-05, 5.484375) (8.102133178710937e-05, 5.486328125) (8.3234375e-05, 5.48828125) (8.533937835693358e-05, 5.490234375) (8.732925415039062e-05, 5.4921875) (8.919738769531249e-05, 5.494140625) (9.0937744140625e-05, 5.49609375) (9.254488372802733e-05, 5.498046875) (9.401407623291015e-05, 5.5) (9.53412857055664e-05, 5.501953125) (9.652323150634765e-05, 5.50390625) (9.755740356445312e-05, 5.505859375) (9.844203186035156e-05, 5.5078125) (9.917616271972656e-05, 5.509765625) (9.975953674316405e-05, 5.51171875) (0.000100192626953125, 5.513671875) (0.0001004766845703125, 5.515625) (0.00010061370086669921, 5.517578125) (0.00010060645294189453, 5.51953125) (0.00010045855712890625, 5.521484375) (0.00010017445373535156, 5.5234375) (9.975945281982422e-05, 5.525390625) (9.921964263916015e-05, 5.52734375) (9.856194305419922e-05, 5.529296875) (9.779405212402343e-05, 5.53125) (9.692424774169921e-05, 5.533203125) (9.596138000488281e-05, 5.53515625) (9.491473388671875e-05, 5.537109375) (9.379398345947265e-05, 5.5390625) (9.260903930664062e-05, 5.541015625) (9.137002563476562e-05, 5.54296875) (9.008719635009765e-05, 5.544921875) (8.877091217041015e-05, 5.546875) (8.743154907226562e-05, 5.548828125) (8.607945251464843e-05, 5.55078125) (8.472490692138671e-05, 5.552734375) (8.337803649902344e-05, 5.5546875) (8.204870605468749e-05, 5.556640625) (8.074642944335938e-05, 5.55859375) (7.948026275634765e-05, 5.560546875) (7.82587661743164e-05, 5.5625) (7.708995056152344e-05, 5.564453125) (7.598123931884765e-05, 5.56640625) (7.493941497802735e-05, 5.568359375) (7.397056579589844e-05, 5.5703125) (7.308016204833985e-05, 5.572265625) (7.227294921874999e-05, 5.57421875) (7.155300903320312e-05, 5.576171875) (7.092369079589843e-05, 5.578125) (7.0387451171875e-05, 5.580078125) (6.994577026367188e-05, 5.58203125) (6.959915924072265e-05, 5.583984375) (6.934706115722655e-05, 5.5859375) (6.918791198730469e-05, 5.587890625) (6.911911010742188e-05, 5.58984375) (6.913695526123047e-05, 5.591796875) (6.923674774169922e-05, 5.59375) (6.941287994384765e-05, 5.595703125) (6.965896606445313e-05, 5.59765625) (6.996783447265625e-05, 5.599609375) (7.033171844482421e-05, 5.6015625) (7.074212646484375e-05, 5.603515625) (7.118992614746094e-05, 5.60546875) (7.166545867919922e-05, 5.607421875) (7.215863037109375e-05, 5.609375) (7.26590347290039e-05, 5.611328125) (7.315608978271483e-05, 5.61328125) (7.363900756835937e-05, 5.615234375) (7.409692382812499e-05, 5.6171875) (7.451915740966796e-05, 5.619140625) (7.489533996582031e-05, 5.62109375) (7.521544647216797e-05, 5.623046875) (7.547001647949219e-05, 5.625) (7.56498794555664e-05, 5.626953125) (7.57462158203125e-05, 5.62890625) (7.575074768066406e-05, 5.630859375) (7.565574645996093e-05, 5.6328125) (7.54539794921875e-05, 5.634765625) (7.513883972167968e-05, 5.63671875) (7.470425415039061e-05, 5.638671875) (7.414463806152343e-05, 5.640625) (7.345557403564453e-05, 5.642578125) (7.263378143310546e-05, 5.64453125) (7.167703247070313e-05, 5.646484375) (7.058434295654297e-05, 5.6484375) (6.935575103759765e-05, 5.650390625) (6.799226379394531e-05, 5.65234375) (6.649622344970703e-05, 5.654296875) (6.487117004394531e-05, 5.65625) (6.312150955200195e-05, 5.658203125) (6.125262451171875e-05, 5.66015625) (5.927082061767578e-05, 5.662109375) (5.718330764770507e-05, 5.6640625) (5.499874114990234e-05, 5.666015625) (5.272682189941406e-05, 5.66796875) (5.037797927856445e-05, 5.669921875) (4.796343612670898e-05, 5.671875) (4.549470138549804e-05, 5.673828125) (4.2983612060546876e-05, 5.67578125) (4.0442596435546876e-05, 5.677734375) (3.788411712646484e-05, 5.6796875) (3.532041931152344e-05, 5.681640625) (3.276361846923828e-05, 5.68359375) (3.0225379943847654e-05, 5.685546875) (2.7717315673828124e-05, 5.6875) (2.5251728057861326e-05, 5.689453125) (2.2840797424316407e-05, 5.69140625) (2.04962043762207e-05, 5.693359375) (1.822870635986328e-05, 5.6953125) (1.6048036575317383e-05, 5.697265625) (1.396445083618164e-05, 5.69921875) (1.198887825012207e-05, 5.701171875) (1.0132381439208983e-05, 5.703125) (8.405128479003906e-06, 5.705078125) (6.815000534057617e-06, 5.70703125) (5.368422031402587e-06, 5.708984375) (4.071864128112793e-06, 5.7109375) (2.930774927139282e-06, 5.712890625) (1.948265075683594e-06, 5.71484375) (1.1246397495269774e-06, 5.716796875) (4.550870656967163e-07, 5.71875) (-6.810627877712249e-08, 5.720703125) (-4.511411190032959e-07, 5.72265625) (-7.010353207588196e-07, 5.724609375) (-8.237477540969848e-07, 5.7265625) (-8.2320237159729e-07, 5.728515625) (-7.084496021270752e-07, 5.73046875) (-4.900541007518768e-07, 5.732421875) (-1.771707832813263e-07, 5.734375) (2.1782007813453672e-07, 5.736328125) (6.843100786209106e-07, 5.73828125) (1.2125751972198486e-06, 5.740234375) (1.786067485809326e-06, 5.7421875) (2.3901669979095457e-06, 5.744140625) (3.0182795524597165e-06, 5.74609375) (3.6668171882629392e-06, 5.748046875) (4.343705177307129e-06, 5.75) (5.0635180473327635e-06, 5.751953125) (5.828742980957031e-06, 5.75390625) (6.6414556503295895e-06, 5.755859375) (7.499014377593994e-06, 5.7578125) (8.379570960998535e-06, 5.759765625) (9.266739845275878e-06, 5.76171875) (1.0141437530517577e-05, 5.763671875) (1.0975820541381836e-05, 5.765625) (1.176097297668457e-05, 5.767578125) (1.2492037773132324e-05, 5.76953125) (1.3161667823791503e-05, 5.771484375) (1.3767398834228515e-05, 5.7734375) (1.428916835784912e-05, 5.775390625) (1.4700052261352538e-05, 5.77734375) (1.4984238624572753e-05, 5.779296875) (1.5083952903747558e-05, 5.78125) (1.4913039207458495e-05, 5.783203125) (1.4404041290283202e-05, 5.78515625) (1.3477050781249999e-05, 5.787109375) (1.2198686599731445e-05, 5.7890625) (1.0818127632141113e-05, 5.791015625) (9.468708038330077e-06, 5.79296875) (8.225021362304686e-06, 5.794921875) (7.1958875656127924e-06, 5.796875) (6.321701049804687e-06, 5.798828125) (5.630486488342285e-06, 5.80078125) (5.302400588989258e-06, 5.802734375) (4.7938508987426755e-06, 5.8046875) (3.0817186832427975e-06, 5.806640625) (-2.4324190616607667e-07, 5.80859375) (-5.559396743774414e-06, 5.810546875) (-1.225174331665039e-05, 5.8125) (-1.8218738555908204e-05, 5.814453125) (-2.3308019638061523e-05, 5.81640625) (-2.8210163116455075e-05, 5.818359375) (-3.369509124755859e-05, 5.8203125) (-4.2132892608642574e-05, 5.822265625) (-5.255268859863281e-05, 5.82421875) (-6.130682373046875e-05, 5.826171875) (-6.418895721435547e-05, 5.828125) (-5.550833511352539e-05, 5.830078125) (-3.275362777709961e-05, 5.83203125) (3.310218811035156e-06, 5.833984375) (4.757058715820312e-05, 5.8359375) (9.104502868652343e-05, 5.837890625) (0.00012445791625976561, 5.83984375) (0.00013638066101074217, 5.841796875) (0.00012094670867919922, 5.84375) (7.906874847412108e-05, 5.845703125) (1.51600341796875e-05, 5.84765625) (-5.5957923889160156e-05, 5.849609375) (-0.00011940463256835937, 5.8515625) (-0.00016629656982421873, 5.853515625) (-0.00018971678161621092, 5.85546875) (-0.00019395745849609374, 5.857421875) (-0.00018822434997558594, 5.859375) (-0.0001774810333251953, 5.861328125) (-0.00016660662841796875, 5.86328125) (-0.00015530738830566405, 5.865234375) (-0.00013956240844726562, 5.8671875) (-0.00011924691772460938, 5.869140625) (-9.546994018554686e-05, 5.87109375) (-7.036036682128905e-05, 5.873046875) (-4.756531524658203e-05, 5.875) (-2.8737167358398437e-05, 5.876953125) (-1.435363483428955e-05, 5.87890625) (-4.88617467880249e-06, 5.880859375) (2.1676528453826902e-07, 5.8828125) (1.947726726531982e-06, 5.884765625) (1.53397798538208e-06, 5.88671875) (4.053469896316528e-07, 5.888671875) (-4.865107536315918e-07, 5.890625) (-7.142762541770934e-07, 5.892578125) (3.249478340148926e-08, 5.89453125) (2.125070571899414e-06, 5.896484375) (5.668935298919678e-06, 5.8984375) (1.0447914123535156e-05, 5.900390625) (1.5894147872924802e-05, 5.90234375) (2.1211944580078123e-05, 5.904296875) (2.5937004089355467e-05, 5.90625) (2.995223617553711e-05, 5.908203125) (3.3204643249511717e-05, 5.91015625) (3.564969635009766e-05, 5.912109375) (3.729380798339843e-05, 5.9140625) (3.817649459838867e-05, 5.916015625) (3.8496063232421874e-05, 5.91796875) (3.859615325927734e-05, 5.919921875) (3.8665794372558594e-05, 5.921875) (3.877355194091797e-05, 5.923828125) (3.895936965942382e-05, 5.92578125) (3.922096252441406e-05, 5.927734375) (3.960054779052734e-05, 5.9296875) (4.016228866577148e-05, 5.931640625) (4.0905471801757814e-05, 5.93359375) (4.178634643554687e-05, 5.935546875) (4.277352142333984e-05, 5.9375) (4.383207702636719e-05, 5.939453125) (4.493794250488281e-05, 5.94140625) (4.6071533203125e-05, 5.943359375) (4.71724853515625e-05, 5.9453125) (4.818903732299805e-05, 5.947265625) (4.9091659545898434e-05, 5.94921875) (4.985574340820312e-05, 5.951171875) (5.048108291625976e-05, 5.953125) (5.096937561035156e-05, 5.955078125) (5.13120002746582e-05, 5.95703125) (5.150619506835937e-05, 5.958984375) (5.1550113677978515e-05, 5.9609375) (5.143794631958007e-05, 5.962890625) (5.1168769836425776e-05, 5.96484375) (5.074139404296875e-05, 5.966796875) (5.0152088165283204e-05, 5.96875) (4.9410213470458984e-05, 5.970703125) (4.853255081176758e-05, 5.97265625) (4.7542629241943354e-05, 5.974609375) (4.64771728515625e-05, 5.9765625) (4.536487579345703e-05, 5.978515625) (4.4225189208984375e-05, 5.98046875) (4.3076900482177734e-05, 5.982421875) (4.193086242675781e-05, 5.984375) (4.079438400268555e-05, 5.986328125) (3.9675392150878904e-05, 5.98828125) (3.857565307617187e-05, 5.990234375) (3.7492568969726564e-05, 5.9921875) (3.6427684783935545e-05, 5.994140625) (3.5384117126464843e-05, 5.99609375) (3.436566925048828e-05, 5.998046875) (3.337862777709961e-05, 6.0) (3.2425724029541015e-05, 6.001953125) (3.150654220581054e-05, 6.00390625) (3.061990356445312e-05, 6.005859375) (2.976215362548828e-05, 6.0078125) (2.8929664611816404e-05, 6.009765625) (2.8119802474975585e-05, 6.01171875) (2.7329132080078125e-05, 6.013671875) (2.6554378509521483e-05, 6.015625) (2.579360008239746e-05, 6.017578125) (2.5045352935791014e-05, 6.01953125) (2.4309480667114256e-05, 6.021484375) (2.3587282180786133e-05, 6.0234375) (2.2878715515136717e-05, 6.025390625) (2.2182445526123046e-05, 6.02734375) (2.1496883392333983e-05, 6.029296875) (2.0819644927978516e-05, 6.03125) (2.0148183822631834e-05, 6.033203125) (1.948011779785156e-05, 6.03515625) (1.881250762939453e-05, 6.037109375) (1.8142026901245117e-05, 6.0390625) (1.7466041564941405e-05, 6.041015625) (1.678260040283203e-05, 6.04296875) (1.6090129852294922e-05, 6.044921875) (1.5387578964233398e-05, 6.046875) (1.4674057960510252e-05, 6.048828125) (1.3948733329772948e-05, 6.05078125) (1.3211187362670898e-05, 6.052734375) (1.2461377143859863e-05, 6.0546875) (1.1699360847473144e-05, 6.056640625) (1.0925328254699707e-05, 6.05859375) (1.013965606689453e-05, 6.060546875) (9.342830657958985e-06, 6.0625) (8.535606384277344e-06, 6.064453125) (7.719018459320068e-06, 6.06640625) (6.894191741943359e-06, 6.068359375) (6.062334060668945e-06, 6.0703125) (5.224785804748535e-06, 6.072265625) (4.382912635803222e-06, 6.07421875) (3.5381562709808348e-06, 6.076171875) (2.692044973373413e-06, 6.078125) (1.8459805250167846e-06, 6.080078125) (1.0012707710266112e-06, 6.08203125) (1.5914806723594666e-07, 6.083984375) (-6.792804598808289e-07, 6.0859375) (-1.512836456298828e-06, 6.087890625) (-2.34023380279541e-06, 6.08984375) (-3.1602392196655272e-06, 6.091796875) (-3.971670627593994e-06, 6.09375) (-4.7733736038208e-06, 6.095703125) (-5.56431770324707e-06, 6.09765625) (-6.343542098999023e-06, 6.099609375) (-7.110157966613769e-06, 6.1015625) (-7.863608360290527e-06, 6.103515625) (-8.603664398193358e-06, 6.10546875) (-9.330361366271972e-06, 6.107421875) (-1.00440092086792e-05, 6.109375) (-1.0745089530944824e-05, 6.111328125) (-1.1434211730957031e-05, 6.11328125) (-1.2112167358398438e-05, 6.115234375) (-1.2779890060424803e-05, 6.1171875) (-1.34384126663208e-05, 6.119140625) (-1.4088869094848632e-05, 6.12109375) (-1.4732460021972655e-05, 6.123046875) (-1.5370460510253906e-05, 6.125) (-1.6004199981689453e-05, 6.126953125) (-1.6634986877441404e-05, 6.12890625) (-1.7264076232910154e-05, 6.130859375) (-1.789263916015625e-05, 6.1328125) (-1.8521732330322263e-05, 6.134765625) (-1.915229797363281e-05, 6.13671875) (-1.9785144805908202e-05, 6.138671875) (-2.0420873641967774e-05, 6.140625) (-2.1059963226318358e-05, 6.142578125) (-2.1702810287475585e-05, 6.14453125) (-2.234975814819336e-05, 6.146484375) (-2.3001138687133787e-05, 6.1484375) (-2.3657190322875977e-05, 6.150390625) (-2.43179931640625e-05, 6.15234375) (-2.4983489990234372e-05, 6.154296875) (-2.5653427124023436e-05, 6.15625) (-2.632729911804199e-05, 6.158203125) (-2.7004295349121093e-05, 6.16015625) (-2.768325042724609e-05, 6.162109375) (-2.8362552642822266e-05, 6.1640625) (-2.9040313720703122e-05, 6.166015625) (-2.9714393615722654e-05, 6.16796875) (-3.0382369995117187e-05, 6.169921875) (-3.104167938232422e-05, 6.171875) (-3.168965721130371e-05, 6.173828125) (-3.232352066040039e-05, 6.17578125) (-3.294054412841797e-05, 6.177734375) (-3.3538131713867186e-05, 6.1796875) (-3.4113677978515624e-05, 6.181640625) (-3.466462707519531e-05, 6.18359375) (-3.51884651184082e-05, 6.185546875) (-3.568254852294922e-05, 6.1875) (-3.614433288574218e-05, 6.189453125) (-3.6571563720703126e-05, 6.19140625) (-3.6962142944335936e-05, 6.193359375) (-3.7314186096191404e-05, 6.1953125) (-3.762590789794922e-05, 6.197265625) (-3.789542388916016e-05, 6.19921875) (-3.812113952636719e-05, 6.201171875) (-3.830198287963867e-05, 6.203125) (-3.843711853027344e-05, 6.205078125) (-3.852588653564453e-05, 6.20703125) (-3.8567665100097655e-05, 6.208984375) (-3.85615234375e-05, 6.2109375) (-3.8506839752197264e-05, 6.212890625) (-3.840342330932617e-05, 6.21484375) (-3.82510986328125e-05, 6.216796875) (-3.804999542236328e-05, 6.21875) (-3.780031585693359e-05, 6.220703125) (-3.7502101898193355e-05, 6.22265625) (-3.71561164855957e-05, 6.224609375) (-3.676390838623047e-05, 6.2265625) (-3.632752227783203e-05, 6.228515625) (-3.5849842071533205e-05, 6.23046875) (-3.533385467529297e-05, 6.232421875) (-3.4781898498535154e-05, 6.234375) (-3.41960220336914e-05, 6.236328125) (-3.357769775390625e-05, 6.23828125) (-3.292714691162109e-05, 6.240234375) (-3.224395370483398e-05, 6.2421875) (-3.152685165405273e-05, 6.244140625) (-3.077375984191894e-05, 6.24609375) (-2.998344802856445e-05, 6.248046875) (-2.915545082092285e-05, 6.25) (-2.8291316986083982e-05, 6.251953125) (-2.739542770385742e-05, 6.25390625) (-2.6473493576049805e-05, 6.255859375) (-2.553290557861328e-05, 6.2578125) (-2.4581430435180663e-05, 6.259765625) (-2.3625688552856443e-05, 6.26171875) (-2.2672889709472656e-05, 6.263671875) (-2.173137092590332e-05, 6.265625) (-2.080934715270996e-05, 6.267578125) (-1.991629981994629e-05, 6.26953125) (-1.9063785552978515e-05, 6.271484375) (-1.8262353897094727e-05, 6.2734375) (-1.7523794174194335e-05, 6.275390625) (-1.686007308959961e-05, 6.27734375) (-1.62802677154541e-05, 6.279296875) (-1.579420757293701e-05, 6.28125) (-1.5404974937438964e-05, 6.283203125) (-1.510552978515625e-05, 6.28515625) (-1.4881498336791992e-05, 6.287109375) (-1.4708642959594725e-05, 6.2890625) (-1.4564430236816405e-05, 6.291015625) (-1.4434712409973144e-05, 6.29296875) (-1.4301934242248535e-05, 6.294921875) (-1.4143733024597168e-05, 6.296875) (-1.3934377670288085e-05, 6.298828125) (-1.3637939453125e-05, 6.30078125) (-1.3229749679565428e-05, 6.302734375) (-1.2710934638977051e-05, 6.3046875) (-1.2082027435302733e-05, 6.306640625) (-1.135316562652588e-05, 6.30859375) (-1.0542594909667969e-05, 6.310546875) (-9.642568588256835e-06, 6.3125) (-8.692059516906737e-06, 6.314453125) (-7.787235736846923e-06, 6.31640625) (-6.973190307617187e-06, 6.318359375) (-6.2679204940795895e-06, 6.3203125) (-5.6234788894653315e-06, 6.322265625) (-4.864887237548828e-06, 6.32421875) (-3.856322288513184e-06, 6.326171875) (-2.558594226837158e-06, 6.328125) (-8.53727638721466e-07, 6.330078125) (1.372018814086914e-06, 6.33203125) (4.01105260848999e-06, 6.333984375) (6.87629222869873e-06, 6.3359375) (9.492923736572265e-06, 6.337890625) (1.1027653694152832e-05, 6.33984375) (1.0805098533630371e-05, 6.341796875) (8.249253273010254e-06, 6.34375) (2.7334442138671874e-06, 6.345703125) (-6.059279918670654e-06, 6.34765625) (-1.788087272644043e-05, 6.349609375) (-3.217905807495117e-05, 6.3515625) (-4.779380798339844e-05, 6.353515625) (-6.282450103759765e-05, 6.35546875) (-7.544503784179687e-05, 