(-0.0006429090576171875, 0.0) (-0.00077991064453125, 0.001953125) (-0.0008304981689453124, 0.00390625) (-0.0008018739624023437, 0.005859375) (-0.0007311788330078124, 0.0078125) (-0.0006619525146484375, 0.009765625) (-0.0006178579711914062, 0.01171875) (-0.000599396240234375, 0.013671875) (-0.0005856070556640625, 0.015625) (-0.0005557788696289063, 0.017578125) (-0.0005048200073242187, 0.01953125) (-0.0004413648071289062, 0.021484375) (-0.00038441058349609374, 0.0234375) (-0.000348072021484375, 0.025390625) (-0.0003352875671386719, 0.02734375) (-0.00033834652709960935, 0.029296875) (-0.000342209228515625, 0.03125) (-0.0003331836242675781, 0.033203125) (-0.0002992900695800781, 0.03515625) (-0.00023369499206542967, 0.037109375) (-0.0001379194793701172, 0.0390625) (-1.548622131347656e-05, 0.041015625) (0.0001266007080078125, 0.04296875) (0.0002760368957519531, 0.044921875) (0.0004250193481445312, 0.046875) (0.0005651627807617188, 0.048828125) (0.0006838980712890625, 0.05078125) (0.0007772588500976562, 0.052734375) (0.0008429849243164063, 0.0546875) (0.0008809299926757812, 0.056640625) (0.0009040309448242188, 0.05859375) (0.0009235410156249999, 0.060546875) (0.000946494873046875, 0.0625) (0.0009801901855468749, 0.064453125) (0.0010203662109374999, 0.06640625) (0.00105851416015625, 0.068359375) (0.00109044140625, 0.0703125) (0.001111520751953125, 0.072265625) (0.0011228133544921874, 0.07421875) (0.0011297447509765624, 0.076171875) (0.0011344154052734374, 0.078125) (0.00113788525390625, 0.080078125) (0.001139456787109375, 0.08203125) (0.00113661474609375, 0.083984375) (0.00112861962890625, 0.0859375) (0.0011157890625, 0.087890625) (0.0010985633544921874, 0.08984375) (0.0010777491455078124, 0.091796875) (0.0010538475341796874, 0.09375) (0.0010271845703125, 0.095703125) (0.0009983681640625, 0.09765625) (0.0009679364013671875, 0.099609375) (0.0009361848144531249, 0.1015625) (0.0009032496337890624, 0.103515625) (0.0008692540283203124, 0.10546875) (0.0008343443603515625, 0.107421875) (0.0007984602050781249, 0.109375) (0.0007616179199218749, 0.111328125) (0.0007238291015625, 0.11328125) (0.0006847238159179688, 0.115234375) (0.000645080322265625, 0.1171875) (0.0006057220458984374, 0.119140625) (0.00056561376953125, 0.12109375) (0.0005245708618164062, 0.123046875) (0.0004806586608886719, 0.125) (0.0004314771118164062, 0.126953125) (0.00037983758544921873, 0.12890625) (0.0003276300048828125, 0.130859375) (0.0002776518859863281, 0.1328125) (0.0002337662658691406, 0.134765625) (0.00019281222534179687, 0.13671875) (0.00015214608764648437, 0.138671875) (0.00011002349853515625, 0.140625) (6.345631408691405e-05, 0.142578125) (1.4950992584228515e-05, 0.14453125) (-3.290204620361328e-05, 0.146484375) (-7.931326293945312e-05, 0.1484375) (-0.00012265409088134765, 0.150390625) (-0.00016359132385253906, 0.15234375) (-0.00020309222412109374, 0.154296875) (-0.00024084245300292966, 0.15625) (-0.0002767861633300781, 0.158203125) (-0.0003106412963867187, 0.16015625) (-0.0003419813232421875, 0.162109375) (-0.0003707649536132812, 0.1640625) (-0.00039698822021484373, 0.166015625) (-0.00042053265380859374, 0.16796875) (-0.0004413386535644531, 0.169921875) (-0.0004594191284179687, 0.171875) (-0.0004748201293945312, 0.173828125) (-0.00048764181518554686, 0.17578125) (-0.0004980531005859375, 0.177734375) (-0.0005062199401855468, 0.1796875) (-0.0005123092041015624, 0.181640625) (-0.0005165008544921874, 0.18359375) (-0.0005189110717773438, 0.185546875) (-0.0005197503662109375, 0.1875) (-0.000519390869140625, 0.189453125) (-0.0005183787841796874, 0.19140625) (-0.0005174763793945312, 0.193359375) (-0.00051747021484375, 0.1953125) (-0.000519005126953125, 0.197265625) (-0.0005226135864257812, 0.19921875) (-0.0005288749389648437, 0.201171875) (-0.0005382980346679687, 0.203125) (-0.0005511072387695312, 0.205078125) (-0.000566942626953125, 0.20703125) (-0.0005848737182617187, 0.208984375) (-0.0006038623046875, 0.2109375) (-0.0006239031982421875, 0.212890625) (-0.000646324951171875, 0.21484375) (-0.0006721068725585937, 0.216796875) (-0.0007010286254882812, 0.21875) (-0.0007298921508789063, 0.220703125) (-0.0007540704956054687, 0.22265625) (-0.0007716564331054687, 0.224609375) (-0.0007853048095703125, 0.2265625) (-0.000804816650390625, 0.228515625) (-0.0008419388427734375, 0.23046875) (-0.0009048284912109375, 0.232421875) (-0.0009949244995117188, 0.234375) (-0.0011018090820312499, 0.236328125) (-0.0012094271240234375, 0.23828125) (-0.00130152880859375, 0.240234375) (-0.0013648525390624999, 0.2421875) (-0.001397053466796875, 0.244140625) (-0.0014050300292968749, 0.24609375) (-0.0013994937744140625, 0.248046875) (-0.00139309375, 0.25) (-0.001391978515625, 0.251953125) (-0.0013907623291015624, 0.25390625) (-0.001379187255859375, 0.255859375) (-0.001343959716796875, 0.2578125) (-0.0012773271484375, 0.259765625) (-0.0011866015625, 0.26171875) (-0.0010866829833984374, 0.263671875) (-0.0009962109985351562, 0.265625) (-0.0009284194946289062, 0.267578125) (-0.0008819274902343749, 0.26953125) (-0.0008470272216796875, 0.271484375) (-0.0008109202880859375, 0.2734375) (-0.0007637415771484375, 0.275390625) (-0.0007027467651367187, 0.27734375) (-0.0006288809814453125, 0.279296875) (-0.0005405581665039063, 0.28125) (-0.00043355346679687496, 0.283203125) (-0.00030310015869140626, 0.28515625) (-0.00014308651733398436, 0.287109375) (4.387491989135742e-05, 0.2890625) (0.00024594082641601564, 0.291015625) (0.00044832064819335933, 0.29296875) (0.0006271409912109374, 0.294921875) (0.0007624053344726562, 0.296875) (0.0008467822265625, 0.298828125) (0.0008787211303710938, 0.30078125) (0.0008730974121093749, 0.302734375) (0.0008524641113281249, 0.3046875) (0.0008328302001953125, 0.306640625) (0.0008286936645507812, 0.30859375) (0.0008416016845703124, 0.310546875) (0.0008632560424804688, 0.3125) (0.0008882897338867188, 0.314453125) (0.0009094284667968749, 0.31640625) (0.0009251500244140625, 0.318359375) (0.0009371238403320312, 0.3203125) (0.0009385747070312499, 0.322265625) (0.0009227259521484375, 0.32421875) (0.0008827083740234375, 0.326171875) (0.0008137418212890625, 0.328125) (0.0007266175537109375, 0.330078125) (0.0006369412841796875, 0.33203125) (0.0005564741821289062, 0.333984375) (0.0004948091430664062, 0.3359375) (0.0004466625061035156, 0.337890625) (0.0003989878845214844, 0.33984375) (0.00034423876953125, 0.341796875) (0.0002762422485351562, 0.34375) (0.000197139892578125, 0.345703125) (0.00011564281463623046, 0.34765625) (3.608721542358398e-05, 0.349609375) (-3.8743579864501954e-05, 0.3515625) (-0.00010894149780273438, 0.353515625) (-0.00017793457031249998, 0.35546875) (-0.0002466570434570312, 0.357421875) (-0.0003149179077148437, 0.359375) (-0.000381805908203125, 0.361328125) (-0.00044449826049804684, 0.36328125) (-0.0005020892944335938, 0.365234375) (-0.0005541698608398437, 0.3671875) (-0.000600078857421875, 0.369140625) (-0.0006414156494140625, 0.37109375) (-0.0006762713012695312, 0.373046875) (-0.0007001170654296875, 0.375) (-0.0007083905029296875, 0.376953125) (-0.0006927225341796875, 0.37890625) (-0.0006484854125976562, 0.380859375) (-0.00057756494140625, 0.3828125) (-0.0004840923156738281, 0.384765625) (-0.00037989889526367183, 0.38671875) (-0.00028059127807617185, 0.388671875) (-0.00019609339904785156, 0.390625) (-0.00013378004455566405, 0.392578125) (-9.212794494628906e-05, 0.39453125) (-5.691835403442383e-05, 0.396484375) (-1.701339912414551e-05, 0.3984375) (3.493281555175781e-05, 0.400390625) (9.965318298339843e-05, 0.40234375) (0.00016458447265625, 0.404296875) (0.0002209857177734375, 0.40625) (0.00026751950073242186, 0.408203125) (0.00030615139770507813, 0.41015625) (0.0003437268371582031, 0.412109375) (0.0003801730346679687, 0.4140625) (0.00040658245849609374, 0.416015625) (0.0004140968627929687, 0.41796875) (0.0003980282592773437, 0.419921875) (0.00036222235107421873, 0.421875) (0.00031790194702148433, 0.423828125) (0.00027537188720703126, 0.42578125) (0.0002394981231689453, 0.427734375) (0.00020995635986328123, 0.4296875) (0.00018289053344726561, 0.431640625) (0.00015523016357421875, 0.43359375) (0.00012645613861083984, 0.435546875) (9.662533569335937e-05, 0.4375) (6.539937591552735e-05, 0.439453125) (3.1965240478515624e-05, 0.44140625) (-4.015491008758545e-06, 0.443359375) (-4.044389343261719e-05, 0.4453125) (-7.358642578125e-05, 0.447265625) (-0.00010181439208984374, 0.44921875) (-0.0001280937042236328, 0.451171875) (-0.0001607669677734375, 0.453125) (-0.00020947445678710938, 0.455078125) (-0.0002789364013671875, 0.45703125) (-0.0003686016235351562, 0.458984375) (-0.0004728596801757812, 0.4609375) (-0.0005842483520507812, 0.462890625) (-0.0006986590576171875, 0.46484375) (-0.0008089500732421875, 0.466796875) (-0.0009048947753906249, 0.46875) (-0.000979038818359375, 0.470703125) (-0.0010248568115234374, 0.47265625) (-0.001049255615234375, 0.474609375) (-0.001071927734375, 0.4765625) (-0.0011087314453125, 0.478515625) (-0.001172478759765625, 0.48046875) (-0.001261547119140625, 0.482421875) (-0.0013600982666015623, 0.484375) (-0.0014575296630859374, 0.486328125) (-0.0015458696289062498, 0.48828125) (-0.0016240614013671875, 0.490234375) (-0.001699595458984375, 0.4921875) (-0.0017747670898437499, 0.494140625) (-0.0018491077880859374, 0.49609375) (-0.0019190391845703124, 0.498046875) (-0.00197506396484375, 0.5) (-0.0020101065673828124, 0.501953125) (-0.00201918408203125, 0.50390625) (-0.0020018553466796874, 0.505859375) (-0.0019642832031249997, 0.5078125) (-0.001907886474609375, 0.509765625) (-0.0018298681640624998, 0.51171875) (-0.0017207456054687499, 0.513671875) (-0.0015622860107421875, 0.515625) (-0.00134638818359375, 0.517578125) (-0.0010741732177734374, 0.51953125) (-0.0007538453979492187, 0.521484375) (-0.0004078470153808594, 0.5234375) (-5.6065666198730465e-05, 0.525390625) (0.00028431991577148436, 0.52734375) (0.0005928110961914062, 0.529296875) (0.000859042724609375, 0.53125) (0.0010788096923828123, 0.533203125) (0.0012526622314453124, 0.53515625) (0.00139214892578125, 0.537109375) (0.001507673583984375, 0.5390625) (0.00160433642578125, 0.541015625) (0.0016867940673828124, 0.54296875) (0.0017561639404296875, 0.544921875) (0.0018151383056640624, 0.546875) (0.0018716721191406249, 0.548828125) (0.0019316982421875, 0.55078125) (0.001999756103515625, 0.552734375) (0.002077579345703125, 0.5546875) (0.002159829833984375, 0.556640625) (0.0022372492675781248, 0.55859375) (0.002295390869140625, 0.560546875) (0.002319046630859375, 0.5625) (0.0023012958984375, 0.564453125) (0.0022470654296875, 0.56640625) (0.0021754814453125, 0.568359375) (0.00211100244140625, 0.5703125) (0.002070812744140625, 0.572265625) (0.002059103515625, 0.57421875) (0.00206501171875, 0.576171875) (0.0020709394531249997, 0.578125) (0.00206413330078125, 0.580078125) (0.0020398826904296876, 0.58203125) (0.0020019493408203123, 0.583984375) (0.0019586302490234376, 0.5859375) (0.0019151413574218748, 0.587890625) (0.0018730695800781248, 0.58984375) (0.0018320999755859373, 0.591796875) (0.0017906370849609375, 0.59375) (0.001748629150390625, 0.595703125) (0.0017074888916015624, 0.59765625) (0.0016680079345703124, 0.599609375) (0.001630378662109375, 0.6015625) (0.0015945458984375, 0.603515625) (0.0015600659179687499, 0.60546875) (0.0015264298095703124, 0.607421875) (0.001493606201171875, 0.609375) (0.001461899169921875, 0.611328125) (0.0014318336181640625, 0.61328125) (0.0014046636962890624, 0.615234375) (0.0013820303955078125, 0.6171875) (0.0013652322998046874, 0.619140625) (0.0013555986328124998, 0.62109375) (0.001354451904296875, 0.623046875) (0.0013623450927734374, 0.625) (0.001379149658203125, 0.626953125) (0.0014042001953124999, 0.62890625) (0.001436201171875, 0.630859375) (0.0014738145751953123, 0.6328125) (0.001514496337890625, 0.634765625) (0.0015534572753906249, 0.63671875) (0.0015859114990234373, 0.638671875) (0.0016084577636718749, 0.640625) (0.00162271630859375, 0.642578125) (0.0016370274658203123, 0.64453125) (0.001657906982421875, 0.646484375) (0.0016845262451171874, 0.6484375) (0.0017060780029296875, 0.650390625) (0.0017004633789062498, 0.65234375) (0.0016488677978515624, 0.654296875) (0.0015500257568359375, 0.65625) (0.0014204979248046874, 0.658203125) (0.0012931874999999998, 0.66015625) (0.001203359619140625, 0.662109375) (0.00116645068359375, 0.6640625) (0.001177966796875, 0.666015625) (0.001220156494140625, 0.66796875) (0.0012685882568359375, 0.669921875) (0.00131177734375, 0.671875) (0.0013506362304687499, 0.673828125) (0.0013872027587890625, 0.67578125) (0.00142644873046875, 0.677734375) (0.0014662305908203124, 0.6796875) (0.0014981689453125, 0.681640625) (0.00151949755859375, 0.68359375) (0.001527001708984375, 0.685546875) (0.0015197935791015625, 0.6875) (0.0015009140624999999, 0.689453125) (0.0014690953369140625, 0.69140625) (0.001424033203125, 0.693359375) (0.001367368896484375, 0.6953125) (0.0013002200927734375, 0.697265625) (0.0012263721923828125, 0.69921875) (0.0011497734375, 0.701171875) (0.0010731090087890624, 0.703125) (0.0009973138427734375, 0.705078125) (0.0009222000122070313, 0.70703125) (0.0008490693359375, 0.708984375) (0.0007783447875976562, 0.7109375) (0.0007121680297851562, 0.712890625) (0.0006527550659179688, 0.71484375) (0.0005961484375, 0.716796875) (0.0005394485473632812, 0.71875) (0.0004792468872070312, 0.720703125) (0.00041153366088867186, 0.72265625) (0.00034061517333984373, 0.724609375) (0.0002703527526855469, 0.7265625) (0.00020355624389648436, 0.728515625) (0.00014443630981445313, 0.73046875) (9.105165100097656e-05, 0.732421875) (4.141283416748047e-05, 0.734375) (-4.629365921020508e-06, 0.736328125) (-4.848851776123047e-05, 0.73828125) (-8.928065490722655e-05, 0.740234375) (-0.00012603727722167968, 0.7421875) (-0.00015924069213867187, 0.744140625) (-0.0001889859924316406, 0.74609375) (-0.00021559498596191405, 0.748046875) (-0.00023949435424804687, 0.75) (-0.0002608724365234375, 0.751953125) (-0.0002802206726074219, 0.75390625) (-0.000297903564453125, 0.755859375) (-0.00031395263671875, 0.7578125) (-0.00032856127929687496, 0.759765625) (-0.00034168682861328124, 0.76171875) (-0.00035409927368164064, 0.763671875) (-0.00036788751220703125, 0.765625) (-0.00038297418212890626, 0.767578125) (-0.00039768933105468747, 0.76953125) (-0.0004095513916015625, 0.771484375) (-0.00041376318359375, 0.7734375) (-0.00041056304931640623, 0.775390625) (-0.0004053629760742187, 0.77734375) (-0.00040336364746093746, 0.779296875) (-0.0004118054504394531, 0.78125) (-0.00043180038452148435, 0.783203125) (-0.00045675537109374995, 0.78515625) (-0.0004812025451660156, 0.787109375) (-0.0004990764160156249, 0.7890625) (-0.0005094412841796875, 0.791015625) (-0.0005184359130859375, 0.79296875) (-0.0005297594604492188, 0.794921875) (-0.0005450106201171875, 0.796875) (-0.000561228759765625, 0.798828125) (-0.0005706552734375, 0.80078125) (-0.0005704759521484374, 0.802734375) (-0.0005635133056640625, 0.8046875) (-0.0005572955322265625, 0.806640625) (-0.0005622737426757812, 0.80859375) (-0.000583613525390625, 0.810546875) (-0.0006204442138671875, 0.8125) (-0.0006677884521484375, 0.814453125) (-0.0007181131591796875, 0.81640625) (-0.0007646010131835937, 0.818359375) (-0.0008012926025390625, 0.8203125) (-0.0008249874877929687, 0.822265625) (-0.0008360107421874999, 0.82421875) (-0.0008385914306640624, 0.826171875) (-0.000841072998046875, 0.828125) (-0.0008499774169921874, 0.830078125) (-0.0008676837158203125, 0.83203125) (-0.0008927260131835937, 0.833984375) (-0.0009198531494140625, 0.8359375) (-0.0009451253662109374, 0.837890625) (-0.0009676265869140625, 0.83984375) (-0.000987802734375, 0.841796875) (-0.0010071864013671875, 0.84375) (-0.001026694580078125, 0.845703125) (-0.0010461849365234375, 0.84765625) (-0.0010655943603515624, 0.849609375) (-0.0010850634765625, 0.8515625) (-0.0011048314208984375, 0.853515625) (-0.001125163818359375, 0.85546875) (-0.0011461961669921874, 0.857421875) (-0.0011679384765624998, 0.859375) (-0.0011903829345703124, 0.861328125) (-0.0012135397949218749, 0.86328125) (-0.00123732568359375, 0.865234375) (-0.0012615400390625, 0.8671875) (-0.0012859805908203125, 0.869140625) (-0.0013104573974609375, 0.87109375) (-0.0013347724609374999, 0.873046875) (-0.0013587379150390624, 0.875) (-0.0013821169433593748, 0.876953125) (-0.0014046138916015624, 0.87890625) (-0.0014259699707031249, 0.880859375) (-0.0014459786376953125, 0.8828125) (-0.0014644735107421875, 0.884765625) (-0.0014813270263671875, 0.88671875) (-0.001496412841796875, 0.888671875) (-0.0015096114501953123, 0.890625) (-0.0015208468017578124, 0.892578125) (-0.001530091796875, 0.89453125) (-0.0015373472900390625, 0.896484375) (-0.0015426352539062499, 0.8984375) (-0.0015459849853515625, 0.900390625) (-0.001547449951171875, 0.90234375) (-0.0015471614990234374, 0.904296875) (-0.0015453193359375, 0.90625) (-0.0015421463623046874, 0.908203125) (-0.0015378914794921875, 0.91015625) (-0.00153278173828125, 0.912109375) (-0.0015270020751953124, 0.9140625) (-0.0015207365722656248, 0.916015625) (-0.0015141823730468748, 0.91796875) (-0.0015075411376953124, 0.919921875) (-0.00150101904296875, 0.921875) (-0.0014948138427734374, 0.923828125) (-0.0014890819091796874, 0.92578125) (-0.0014839707031249999, 0.927734375) (-0.001479644287109375, 0.9296875) (-0.00147625830078125, 0.931640625) (-0.0014739350585937499, 0.93359375) (-0.0014727280273437498, 0.935546875) (-0.0014726196289062499, 0.9375) (-0.001473570068359375, 0.939453125) (-0.00147552880859375, 0.94140625) (-0.00147843896484375, 0.943359375) (-0.001482250732421875, 0.9453125) (-0.0014868962402343748, 0.947265625) (-0.00149226806640625, 0.94921875) (-0.0014982473144531249, 0.951171875) (-0.001504698486328125, 0.953125) (-0.00151146240234375, 0.955078125) (-0.001518402587890625, 0.95703125) (-0.0015253895263671875, 0.958984375) (-0.001532270263671875, 0.9609375) (-0.001538895751953125, 0.962890625) (-0.0015451420898437498, 0.96484375) (-0.0015509180908203125, 0.966796875) (-0.0015561738281249999, 0.96875) (-0.0015608770751953124, 0.970703125) (-0.0015649958496093748, 0.97265625) (-0.00156850390625, 0.974609375) (-0.001571384765625, 0.9765625) (-0.001573638671875, 0.978515625) (-0.001575289306640625, 0.98046875) (-0.001576360107421875, 0.982421875) (-0.00157689892578125, 0.984375) (-0.00157698681640625, 0.986328125) (-0.00157668115234375, 0.98828125) (-0.0015760343017578123, 0.990234375) (-0.00157509326171875, 0.9921875) (-0.001573857666015625, 0.994140625) (-0.0015723343505859373, 0.99609375) (-0.0015705526123046874, 0.998046875) (-0.0015684730224609373, 1.0) (-0.0015660189208984373, 1.001953125) (-0.0015631402587890624, 1.00390625) (-0.00155975146484375, 1.005859375) (-0.0015558009033203124, 1.0078125) (-0.00155136083984375, 1.009765625) (-0.0015464364013671875, 1.01171875) (-0.0015409270019531248, 1.013671875) (-0.00153488916015625, 1.015625) (-0.00152850830078125, 1.017578125) (-0.0015217489013671873, 1.01953125) (-0.00151452734375, 1.021484375) (-0.0015069039306640625, 1.0234375) (-0.00149844384765625, 1.025390625) (-0.0014894947509765625, 1.02734375) (-0.0014818087158203124, 1.029296875) (-0.001475055419921875, 1.03125) (-0.001467690185546875, 1.033203125) (-0.0014575933837890625, 1.03515625) (-0.0014391463623046874, 1.037109375) (-0.0014116853027343749, 1.0390625) (-0.00138127587890625, 1.041015625) (-0.00135304638671875, 1.04296875) (-0.0013360753173828125, 1.044921875) (-0.001333763671875, 1.046875) (-0.001336694091796875, 1.048828125) (-0.001337924072265625, 1.05078125) (-0.001329132080078125, 1.052734375) (-0.0013050925292968749, 1.0546875) (-0.00127433935546875, 1.056640625) (-0.00124304541015625, 1.05859375) (-0.0012154466552734375, 1.060546875) (-0.0011958292236328124, 1.0625) (-0.00117965625, 1.064453125) (-0.00116340771484375, 1.06640625) (-0.001146572021484375, 1.068359375) (-0.0011275128173828125, 1.0703125) (-0.00110756787109375, 1.072265625) (-0.0010880986328125, 1.07421875) (-0.0010685950927734375, 1.076171875) (-0.0010492531738281248, 1.078125) (-0.00103038671875, 1.080078125) (-0.0010118681640624999, 1.08203125) (-0.0009937803955078124, 1.083984375) (-0.0009763561401367187, 1.0859375) (-0.0009593415527343749, 1.087890625) (-0.0009432373046874999, 1.08984375) (-0.0009299195556640625, 1.091796875) (-0.0009192000122070312, 1.09375) (-0.000909331298828125, 1.095703125) (-0.0008977930297851562, 1.09765625) (-0.000879561279296875, 1.099609375) (-0.0008544553222656249, 1.1015625) (-0.0008276815185546875, 1.103515625) (-0.0008044512939453125, 1.10546875) (-0.0007921176147460937, 1.107421875) (-0.0007916836547851562, 1.109375) (-0.0007962479248046875, 1.111328125) (-0.0008004546508789063, 1.11328125) (-0.0007983370361328124, 1.115234375) (-0.0007893612060546875, 1.1171875) (-0.0007795836181640625, 1.119140625) (-0.00077100439453125, 1.12109375) (-0.0007652925415039063, 1.123046875) (-0.0007608818969726562, 1.125) (-0.0007528115844726562, 1.126953125) (-0.000743193603515625, 1.12890625) (-0.0007342234497070313, 1.130859375) (-0.0007289464111328124, 1.1328125) (-0.0007319813232421875, 1.134765625) (-0.0007395663452148437, 1.13671875) (-0.0007481522827148437, 1.138671875) (-0.0007553787841796875, 1.140625) (-0.0007575450439453124, 1.142578125) (-0.0007572738037109375, 1.14453125) (-0.000757248291015625, 1.146484375) (-0.0007580808715820312, 1.1484375) (-0.00076142626953125, 1.150390625) (-0.0007663239746093749, 1.15234375) (-0.0007714892578125, 1.154296875) (-0.000777112060546875, 1.15625) (-0.0007830488891601563, 1.158203125) (-0.0007892485961914062, 1.16015625) (-0.00079564208984375, 1.162109375) (-0.000801969970703125, 1.1640625) (-0.0008081395263671875, 1.166015625) (-0.0008141138916015624, 1.16796875) (-0.0008201627197265625, 1.169921875) (-0.0008256441650390624, 1.171875) (-0.0008288150634765624, 1.173828125) (-0.0008300776367187499, 1.17578125) (-0.0008309470825195312, 1.177734375) (-0.0008340869140625, 1.1796875) (-0.0008443926391601562, 1.181640625) (-0.0008613416137695312, 1.18359375) (-0.0008800350341796874, 1.185546875) (-0.0008954893798828125, 1.1875) (-0.0009006756591796875, 1.189453125) (-0.000895407470703125, 1.19140625) (-0.0008861583251953125, 1.193359375) (-0.0008778607177734374, 1.1953125) (-0.0008759729003906249, 1.197265625) (-0.0008811556396484374, 1.19921875) (-0.0008884413452148437, 1.201171875) (-0.0008949859619140625, 1.203125) (-0.0008987918090820312, 1.205078125) (-0.0008992736816406249, 1.20703125) (-0.000898576904296875, 1.208984375) (-0.0008979117431640625, 1.2109375) (-0.0008972606201171875, 1.212890625) (-0.0008965999145507812, 1.21484375) (-0.0008957985839843749, 1.216796875) (-0.0008944000244140624, 1.21875) (-0.0008929394531249999, 1.220703125) (-0.0008935870361328125, 1.22265625) (-0.0008961652221679687, 1.224609375) (-0.000898637939453125, 1.2265625) (-0.0008984053955078125, 1.228515625) (-0.000888773193359375, 1.23046875) (-0.0008675620727539062, 1.232421875) (-0.0008414874267578125, 1.234375) (-0.0008182010498046875, 1.236328125) (-0.0008092905883789062, 1.23828125) (-0.0008217290649414062, 1.240234375) (-0.0008465319213867187, 1.2421875) (-0.000871653564453125, 1.244140625) (-0.0008846103515625, 1.24609375) (-0.0008754560546875, 1.248046875) (-0.00085027880859375, 1.25) (-0.0008204400024414062, 1.251953125) (-0.0007941080322265624, 1.25390625) (-0.0007786503295898437, 1.255859375) (-0.0007721729125976562, 1.2578125) (-0.0007677532958984375, 1.259765625) (-0.0007622470703124999, 1.26171875) (-0.000753130126953125, 1.263671875) (-0.000740296142578125, 1.265625) (-0.0007264464721679687, 1.267578125) (-0.0007124351806640625, 1.26953125) (-0.00069816796875, 1.271484375) (-0.0006840311279296874, 1.2734375) (-0.0006700057373046875, 1.275390625) (-0.0006560663452148438, 1.27734375) (-0.0006436943359374999, 1.279296875) (-0.000634008056640625, 1.28125) (-0.0006259920654296875, 1.283203125) (-0.0006196004638671875, 1.28515625) (-0.000613010498046875, 1.287109375) (-0.0006037364501953125, 1.2890625) (-0.0005945780029296874, 1.291015625) (-0.0005875405273437499, 1.29296875) (-0.0005853475952148437, 1.294921875) (-0.00059178369140625, 1.296875) (-0.00060383740234375, 1.298828125) (-0.0006176811523437499, 1.30078125) (-0.0006302827758789062, 1.302734375) (-0.000639365966796875, 1.3046875) (-0.0006472335205078125, 1.306640625) (-0.0006581356201171874, 1.30859375) (-0.0006750482177734374, 1.310546875) (-0.0006958702392578125, 1.3125) (-0.0007169669189453125, 1.314453125) (-0.0007337261962890625, 1.31640625) (-0.00074195068359375, 1.318359375) (-0.00074483056640625, 1.3203125) (-0.00074558056640625, 1.322265625) (-0.000745892822265625, 1.32421875) (-0.0007475098876953125, 1.326171875) (-0.0007481585693359375, 1.328125) (-0.0007467481689453125, 1.330078125) (-0.0007455548095703124, 1.33203125) (-0.0007477091674804687, 1.333984375) (-0.0007541409912109375, 1.3359375) (-0.0007629932861328124, 1.337890625) (-0.0007685470581054687, 1.33984375) (-0.000762248291015625, 1.341796875) (-0.0007417006225585937, 1.34375) (-0.0007079034423828124, 1.345703125) (-0.000666545166015625, 1.34765625) (-0.0006302072753906249, 1.349609375) (-0.0006055265502929687, 1.3515625) (-0.0005970430908203124, 1.353515625) (-0.0006042379760742187, 1.35546875) (-0.0006152156982421875, 1.357421875) (-0.0006222638549804688, 1.359375) (-0.0006187817993164062, 1.361328125) (-0.0006012949829101562, 1.36328125) (-0.0005786158447265625, 1.365234375) (-0.0005567119140624999, 1.3671875) (-0.0005397169189453125, 1.369140625) (-0.0005321086425781249, 1.37109375) (-0.0005291444091796875, 1.373046875) (-0.0005272808227539062, 1.375) (-0.0005268787841796875, 1.376953125) (-0.0005257378540039062, 1.37890625) (-0.000526631591796875, 1.380859375) (-0.0005330061645507812, 1.3828125) (-0.0005410989990234375, 1.384765625) (-0.0005486720581054687, 1.38671875) (-0.0005522080078125, 1.388671875) (-0.0005465728149414062, 1.390625) (-0.0005352127075195312, 1.392578125) (-0.000522023193359375, 1.39453125) (-0.0005092894287109375, 1.396484375) (-0.0005003695678710938, 1.3984375) (-0.0004933775634765625, 1.400390625) (-0.00048600738525390625, 1.40234375) (-0.00047804400634765624, 1.404296875) (-0.00046923980712890623, 1.40625) (-0.00045970288085937495, 1.408203125) (-0.0004491139221191406, 1.41015625) (-0.000438318603515625, 1.412109375) (-0.00042770565795898435, 1.4140625) (-0.00041950640869140623, 1.416015625) (-0.0004165887451171875, 1.41796875) (-0.0004160172424316406, 1.419921875) (-0.0004155328369140625, 1.421875) (-0.00041202035522460936, 1.423828125) (-0.0004015286865234375, 1.42578125) (-0.0003880847778320312, 1.427734375) (-0.0003751925048828125, 1.4296875) (-0.00036524359130859374, 1.431640625) (-0.00036178448486328123, 1.43359375) (-0.0003622364807128906, 1.435546875) (-0.00036407141113281246, 1.4375) (-0.0003665781555175781, 1.439453125) (-0.0003679465942382812, 1.44140625) (-0.00036875048828125, 1.443359375) (-0.00036948757934570313, 1.4453125) (-0.0003693378295898437, 1.447265625) (-0.0003680992431640625, 1.44921875) (-0.00036520053100585933, 1.451171875) (-0.0003599493408203125, 1.453125) (-0.00035244442749023434, 1.455078125) (-0.0003427401123046875, 1.45703125) (-0.00033096771240234376, 1.458984375) (-0.0003179241943359375, 1.4609375) (-0.0003040849914550781, 1.462890625) (-0.00028945306396484374, 1.46484375) (-0.00027439752197265624, 1.466796875) (-0.0002593119506835937, 1.46875) (-0.00024387281799316405, 1.470703125) (-0.00022771762084960936, 1.47265625) (-0.000209439453125, 1.474609375) (-0.00018542718505859375, 1.4765625) (-0.00015287377929687498, 1.478515625) (-0.00011138410949707031, 1.48046875) (-6.307758331298828e-05, 1.482421875) (-1.3844661712646484e-05, 1.484375) (3.009351921081543e-05, 1.486328125) (6.990485382080078e-05, 1.48828125) (0.00011470973205566406, 1.490234375) (0.00017761517333984375, 1.4921875) (0.0002703914184570312, 1.494140625) (0.00038982736206054683, 1.49609375) (0.0005151694946289062, 1.498046875) (0.00061949169921875, 1.5) (0.0006795217895507812, 1.501953125) (0.0006883621826171875, 1.50390625) (0.0006583646850585938, 1.505859375) (0.0006087221679687499, 1.5078125) (0.00055461572265625, 1.509765625) (0.0005022458496093749, 1.51171875) (0.00044848840332031246, 1.513671875) (0.0003873758850097656, 1.515625) (0.00031706799316406247, 1.517578125) (0.00023954742431640623, 1.51953125) (0.000159060791015625, 1.521484375) (8.132655334472655e-05, 1.5234375) (1.0585220336914063e-05, 1.525390625) (-5.1032115936279296e-05, 1.52734375) (-0.00010230561828613281, 1.529296875) (-0.00014345681762695312, 1.53125) (-0.0001755450439453125, 1.533203125) (-0.00019897164916992185, 1.53515625) (-0.00021422874450683594, 1.537109375) (-0.00022287225341796873, 1.5390625) (-0.00022677073669433593, 1.541015625) (-0.0002279008331298828, 1.54296875) (-0.0002283055725097656, 1.544921875) (-0.0002286573944091797, 1.546875) (-0.00022901853942871092, 1.548828125) (-0.0002301781005859375, 1.55078125) (-0.0002325457763671875, 1.552734375) (-0.00023589944458007813, 1.5546875) (-0.00024011515808105468, 1.556640625) (-0.00024462492370605466, 1.55859375) (-0.00024870391845703126, 1.560546875) (-0.00025275045776367185, 1.5625) (-0.00025698858642578124, 1.564453125) (-0.00026080767822265626, 1.56640625) (-0.0002640933837890625, 1.568359375) (-0.00026686679077148436, 1.5703125) (-0.0002689525451660156, 1.572265625) (-0.0002706437072753906, 1.57421875) (-0.000272134521484375, 1.576171875) (-0.0002729740600585937, 1.578125) (-0.0002732298583984375, 1.580078125) (-0.00027350430297851564, 1.58203125) (-0.0002740124816894531, 1.583984375) (-0.00027497415161132813, 1.5859375) (-0.0002765422668457031, 1.587890625) (-0.0002785369873046875, 1.58984375) (-0.00028102648925781246, 1.591796875) (-0.00028431457519531247, 1.59375) (-0.0002883876953125, 1.595703125) (-0.00029305303955078126, 1.59765625) (-0.00029817355346679685, 1.599609375) (-0.00030362753295898434, 1.6015625) (-0.000309495361328125, 1.603515625) (-0.00031589013671874997, 1.60546875) (-0.0003226982727050781, 1.607421875) (-0.00032961972045898437, 1.609375) (-0.00033617572021484374, 1.611328125) (-0.00034196014404296873, 1.61328125) (-0.0003467913818359375, 1.615234375) (-0.00035037725830078123, 1.6171875) (-0.0003523186340332031, 1.619140625) (-0.0003524637451171875, 1.62109375) (-0.00035076339721679686, 1.623046875) (-0.0003475667724609375, 1.625) (-0.0003437859191894531, 1.626953125) (-0.00033993872070312497, 1.62890625) (-0.00033601947021484374, 1.630859375) (-0.0003320436401367187, 1.6328125) (-0.00032776885986328125, 1.634765625) (-0.00032253570556640623, 1.63671875) (-0.00031560244750976563, 1.638671875) (-0.00030531036376953125, 1.640625) (-0.0002890546875, 1.642578125) (-0.00026493130493164064, 1.64453125) (-0.00023176092529296873, 1.646484375) (-0.00018867883300781248, 1.6484375) (-0.0001356226043701172, 1.650390625) (-7.28063735961914e-05, 1.65234375) (-3.694534301757812e-07, 1.654296875) (7.984368896484374e-05, 1.65625) (0.00016441351318359374, 1.658203125) (0.00025045973205566405, 1.66015625) (0.00033520837402343747, 1.662109375) (0.0004168817138671875, 1.6640625) (0.0004956811218261719, 1.666015625) (0.0005699997558593749, 1.66796875) (0.0006365661010742187, 1.669921875) (0.00069250390625, 1.671875) (0.0007340884399414063, 1.673828125) (0.0007614951171875, 1.67578125) (0.000780107666015625, 1.677734375) (0.000796661376953125, 1.6796875) (0.0008186448364257812, 1.681640625) (0.000849639404296875, 1.68359375) (0.000886273193359375, 1.685546875) (0.0009209960937499999, 1.6875) (0.0009465368652343749, 1.689453125) (0.0009580643920898437, 1.69140625) (0.0009566577148437499, 1.693359375) (0.0009493463134765624, 1.6953125) (0.0009400155029296875, 1.697265625) (0.0009311695556640624, 1.69921875) (0.0009223500366210937, 1.701171875) (0.0009072249145507812, 1.703125) (0.0008860686645507812, 1.705078125) (0.0008621415405273437, 1.70703125) (0.0008385489501953125, 1.708984375) (0.0008230625, 1.7109375) (0.0008160958251953124, 1.712890625) (0.0008117862548828124, 1.71484375) (0.0008065726318359375, 1.716796875) (0.0007944271240234375, 1.71875) (0.0007738154907226563, 1.720703125) (0.00075113916015625, 1.72265625) (0.0007302484130859375, 1.724609375) (0.00071481640625, 1.7265625) (0.0007075858154296875, 1.728515625) (0.0007051229858398438, 1.73046875) (0.0007051924438476562, 1.732421875) (0.000707059326171875, 1.734375) (0.0007091693115234374, 1.736328125) (0.0007124527587890624, 1.73828125) (0.0007177155761718749, 1.740234375) (0.0007245238037109375, 1.7421875) (0.0007329899291992187, 1.744140625) (0.0007429783935546875, 1.74609375) (0.000754123291015625, 1.748046875) (0.0007663680419921874, 1.75) (0.0007796131591796875, 1.751953125) (0.0007935995483398437, 1.75390625) (0.0008081129760742187, 1.755859375) (0.0008229487915039062, 1.7578125) (0.0008378085327148437, 1.759765625) (0.0008523697509765625, 1.76171875) (0.0008663821411132812, 1.763671875) (0.0008796318359375, 1.765625) (0.0008919454345703125, 1.767578125) (0.00090321826171875, 1.76953125) (0.0009133036499023437, 1.771484375) (0.00092202783203125, 1.7734375) (0.00092923486328125, 1.775390625) (0.0009347640380859374, 1.77734375) (0.0009385218505859375, 1.779296875) (0.0009404811401367187, 1.78125) (0.0009406295166015624, 1.783203125) (0.0009389826660156249, 1.78515625) (0.0009355952758789062, 1.787109375) (0.0009305634765625, 1.7890625) (0.000924051513671875, 1.791015625) (0.000916261962890625, 1.79296875) (0.0009073576660156249, 1.794921875) (0.0008974895629882812, 1.796875) (0.0008868004760742188, 1.798828125) (0.0008754337158203124, 1.80078125) (0.000863587646484375, 1.802734375) (0.0008514451904296875, 1.8046875) (0.0008391600341796874, 1.806640625) (0.0008268882446289062, 1.80859375) (0.0008147431640625, 1.810546875) (0.0008028153686523437, 1.8125) (0.0007911953735351562, 1.814453125) (0.0007799393920898437, 1.81640625) (0.0007690640869140625, 1.818359375) (0.0007585645751953125, 1.8203125) (0.0007483952636718749, 1.822265625) (0.000738488037109375, 1.82421875) (0.0007288004760742187, 1.826171875) (0.0007192796630859375, 1.828125) (0.0007098651733398437, 1.830078125) (0.0007004903564453125, 1.83203125) (0.0006910530395507812, 1.833984375) (0.000681474853515625, 1.8359375) (0.0006717084350585937, 1.837890625) (0.0006617088012695312, 1.83984375) (0.0006514503173828124, 1.841796875) (0.0006409151611328124, 1.84375) (0.0006300828857421875, 1.845703125) (0.0006189551391601562, 1.84765625) (0.0006075599365234375, 1.849609375) (0.0005959256591796875, 1.8515625) (0.0005840900268554687, 1.853515625) (0.0005720975341796875, 1.85546875) (0.0005599790649414063, 1.857421875) (0.0005477764892578125, 1.859375) (0.0005355397338867187, 1.861328125) (0.0005233201904296875, 1.86328125) (0.0005111801147460938, 1.865234375) (0.000499169189453125, 1.8671875) (0.0004873196411132812, 1.869140625) (0.0004756600341796875, 1.87109375) (0.00046421246337890624, 1.873046875) (0.0004529939575195312, 1.875) (0.0004420206604003906, 1.876953125) (0.0004312989807128906, 1.87890625) (0.0004208229370117187, 1.880859375) (0.00041059045410156246, 1.8828125) (0.0004006011047363281, 1.884765625) (0.00039085299682617186, 1.88671875) (0.00038134796142578125, 1.888671875) (0.0003720828247070312, 1.890625) (0.00036304904174804686, 1.892578125) (0.00035423809814453123, 1.89453125) (0.0003456398315429687, 1.896484375) (0.0003372444763183594, 1.8984375) (0.0003290446166992187, 1.900390625) (0.0003210327758789062, 1.90234375) (0.00031320092773437497, 1.904296875) (0.00030554244995117187, 1.90625) (0.00029805126953125, 1.908203125) (0.00029072247314453124, 1.91015625) (0.0002835532531738281, 1.912109375) (0.00027653887939453126, 1.9140625) (0.00026967254638671874, 1.916015625) (0.00026294720458984374, 1.91796875) (0.0002563547668457031, 1.919921875) (0.00024988739013671874, 1.921875) (0.0002435379943847656, 1.923828125) (0.00023729904174804687, 1.92578125) (0.0002311625061035156, 1.927734375) (0.0002251215362548828, 1.9296875) (0.00021917015075683592, 1.931640625) (0.00021330300903320311, 1.93359375) (0.0002075154113769531, 1.935546875) (0.00020180239868164063, 1.9375) (0.0001961588134765625, 1.939453125) (0.00019057974243164063, 1.94140625) (0.00018506053161621093, 1.943359375) (0.00017959649658203124, 1.9453125) (0.00017418310546874998, 1.947265625) (0.00016881600952148437, 1.94921875) (0.00016349122619628906, 1.951171875) (0.0001582053985595703, 1.953125) (0.00015295573425292967, 1.955078125) (0.00014774005126953126, 1.95703125) (0.00014255645751953125, 1.958984375) (0.00013740353393554687, 1.9609375) (0.00013228016662597655, 1.962890625) (0.00012718556213378904, 1.96484375) (0.00012211940002441405, 1.966796875) (0.00011708168792724609, 1.96875) (0.00011207265472412109, 1.970703125) (0.00010709280395507813, 1.97265625) (0.00010214289855957031, 1.974609375) (9.722399139404296e-05, 1.9765625) (9.233746337890624e-05, 1.978515625) (8.748488616943359e-05, 1.98046875) (8.266780853271485e-05, 1.982421875) (7.78878173828125e-05, 1.984375) (7.3146484375e-05, 1.986328125) (6.844546508789062e-05, 1.98828125) (6.378654479980469e-05, 1.990234375) (5.917132949829101e-05, 1.9921875) (5.460123825073242e-05, 1.994140625) (5.0077678680419916e-05, 1.99609375) (4.560208511352539e-05, 1.998046875) (4.117607116699219e-05, 2.0) (3.6801437377929687e-05, 2.001953125) (3.248004531860351e-05, 2.00390625) (2.8213796615600585e-05, 2.005859375) (2.400473403930664e-05, 2.0078125) (1.9855045318603513e-05, 2.009765625) (1.5766965866088865e-05, 2.01171875) (1.1742721557617188e-05, 2.013671875) (7.784377574920653e-06, 2.015625) (3.893764972686767e-06, 2.017578125) (7.247686386108398e-08, 2.01953125) (-3.678108692169189e-06, 2.021484375) (-7.3568391799926755e-06, 2.0234375) (-1.0962839126586914e-05, 2.025390625) (-1.4495519638061522e-05, 2.02734375) (-1.795457077026367e-05, 2.029296875) (-2.1339889526367187e-05, 2.03125) (-2.4651504516601563e-05, 2.033203125) (-2.788948059082031e-05, 2.03515625) (-3.105396461486816e-05, 2.037109375) (-3.4145187377929686e-05, 2.0390625) (-3.7163345336914063e-05, 2.041015625) (-4.010855102539062e-05, 2.04296875) (-4.298073577880859e-05, 2.044921875) (-4.5779586791992184e-05, 2.046875) (-4.8504638671875e-05, 2.048828125) (-5.1155284881591794e-05, 2.05078125) (-5.373068618774414e-05, 2.052734375) (-5.622970581054687e-05, 2.0546875) (-5.86508674621582e-05, 2.056640625) (-6.099241638183593e-05, 2.05859375) (-6.325246047973633e-05, 2.060546875) (-6.54290313720703e-05, 2.0625) (-6.752004241943358e-05, 2.064453125) (-6.95232925415039e-05, 2.06640625) (-7.14364242553711e-05, 2.068359375) (-7.325691223144531e-05, 2.0703125) (-7.498233795166015e-05, 2.072265625) (-7.661026000976562e-05, 2.07421875) (-7.813810729980468e-05, 2.076171875) (-7.95631866455078e-05, 2.078125) (-8.088257598876953e-05, 2.080078125) (-8.209309387207032e-05, 2.08203125) (-8.3191650390625e-05, 2.083984375) (-8.41751937866211e-05, 2.0859375) (-8.504054260253906e-05, 2.087890625) (-8.578453063964844e-05, 2.08984375) (-8.640406799316406e-05, 2.091796875) (-8.689623260498046e-05, 2.09375) (-8.725860595703124e-05, 2.095703125) (-8.748937988281249e-05, 2.09765625) (-8.758717346191406e-05, 2.099609375) (-8.755094909667968e-05, 2.1015625) (-8.738030242919922e-05, 2.103515625) (-8.707542419433594e-05, 2.10546875) (-8.663738250732421e-05, 2.107421875) (-8.606808471679687e-05, 2.109375) (-8.537007904052734e-05, 2.111328125) (-8.454647064208983e-05, 2.11328125) (-8.360109710693359e-05, 2.115234375) (-8.25388412475586e-05, 2.1171875) (-8.136576843261718e-05, 2.119140625) (-8.008903503417968e-05, 2.12109375) (-7.87164306640625e-05, 2.123046875) (-7.725635528564453e-05, 2.125) (-7.571783447265625e-05, 2.126953125) (-7.411061096191406e-05, 2.12890625) (-7.244540405273437e-05, 2.130859375) (-7.073365020751953e-05, 2.1328125) (-6.898696899414062e-05, 2.134765625) (-6.721717834472656e-05, 2.13671875) (-6.543669128417968e-05, 2.138671875) (-6.365837097167968e-05, 2.140625) (-6.189577102661132e-05, 2.142578125) (-6.016318130493164e-05, 2.14453125) (-5.8474617004394526e-05, 2.146484375) (-5.684381866455078e-05, 2.1484375) (-5.5284751892089844e-05, 2.150390625) (-5.381138229370117e-05, 2.15234375) (-5.243747329711914e-05, 2.154296875) (-5.117661666870117e-05, 2.15625) (-5.0041500091552734e-05, 2.158203125) (-4.9043457031249994e-05, 2.16015625) (-4.819323348999023e-05, 2.162109375) (-4.750136184692383e-05, 2.1640625) (-4.69776611328125e-05, 2.166015625) (-4.6630973815917965e-05, 2.16796875) (-4.646939086914062e-05, 2.169921875) (-4.6499855041503905e-05, 2.171875) (-4.6728832244873044e-05, 2.173828125) (-4.716336441040039e-05, 2.17578125) (-4.780965423583984e-05, 2.177734375) (-4.867208480834961e-05, 2.1796875) (-4.9753837585449216e-05, 2.181640625) (-5.105667877197266e-05, 2.18359375) (-5.258097457885742e-05, 2.185546875) (-5.4326400756835935e-05, 2.1875) (-5.629033660888672e-05, 2.189453125) (-5.8466964721679683e-05, 2.19140625) (-6.084950256347656e-05, 2.193359375) (-6.343021392822265e-05, 2.1953125) (-6.620120239257812e-05, 2.197265625) (-6.915573120117187e-05, 2.19921875) (-7.228520202636718e-05, 2.201171875) (-7.557987213134765e-05, 2.203125) (-7.903081512451172e-05, 2.205078125) (-8.262744140624999e-05, 2.20703125) (-8.635899353027344e-05, 2.208984375) (-9.021601104736328e-05, 2.2109375) (-9.418313598632812e-05, 2.212890625) (-9.824021911621093e-05, 2.21484375) (-0.00010237113189697265, 2.216796875) (-0.0001065596466064453, 2.21875) (-0.00011079525756835937, 2.220703125) (-0.00011507818603515625, 2.22265625) (-0.00011940049743652344, 2.224609375) (-0.0001237472381591797, 2.2265625) (-0.00012810610961914062, 2.228515625) (-0.00013245925903320312, 2.23046875) (-0.00013678419494628905, 2.232421875) (-0.00014105569458007812, 2.234375) (-0.0001452282257080078, 2.236328125) (-0.00014924061584472656, 2.23828125) (-0.0001530380859375, 2.240234375) (-0.00015656854248046874, 2.2421875) (-0.00015979522705078124, 2.244140625) (-0.00016269931030273436, 2.24609375) (-0.00016524774169921874, 2.248046875) (-0.00016740499877929686, 2.25) (-0.00016913340759277344, 2.251953125) (-0.00017038255310058593, 2.25390625) (-0.00017113308715820312, 2.255859375) (-0.0001713883056640625, 2.2578125) (-0.0001711380157470703, 2.259765625) (-0.00017038461303710937, 2.26171875) (-0.00016915820312499998, 2.263671875) (-0.00016751393127441405, 2.265625) (-0.000165575927734375, 2.267578125) (-0.00016351837158203123, 2.26953125) (-0.00016148730468749998, 2.271484375) (-0.00015960594177246093, 2.2734375) (-0.000157967041015625, 2.275390625) (-0.00015664450073242186, 2.27734375) (-0.0001557503204345703, 2.279296875) (-0.00015540048217773435, 2.28125) (-0.00015569955444335936, 2.283203125) (-0.00015672384643554687, 2.28515625) (-0.00015845481872558593, 2.287109375) (-0.00016089443969726563, 2.2890625) (-0.00016411007690429687, 2.291015625) (-0.000168066162109375, 2.29296875) (-0.00017261885070800782, 2.294921875) (-0.0001774430236816406, 2.296875) (-0.00018196334838867185, 2.298828125) (-0.00018568243408203125, 2.30078125) (-0.0001882904052734375, 2.302734375) (-0.00018936981201171874, 2.3046875) (-0.00018855699157714842, 2.306640625) (-0.00018572607421874998, 2.30859375) (-0.0001808120880126953, 2.310546875) (-0.00017425804138183592, 2.3125) (-0.00016685868835449217, 2.314453125) (-0.00015892848205566404, 2.31640625) (-0.0001507869873046875, 2.318359375) (-0.00014305885314941407, 2.3203125) (-0.00013595437622070312, 2.322265625) (-0.0001293463134765625, 2.32421875) (-0.0001221532440185547, 2.326171875) (-0.00011151363372802735, 2.328125) (-9.475198364257812e-05, 2.330078125) (-7.12517318725586e-05, 2.33203125) (-4.3294643402099606e-05, 2.333984375) (-1.4650056838989257e-05, 2.3359375) (1.1959503173828125e-05, 2.337890625) (3.756455230712891e-05, 2.33984375) (6.958041381835938e-05, 2.341796875) (0.00011568966674804687, 2.34375) (0.0001802234191894531, 2.345703125) (0.000262518310546875, 2.34765625) (0.0003520245971679687, 2.349609375) (0.0004358809509277344, 2.3515625) (0.0005029673767089843, 2.353515625) (0.0005437700195312499, 2.35546875) (0.0005536444091796875, 2.357421875) (0.0005294349365234374, 2.359375) (0.00046887390136718745, 2.361328125) (0.00037264501953125, 2.36328125) (0.0002485020294189453, 2.365234375) (0.00011154779052734375, 2.3671875) (-1.9156753540039063e-05, 2.369140625) (-0.00012350621032714845, 2.37109375) (-0.00019227330017089844, 2.373046875) (-0.0002281490783691406, 2.375) (-0.00024135194396972655, 2.376953125) (-0.00024793046569824217, 2.37890625) (-0.00025651412963867187, 2.380859375) (-0.0002673316650390625, 2.3828125) (-0.00027730242919921875, 2.384765625) (-0.00028027847290039063, 2.38671875) (-0.00027512384033203123, 2.388671875) (-0.000265589111328125, 2.390625) (-0.0002552411193847656, 2.392578125) (-0.0002474697265625, 2.39453125) (-0.00024345938110351562, 2.396484375) (-0.00024222509765625, 2.3984375) (-0.00024273448181152341, 2.400390625) (-0.00024409301757812499, 2.40234375) (-0.0002451068420410156, 2.404296875) (-0.0002445700988769531, 2.40625) (-0.0002418577880859375, 2.408203125) (-0.0002368031311035156, 2.41015625) (-0.00022972607421875, 2.412109375) (-0.00022135394287109373, 2.4140625) (-0.00021228634643554687, 2.416015625) (-0.00020296023559570312, 2.41796875) (-0.00019395233154296875, 2.419921875) (-0.00018587835693359374, 2.421875) (-0.00017910589599609374, 2.423828125) (-0.00017381161499023436, 2.42578125) (-0.0001699463653564453, 2.427734375) (-0.00016725610351562499, 2.4296875) (-0.00016553379821777344, 2.431640625) (-0.00016461236572265625, 2.43359375) (-0.00016430685424804686, 2.435546875) (-0.00016445191955566406, 2.4375) (-0.0001648872375488281, 2.439453125) (-0.00016544590759277344, 2.44140625) (-0.00016596142578125, 2.443359375) (-0.00016628887939453124, 2.4453125) (-0.00016632127380371094, 2.447265625) (-0.00016598912048339842, 2.44921875) (-0.00016525302124023437, 2.451171875) (-0.0001640865783691406, 2.453125) (-0.00016247554016113281, 2.455078125) (-0.00016042909240722656, 2.45703125) (-0.00015799629211425781, 2.458984375) (-0.00015525354003906249, 2.4609375) (-0.0001522734680175781, 2.462890625) (-0.00014912507629394532, 2.46484375) (-0.00014586370849609375, 2.466796875) (-0.00014253617858886718, 2.46875) (-0.00013920883178710936, 2.470703125) (-0.00013595773315429687, 2.47265625) (-0.0001328629455566406, 2.474609375) (-0.00013000433349609375, 2.4765625) (-0.00012743624877929686, 2.478515625) (-0.00012519053649902344, 2.48046875) (-0.0001232916564941406, 2.482421875) (-0.00012175569152832031, 2.484375) (-0.00012058843231201171, 2.486328125) (-0.00011978561401367188, 2.48828125) (-0.00011932514190673827, 2.490234375) (-0.00011917311859130859, 2.4921875) (-0.00011930296325683593, 2.494140625) (-0.00011969327545166015, 2.49609375) (-0.00012032508087158203, 2.498046875) (-0.00012118061065673827, 2.5) (-0.0001222344741821289, 2.501953125) (-0.00012345756530761717, 2.50390625) (-0.0001248223419189453, 2.505859375) (-0.00012630128479003907, 2.5078125) (-0.00012786873626708983, 2.509765625) (-0.0001295008544921875, 2.51171875) (-0.00013117282104492187, 2.513671875) (-0.0001328604736328125, 2.515625) (-0.00013454306030273437, 2.517578125) (-0.0001362013702392578, 2.51953125) (-0.00013781823730468748, 2.521484375) (-0.00013937828063964843, 2.5234375) (-0.00014086390686035157, 2.525390625) (-0.00014225582885742186, 2.52734375) (-0.00014353526306152344, 2.529296875) (-0.0001446832733154297, 2.53125) (-0.00014568182373046875, 2.533203125) (-0.00014651441955566407, 2.53515625) (-0.00014716500854492187, 2.537109375) (-0.0001476186828613281, 2.5390625) (-0.00014786322021484373, 2.541015625) (-0.00014788893127441405, 2.54296875) (-0.00014768821716308592, 2.544921875) (-0.00014725572204589844, 2.546875) (-0.00014658753967285154, 2.548828125) (-0.00014568148803710936, 2.55078125) (-0.0001445377197265625, 2.552734375) (-0.00014315805053710936, 2.5546875) (-0.00014154580688476563, 2.556640625) (-0.00013970590209960937, 2.55859375) (-0.00013764471435546874, 2.560546875) (-0.0001353704376220703, 2.5625) (-0.00013289315795898436, 2.564453125) (-0.00013022421264648437, 2.56640625) (-0.00012737583923339843, 2.568359375) (-0.0001243614807128906, 2.5703125) (-0.0001211955337524414, 2.572265625) (-0.00011789341735839843, 2.57421875) (-0.00011447152709960937, 2.576171875) (-0.00011094678497314453, 2.578125) (-0.00010733636474609375, 2.580078125) (-0.00010365782928466797, 2.58203125) (-9.992921447753905e-05, 2.583984375) (-9.616886901855469e-05, 2.5859375) (-9.239547729492187e-05, 2.587890625) (-8.862792205810546e-05, 2.58984375) (-8.488494110107421e-05, 2.591796875) (-8.118508148193359e-05, 2.59375) (-7.754681396484375e-05, 2.595703125) (-7.398825073242187e-05, 2.59765625) (-7.052711486816406e-05, 2.599609375) (-6.718049621582031e-05, 2.6015625) (-6.39643325805664e-05, 2.603515625) (-6.089332580566406e-05, 2.60546875) (-5.798104858398437e-05, 2.607421875) (-5.5239894866943354e-05, 2.609375) (-5.2681022644042965e-05, 2.611328125) (-5.03143196105957e-05, 2.61328125) (-4.8148143768310544e-05, 2.615234375) (-4.618939971923828e-05, 2.6171875) (-4.4443740844726563e-05, 2.619140625) (-4.291556549072265e-05, 2.62109375) (-4.160794830322265e-05, 2.623046875) (-4.052262878417969e-05, 2.625) (-3.9659885406494135e-05, 2.626953125) (-3.90186653137207e-05, 2.62890625) (-3.859674453735352e-05, 2.630859375) (-3.8390773773193356e-05, 2.6328125) (-3.8396335601806636e-05, 2.634765625) (-3.860801696777344e-05, 2.63671875) (-3.901935577392578e-05, 2.638671875) (-3.96230239868164e-05, 2.640625) (-4.0410873413085936e-05, 2.642578125) (-4.137399673461914e-05, 2.64453125) (-4.250271987915039e-05, 2.646484375) (-4.378664016723632e-05, 2.6484375) (-4.521453475952148e-05, 2.650390625) (-4.677445602416992e-05, 2.65234375) (-4.845382308959961e-05, 2.654296875) (-5.02394905090332e-05, 2.65625) (-5.211783218383789e-05, 2.658203125) (-5.407476043701172e-05, 2.66015625) (-5.609580993652343e-05, 2.662109375) (-5.8166282653808594e-05, 2.6640625) (-6.0271430969238276e-05, 2.666015625) (-6.239656829833984e-05, 2.66796875) (-6.452714538574218e-05, 2.669921875) (-6.664881896972656e-05, 2.671875) (-6.874752044677735e-05, 2.673828125) (-7.080958557128905e-05, 2.67578125) (-7.282183074951172e-05, 2.677734375) (-7.477171325683594e-05, 2.6796875) (-7.66472930908203e-05, 2.681640625) (-7.843727874755859e-05, 2.68359375) (-8.01310806274414e-05, 2.685546875) (-8.17188720703125e-05, 2.6875) (-8.319166564941406e-05, 2.689453125) (-8.454136657714844e-05, 2.69140625) (-8.576068115234375e-05, 2.693359375) (-8.684316253662109e-05, 2.6953125) (-8.77831573486328e-05, 2.697265625) (-8.857585144042969e-05, 2.69921875) (-8.921728515625e-05, 2.701171875) (-8.9704345703125e-05, 2.703125) (-9.003482818603516e-05, 2.705078125) (-9.020728302001953e-05, 2.70703125) (-9.022117614746093e-05, 2.708984375) (-9.007685852050781e-05, 2.7109375) (-8.977565002441406e-05, 2.712890625) (-8.931986236572266e-05, 2.71484375) (-8.871275329589844e-05, 2.716796875) (-8.795854187011718e-05, 2.71875) (-8.706232452392577e-05, 2.720703125) (-8.603010559082031e-05, 2.72265625) (-8.486879730224609e-05, 2.724609375) (-8.358616638183593e-05, 2.7265625) (-8.219070434570312e-05, 2.728515625) (-8.069153594970702e-05, 2.73046875) (-7.909838867187499e-05, 2.732421875) (-7.742157745361328e-05, 2.734375) (-7.567189025878905e-05, 2.736328125) (-7.386053466796874e-05, 2.73828125) (-7.199903869628907e-05, 2.740234375) (-7.009915161132813e-05, 2.7421875) (-6.817276000976562e-05, 2.744140625) (-6.623188781738281e-05, 2.74609375) (-6.428858947753907e-05, 2.748046875) (-6.235488891601562e-05, 2.75) (-6.044268798828125e-05, 2.751953125) (-5.856362152099609e-05, 2.75390625) (-5.672909545898437e-05, 2.755859375) (-5.495021057128906e-05, 2.7578125) (-5.323773193359375e-05, 2.759765625) (-5.160205459594726e-05, 2.76171875) (-5.00530776977539e-05, 2.763671875) (-4.860015869140625e-05, 2.765625) (-4.725205993652344e-05, 2.767578125) (-4.601696014404297e-05, 2.76953125) (-4.49023323059082e-05, 2.771484375) (-4.3914928436279294e-05, 2.7734375) (-4.306059265136719e-05, 2.775390625) (-4.2344230651855464e-05, 2.77734375) (-4.176976013183593e-05, 2.779296875) (-4.134015655517578e-05, 2.78125) (-4.10573616027832e-05, 2.783203125) (-4.092226791381836e-05, 2.78515625) (-4.093470764160156e-05, 2.787109375) (-4.109342193603516e-05, 2.7890625) (-4.1396129608154295e-05, 2.791015625) (-4.183956909179687e-05, 2.79296875) (-4.2419509887695313e-05, 2.794921875) (-4.313077926635742e-05, 2.796875) (-4.3967220306396485e-05, 2.798828125) (-4.492176818847656e-05, 2.80078125) (-4.5986473083496094e-05, 2.802734375) (-4.715261459350586e-05, 2.8046875) (-4.841072845458984e-05, 2.806640625) (-4.975068283081055e-05, 2.80859375) (-5.116170501708984e-05, 2.810546875) (-5.263246154785156e-05, 2.8125) (-5.415115356445312e-05, 2.814453125) (-5.570569610595703e-05, 2.81640625) (-5.728373336791992e-05, 2.818359375) (-5.887271881103515e-05, 2.8203125) (-6.0459938049316404e-05, 2.822265625) (-6.20326156616211e-05, 2.82421875) (-6.357800292968749e-05, 2.826171875) (-6.508350372314452e-05, 2.828125) (-6.653677368164062e-05, 2.830078125) (-6.792574310302734e-05, 2.83203125) (-6.92387466430664e-05, 2.833984375) (-7.046459197998047e-05, 2.8359375) (-7.159274291992187e-05, 2.837890625) (-7.261341857910156e-05, 2.83984375) (-7.35176773071289e-05, 2.841796875) (-7.42974395751953e-05, 2.84375) (-7.494552612304687e-05, 2.845703125) (-7.545565795898438e-05, 2.84765625) (-7.582260131835937e-05, 2.849609375) (-7.604213714599609e-05, 2.8515625) (-7.611113739013672e-05, 2.853515625) (-7.602749633789062e-05, 2.85546875) (-7.579013061523437e-05, 2.857421875) (-7.539904022216796e-05, 2.859375) (-7.485530090332031e-05, 2.861328125) (-7.416116333007812e-05, 2.86328125) (-7.331997680664063e-05, 2.865234375) (-7.23361587524414e-05, 2.8671875) (-7.121514129638672e-05, 2.869140625) (-6.996330261230469e-05, 2.87109375) (-6.858795166015625e-05, 2.873046875) (-6.70972900390625e-05, 2.875) (-6.550029754638672e-05, 2.876953125) (-6.380663299560547e-05, 2.87890625) (-6.20265121459961e-05, 2.880859375) (-6.017066192626953e-05, 2.8828125) (-5.825025939941406e-05, 2.884765625) (-5.6276901245117185e-05, 2.88671875) (-5.426251602172851e-05, 2.888671875) (-5.221915435791015e-05, 2.890625) (-5.015890121459961e-05, 2.892578125) (-4.8093700408935543e-05, 2.89453125) (-4.603533935546875e-05, 2.896484375) (-4.3995346069335936e-05, 2.8984375) (-4.198482131958008e-05, 2.900390625) (-4.001421737670898e-05, 2.90234375) (-3.809331893920898e-05, 2.904296875) (-3.623112869262695e-05, 2.90625) (-3.44359130859375e-05, 2.908203125) (-3.271519088745117e-05, 2.91015625) (-3.107557106018066e-05, 2.912109375) (-2.9522621154785156e-05, 2.9140625) (-2.806087112426758e-05, 2.916015625) (-2.669374465942383e-05, 2.91796875) (-2.5423555374145507e-05, 2.919921875) (-2.425150108337402e-05, 2.921875) (-2.317763519287109e-05, 2.923828125) (-2.2200716018676757e-05, 2.92578125) (-2.131813621520996e-05, 2.927734375) (-2.0526075363159177e-05, 2.9296875) (-1.981941795349121e-05, 2.931640625) (-1.9191888809204102e-05, 2.93359375) (-1.8636409759521482e-05, 2.935546875) (-1.814493179321289e-05, 2.9375) (-1.77080078125e-05, 2.939453125) (-1.731534957885742e-05, 2.94140625) (-1.6956085205078126e-05, 2.943359375) (-1.66180419921875e-05, 2.9453125) (-1.628954315185547e-05, 2.947265625) (-1.5958806991577148e-05, 2.94921875) (-1.561070442199707e-05, 2.951171875) (-1.5229825019836425e-05, 2.953125) (-1.4801051139831542e-05, 2.955078125) (-1.4307718276977539e-05, 2.95703125) (-1.3736538887023926e-05, 2.958984375) (-1.3079063415527344e-05, 2.9609375) (-1.2321878433227538e-05, 2.962890625) (-1.145069694519043e-05, 2.96484375) (-1.0463197708129883e-05, 2.966796875) (-9.352856636047363e-06, 2.96875) (-8.11385726928711e-06, 2.970703125) (-6.748841285705566e-06, 2.97265625) (-5.236920356750488e-06, 2.974609375) (-3.5384950637817382e-06, 2.9765625) (-1.6330338716506958e-06, 2.978515625) (4.947898387908935e-07, 2.98046875) (2.8856220245361327e-06, 2.982421875) (5.551699638366699e-06, 2.984375) (8.495828628540039e-06, 2.986328125) (1.1741520881652831e-05, 2.98828125) (1.523593521118164e-05, 2.990234375) (1.88604736328125e-05, 2.9921875) (2.2541875839233397e-05, 2.994140625) (2.6249780654907226e-05, 2.99609375) (2.9851356506347656e-05, 2.998046875) (3.325004577636719e-05, 3.0) (3.659054565429687e-05, 3.001953125) (3.989142608642578e-05, 3.00390625) (4.324766540527344e-05, 3.005859375) (4.7263675689697266e-05, 3.0078125) (5.13793830871582e-05, 3.009765625) (5.482740020751953e-05, 3.01171875) (5.856700897216797e-05, 3.013671875) (6.260784149169922e-05, 3.015625) (6.942791748046875e-05, 3.017578125) (8.272755432128906e-05, 3.01953125) (0.00010022943115234375, 3.021484375) (0.0001191473388671875, 3.0234375) (0.00013280712890625, 3.025390625) (0.00013184942626953125, 3.02734375) (0.00011641161346435547, 3.029296875) (9.054933166503906e-05, 3.03125) (6.390975952148438e-05, 3.033203125) (5.0420307159423827e-05, 3.03515625) (5.680572509765625e-05, 3.037109375) (8.38616943359375e-05, 3.0390625) (0.00012511976623535157, 3.041015625) (0.00016864434814453124, 3.04296875) (0.00020117706298828123, 3.044921875) (0.00021294351196289062, 3.046875) (0.00020203753662109374, 3.048828125) (0.0001717400360107422, 3.05078125) (0.0001349264678955078, 3.052734375) (0.00010631071472167968, 3.0546875) (9.356330108642578e-05, 3.056640625) (0.00010099266052246093, 3.05859375) (0.00012182090759277343, 3.060546875) (0.00014384230041503905, 3.0625) (0.00016022839355468748, 3.064453125) (0.0001657730255126953, 3.06640625) (0.0001618003234863281, 3.068359375) (0.00015461871337890624, 3.0703125) (0.00014718370056152343, 3.072265625) (0.0001414748077392578, 3.07421875) (0.00013783863830566407, 3.076171875) (0.0001342750701904297, 3.078125) (0.00013022662353515626, 3.080078125) (0.00012589225769042968, 3.08203125) (0.00012121157073974609, 3.083984375) (0.00011652711486816406, 3.0859375) (0.00011190980529785156, 3.087890625) (0.00010707826232910156, 3.08984375) (0.00010194622039794922, 3.091796875) (9.65367431640625e-05, 3.09375) (9.084840393066406e-05, 3.095703125) (8.493399810791015e-05, 3.09765625) (7.889691925048828e-05, 3.099609375) (7.282858276367187e-05, 3.1015625) (6.681584167480468e-05, 3.103515625) (6.095409393310547e-05, 3.10546875) (5.530638122558593e-05, 3.107421875) (4.990841293334961e-05, 3.109375) (4.482304382324218e-05, 3.111328125) (4.012481689453125e-05, 3.11328125) (3.586698150634765e-05, 3.115234375) (3.209054946899414e-05, 3.1171875) (2.8816781997680664e-05, 3.119140625) (2.6048633575439453e-05, 3.12109375) (2.378101348876953e-05, 3.123046875) (2.1980224609375e-05, 3.125) (2.0548574447631834e-05, 3.126953125) (1.9341354370117187e-05, 3.12890625) (1.8210573196411132e-05, 3.130859375) (1.7025733947753905e-05, 3.1328125) (1.57062349319458e-05, 3.134765625) (1.4183675765991211e-05, 3.13671875) (1.23630952835083e-05, 3.138671875) (1.0143247604370117e-05, 3.140625) (7.404908657073974e-06, 3.142578125) (4.046348094940185e-06, 3.14453125) (2.5816202163696286e-08, 3.146484375) (-4.708747863769531e-06, 3.1484375) (-1.0229219436645507e-05, 3.150390625) (-1.650291061401367e-05, 3.15234375) (-2.338031196594238e-05, 3.154296875) (-3.054818344116211e-05, 3.15625) (-3.744716644287109e-05, 3.158203125) (-4.350246047973632e-05, 3.16015625) (-4.827628707885742e-05, 3.162109375) (-5.1293861389160153e-05, 3.1640625) (-5.204764938354492e-05, 3.166015625) (-5.0255187988281245e-05, 3.16796875) (-4.5881340026855464e-05, 3.169921875) (-3.923267364501953e-05, 3.171875) (-3.106629943847656e-05, 3.173828125) (-2.2076650619506834e-05, 3.17578125) (-1.2568527221679687e-05, 3.177734375) (-2.8591368198394775e-06, 3.1796875) (6.557181358337402e-06, 3.181640625) (1.5537688255310058e-05, 3.18359375) (2.4476993560791014e-05, 3.185546875) (3.439434051513672e-05, 3.1875) (4.714621353149414e-05, 3.189453125) (6.452778625488282e-05, 3.19140625) (8.754434204101562e-05, 3.193359375) (0.00011739820861816406, 3.1953125) (0.00015580825805664063, 3.197265625) (0.0002039798126220703, 3.19921875) (0.00026237298583984376, 3.201171875) (0.00032927545166015624, 3.203125) (0.000400501708984375, 3.205078125) (0.0004723330993652344, 3.20703125) (0.0005425931396484375, 3.208984375) (0.0006114198608398437, 3.2109375) (0.000679729736328125, 3.212890625) (0.0007450050048828124, 3.21484375) (0.0008004007568359375, 3.216796875) (0.0008347037963867187, 3.21875) (0.0008371439208984374, 3.220703125) (0.0008035556640624999, 3.22265625) (0.0007375067138671874, 3.224609375) (0.0006507318115234375, 3.2265625) (0.0005563776245117187, 3.228515625) (0.00046278695678710936, 3.23046875) (0.0003734830017089844, 3.232421875) (0.0002869100341796875, 3.234375) (0.00020206564331054687, 3.236328125) (0.00012162382507324219, 3.23828125) (4.9484596252441405e-05, 3.240234375) (-1.0405191421508789e-05, 3.2421875) (-5.654201507568359e-05, 3.244140625) (-9.01665802001953e-05, 3.24609375) (-0.00011316004943847655, 3.248046875) (-0.00012706498718261717, 3.25) (-0.00013362541198730469, 3.251953125) (-0.0001350200653076172, 3.25390625) (-0.00013345993041992188, 3.255859375) (-0.00013090771484375, 3.2578125) (-0.00012818394470214843, 3.259765625) (-0.00012521893310546875, 3.26171875) (-0.00012216752624511718, 3.263671875) (-0.00011953446960449219, 3.265625) (-0.00011738618469238281, 3.267578125) (-0.00011545357513427734, 3.26953125) (-0.00011332731628417968, 3.271484375) (-0.00011061925506591796, 3.2734375) (-0.00010781285858154297, 3.275390625) (-0.00010562856292724609, 3.27734375) (-0.00010411502838134765, 3.279296875) (-0.00010295195007324218, 3.28125) (-0.00010199864196777344, 3.283203125) (-0.00010123118591308593, 3.28515625) (-0.00010080786895751953, 3.287109375) (-0.00010083178710937499, 3.2890625) (-0.0001008186264038086, 3.291015625) (-0.00010035154724121094, 3.29296875) (-9.956425476074219e-05, 3.294921875) (-9.889830780029296e-05, 3.296875) (-9.8753173828125e-05, 3.298828125) (-9.931771850585937e-05, 3.30078125) (-0.00010053868865966797, 3.302734375) (-0.00010233586120605469, 3.3046875) (-0.00010484678649902344, 3.306640625) (-0.00010813674926757813, 3.30859375) (-0.00011201526641845703, 3.310546875) (-0.00011608454895019531, 3.3125) (-0.00011992704772949218, 3.314453125) (-0.00012331066131591797, 3.31640625) (-0.000126175537109375, 3.318359375) (-0.00012854574584960938, 3.3203125) (-0.000130427001953125, 3.322265625) (-0.00013180682373046875, 3.32421875) (-0.00013271977233886718, 3.326171875) (-0.00013327552795410155, 3.328125) (-0.00013360859680175782, 3.330078125) (-0.00013381785583496092, 3.33203125) (-0.0001339652862548828, 3.333984375) (-0.0001340731201171875, 3.3359375) (-0.00013416246032714842, 3.337890625) (-0.00013429231262207032, 3.33984375) (-0.00013453427124023436, 3.341796875) (-0.0001349643859863281, 3.34375) (-0.00013565560913085937, 3.345703125) (-0.00013664817810058594, 3.34765625) (-0.00013796121215820312, 3.349609375) (-0.00013960792541503907, 3.3515625) (-0.00014158567810058594, 3.353515625) (-0.00014388217163085936, 3.35546875) (-0.00014648100280761719, 3.357421875) (-0.00014935108947753905, 3.359375) (-0.00015245260620117186, 3.361328125) (-0.0001557545166015625, 3.36328125) (-0.00015922958374023436, 3.365234375) (-0.00016285350036621094, 3.3671875) (-0.000166607177734375, 3.369140625) (-0.0001704633331298828, 3.37109375) (-0.00017438720703125, 3.373046875) (-0.00017834277343749998, 3.375) (-0.0001822935791015625, 3.376953125) (-0.0001862072296142578, 3.37890625) (-0.00019005564880371093, 3.380859375) (-0.00019381176757812498, 3.3828125) (-0.00019744869995117186, 3.384765625) (-0.00020094216918945313, 3.38671875) (-0.00020427052307128905, 3.388671875) (-0.00020741510009765623, 3.390625) (-0.00021036016845703124, 3.392578125) (-0.0002130884552001953, 3.39453125) (-0.00021558151245117186, 3.396484375) (-0.00021782151794433593, 3.3984375) (-0.0002197915344238281, 3.400390625) (-0.00022147698974609375, 3.40234375) (-0.00022286610412597656, 3.404296875) (-0.00022394847106933593, 3.40625) (-0.00022471511840820312, 3.408203125) (-0.00022515980529785155, 3.41015625) (-0.00022527886962890625, 3.412109375) (-0.00022507080078125, 3.4140625) (-0.00022453659057617188, 3.416015625) (-0.00022367877197265623, 3.41796875) (-0.00022250106811523438, 3.419921875) (-0.00022100909423828125, 3.421875) (-0.00021921002197265624, 3.423828125) (-0.0002171124572753906, 3.42578125) (-0.00021472637939453124, 3.427734375) (-0.00021206321716308593, 3.4296875) (-0.00020913525390625, 3.431640625) (-0.00020595591735839843, 3.43359375) (-0.00020253982543945312, 3.435546875) (-0.00019890231323242187, 3.4375) (-0.00019505943298339843, 3.439453125) (-0.00019102784729003905, 3.44140625) (-0.00018682447814941406, 3.443359375) (-0.00018246653747558593, 3.4453125) (-0.00017797143554687498, 3.447265625) (-0.00017335641479492188, 3.44921875) (-0.00016863844299316405, 3.451171875) (-0.0001638341827392578, 3.453125) (-0.0001589597930908203, 3.455078125) (-0.00015403097534179687, 3.45703125) (-0.00014906295776367186, 3.458984375) (-0.0001440701141357422, 3.4609375) (-0.0001390659942626953, 3.462890625) (-0.00013406336975097655, 3.46484375) (-0.00012907412719726562, 3.466796875) (-0.00012410924530029295, 3.46875) (-0.00011917879486083984, 3.470703125) (-0.00011429157257080077, 3.47265625) (-0.00010945521545410156, 3.474609375) (-0.00010467633819580078, 3.4765625) (-9.99605484008789e-05, 3.478515625) (-9.531259155273437e-05, 3.48046875) (-9.073638153076172e-05, 3.482421875) (-8.623497009277343e-05, 3.484375) (-8.181056976318359e-05, 3.486328125) (-7.746484374999999e-05, 3.48828125) (-7.319889831542968e-05, 3.490234375) (-6.90132598876953e-05, 3.4921875) (-6.490792083740234e-05, 3.494140625) (-6.088233566284179e-05, 3.49609375) (-5.6935394287109374e-05, 3.498046875) (-5.3065635681152344e-05, 3.5) (-4.9271228790283204e-05, 3.501953125) (-4.555002212524414e-05, 3.50390625) (-4.1899627685546876e-05, 3.505859375) (-3.831743240356445e-05, 3.5078125) (-3.480066680908203e-05, 3.509765625) (-3.1346553802490236e-05, 3.51171875) (-2.795231056213379e-05, 3.513671875) (-2.4615184783935546e-05, 3.515625) (-2.1332500457763672e-05, 3.517578125) (-1.810163879394531e-05, 3.51953125) (-1.4920106887817381e-05, 3.521484375) (-1.1785614013671875e-05, 3.5234375) (-8.696072578430175e-06, 3.525390625) (-5.6496038436889645e-06, 3.52734375) (-2.644548416137695e-06, 3.529296875) (3.2053995132446287e-07, 3.53125) (3.246856927871704e-06, 3.533203125) (6.13528823852539e-06, 3.53515625) (8.986442565917968e-06, 3.537109375) (1.1800712585449219e-05, 3.5390625) (1.4578301429748534e-05, 3.541015625) (1.7319271087646483e-05, 3.54296875) (2.0023548126220703e-05, 3.544921875) (2.269093132019043e-05, 3.546875) (2.5321136474609375e-05, 3.548828125) (2.7913864135742185e-05, 3.55078125) (3.0468830108642578e-05, 3.552734375) (3.2985736846923826e-05, 3.5546875) (3.546427154541015e-05, 3.556640625) (3.790402603149414e-05, 3.55859375) (4.030454635620117e-05, 3.560546875) (4.266531372070312e-05, 3.5625) (4.498574447631836e-05, 3.564453125) (4.726519775390625e-05, 3.56640625) (4.950289916992187e-05, 3.568359375) (5.1698009490966795e-05, 3.5703125) (5.3849575042724605e-05, 3.572265625) (5.595660781860351e-05, 3.57421875) (5.801806640625e-05, 3.576171875) (6.003284454345703e-05, 3.578125) (6.1999755859375e-05, 3.580078125) (6.391746520996093e-05, 3.58203125) (6.578451538085937e-05, 3.583984375) (6.759930419921875e-05, 3.5859375) (6.936012268066406e-05, 3.587890625) (7.106505584716797e-05, 3.58984375) (7.271202087402343e-05, 3.591796875) (7.429875946044921e-05, 3.59375) (7.582282257080077e-05, 3.595703125) (7.728164672851562e-05, 3.59765625) (7.867253875732422e-05, 3.599609375) (7.999264526367187e-05, 3.6015625) (8.12388916015625e-05, 3.603515625) (8.240798950195312e-05, 3.60546875) (8.349644470214844e-05, 3.607421875) (8.450045013427734e-05, 3.609375) (8.54159927368164e-05, 3.611328125) (8.623874664306641e-05, 3.61328125) (8.6964111328125e-05, 3.615234375) (8.758726501464844e-05, 3.6171875) (8.810317230224609e-05, 3.619140625) (8.850679016113281e-05, 3.62109375) (8.879299926757812e-05, 3.623046875) (8.895675659179687e-05, 3.625) (8.899310302734374e-05, 3.626953125) (8.889724731445312e-05, 3.62890625) (8.866459655761718e-05, 3.630859375) (8.829080200195313e-05, 3.6328125) (8.777185821533202e-05, 3.634765625) (8.710404968261719e-05, 3.63671875) (8.628407287597656e-05, 3.638671875) (8.530901336669922e-05, 3.640625) (8.417655944824218e-05, 3.642578125) (8.288503265380859e-05, 3.64453125) (8.143344116210937e-05, 3.646484375) (7.982158660888672e-05, 3.6484375) (7.805007934570312e-05, 3.650390625) (7.612040710449219e-05, 3.65234375) (7.403492736816406e-05, 3.654296875) (7.179689788818359e-05, 3.65625) (6.941046905517578e-05, 3.658203125) (6.688064575195313e-05, 3.66015625) (6.421328735351562e-05, 3.662109375) (6.141510772705078e-05, 3.6640625) (5.849373626708984e-05, 3.666015625) (5.5457752227783204e-05, 3.66796875) (5.231665802001953e-05, 3.669921875) (4.908094024658203e-05, 3.671875) (4.5762008666992186e-05, 3.673828125) (4.237218856811523e-05, 3.67578125) (3.892467498779297e-05, 3.677734375) (3.5433456420898436e-05, 3.6796875) (3.191317367553711e-05, 3.681640625) (2.83790283203125e-05, 3.68359375) (2.484663200378418e-05, 3.685546875) (2.1331914901733396e-05, 3.6875) (1.785104179382324e-05, 3.689453125) (1.4420316696166991e-05, 3.69140625) (1.1056114196777343e-05, 3.693359375) (7.774764060974121e-06, 3.6953125) (4.592477321624755e-06, 3.697265625) (1.5252373218536377e-06, 3.69921875) (-1.4113019704818725e-06, 3.701171875) (-4.201950073242187e-06, 3.703125) (-6.8321275711059566e-06, 3.705078125) (-9.288013458251954e-06, 3.70703125) (-1.1556666374206543e-05, 3.708984375) (-1.3626140594482421e-05, 3.7109375) (-1.5485548019409178e-05, 3.712890625) (-1.7125114440917967e-05, 3.71484375) (-1.853622055053711e-05, 3.716796875) (-1.9711410522460936e-05, 3.71875) (-2.064439582824707e-05, 3.720703125) (-2.133009147644043e-05, 3.72265625) (-2.1764619827270507e-05, 3.724609375) (-2.1945323944091797e-05, 3.7265625) (-2.1870826721191405e-05, 3.728515625) (-2.154103660583496e-05, 3.73046875) (-2.095721435546875e-05, 3.732421875) (-2.0121967315673826e-05, 3.734375) (-1.903922462463379e-05, 3.736328125) (-1.771416473388672e-05, 3.73828125) (-1.615312957763672e-05, 3.740234375) (-1.4363564491271971e-05, 3.7421875) (-1.2353895187377928e-05, 3.744140625) (-1.0133419036865234e-05, 3.74609375) (-7.712182521820068e-06, 3.748046875) (-5.10085916519165e-06, 3.75) (-2.3106775283813478e-06, 3.751953125) (6.466457843780517e-07, 3.75390625) (3.758986711502075e-06, 3.755859375) (7.013896942138671e-06, 3.7578125) (1.0398714065551757e-05, 3.759765625) (1.3900714874267578e-05, 3.76171875) (1.7507232666015625e-05, 3.763671875) (2.120580291748047e-05, 3.765625) (2.498430633544922e-05, 3.767578125) (2.8831026077270506e-05, 3.76953125) (3.273476791381836e-05, 3.771484375) (3.668500518798828e-05, 3.7734375) (4.067188644409179e-05, 3.775390625) (4.468626022338867e-05, 3.77734375) (4.871968460083008e-05, 3.779296875) (5.2764328002929686e-05, 3.78125) (5.68129653930664e-05, 3.783203125) (6.085917663574219e-05, 3.78515625) (6.489730072021484e-05, 3.787109375) (6.892242431640625e-05, 3.7890625) (7.293035125732422e-05, 3.791015625) (7.691763305664062e-05, 3.79296875) (8.088152313232422e-05, 3.794921875) (8.482009887695312e-05, 3.796875) (8.873216247558593e-05, 3.798828125) (9.261710357666016e-05, 3.80078125) (9.647476196289062e-05, 3.802734375) (0.00010030538177490234, 3.8046875) (0.00010410954284667968, 3.806640625) (0.00010788814544677734, 3.80859375) (0.00011164229583740234, 3.810546875) (0.00011537318420410155, 3.8125) (0.00011908205413818358, 3.814453125) (0.00012277008056640624, 3.81640625) (0.00012643833923339844, 3.818359375) (0.00013008782958984374, 3.8203125) (0.0001337193603515625, 3.822265625) (0.00013733322143554688, 3.82421875) (0.0001409292297363281, 3.826171875) (0.00014450633239746093, 3.828125) (0.0001480626983642578, 3.830078125) (0.00015159584045410155, 3.83203125) (0.00015510264587402343, 3.833984375) (0.0001585790252685547, 3.8359375) (0.00016201998901367186, 3.837890625) (0.00016541972351074219, 3.83984375) (0.00016877165222167967, 3.841796875) (0.00017206884765624998, 3.84375) (0.00017530412292480468, 3.845703125) (0.00017846917724609375, 3.84765625) (0.0001815548858642578, 3.849609375) (0.00018455139160156249, 3.8515625) (0.00018744824218749998, 3.853515625) (0.00019023446655273436, 3.85546875) (0.0001928987579345703, 3.857421875) (0.00019542889404296874, 3.859375) (0.00019781211853027342, 3.861328125) (0.0002000353546142578, 3.86328125) (0.00020208546447753905, 3.865234375) (0.0002039492950439453, 3.8671875) (0.00020561366271972656, 3.869140625) (0.00020706512451171874, 3.87109375) (0.00020829010009765624, 3.873046875) (0.00020927508544921875, 3.875) (0.00021000653076171875, 3.876953125) (0.00021047111511230467, 3.87890625) (0.0002106556701660156, 3.880859375) (0.00021054693603515624, 3.8828125) (0.0002101319580078125, 3.884765625) (0.0002093982696533203, 3.88671875) (0.00020833416748046874, 3.888671875) (0.00020692924499511717, 3.890625) (0.00020517445373535156, 3.892578125) (0.00020306129455566405, 3.89453125) (0.00020058190917968748, 3.896484375) (0.00019772972106933592, 3.8984375) (0.00019449916076660155, 3.900390625) (0.00019088546752929687, 3.90234375) (0.00018688436889648436, 3.904296875) (0.00018249118041992188, 3.90625) (0.0001777007141113281, 3.908203125) (0.00017250961303710936, 3.91015625) (0.0001669166259765625, 3.912109375) (0.00016092141723632813, 3.9140625) (0.00015452476501464843, 3.916015625) (0.00014772941589355468, 3.91796875) (0.00014054031372070312, 3.919921875) (0.00013296560668945312, 3.921875) (0.00012501707458496093, 3.923828125) (0.00011670616149902343, 3.92578125) (0.00010804350280761718, 3.927734375) (9.904190063476562e-05, 3.9296875) (8.971585845947265e-05, 3.931640625) (8.008244323730468e-05, 3.93359375) (7.016194152832031e-05, 3.935546875) (5.997530364990234e-05, 3.9375) (4.954420852661133e-05, 3.939453125) (3.889495849609375e-05, 3.94140625) (2.8057340621948242e-05, 3.943359375) (1.706428909301758e-05, 3.9453125) (5.953427791595458e-06, 3.947265625) (-5.242698192596436e-06, 3.94921875) (-1.6495948791503907e-05, 3.951171875) (-2.7779106140136718e-05, 3.953125) (-3.907054138183594e-05, 3.955078125) (-5.034198379516602e-05, 3.95703125) (-6.155548477172851e-05, 3.958984375) (-7.267593383789062e-05, 3.9609375) (-8.36688003540039e-05, 3.962890625) (-9.449248504638671e-05, 3.96484375) (-0.00010510319519042968, 3.966796875) (-0.00011544562530517578, 3.96875) (-0.0001254474182128906, 3.970703125) (-0.00013504891967773436, 3.97265625) (-0.00014419793701171875, 3.974609375) (-0.00015283880615234375, 3.9765625) (-0.00016092529296875, 3.978515625) (-0.00016839425659179687, 3.98046875) (-0.00017517074584960936, 3.982421875) (-0.00018119309997558593, 3.984375) (-0.00018639811706542967, 3.986328125) (-0.0001907338104248047, 3.98828125) (-0.00019417138671875, 3.990234375) (-0.00019668125915527342, 3.9921875) (-0.0001982365264892578, 3.994140625) (-0.00019883538818359374, 3.99609375) (-0.00019847775268554686, 3.998046875) (-0.00019719241333007812, 4.0) (-0.00019506661987304686, 4.001953125) (-0.00019218061828613282, 4.00390625) (-0.00018862954711914063, 4.005859375) (-0.0001845299072265625, 4.0078125) (-0.00017996051025390624, 4.009765625) (-0.00017506774902343748, 4.01171875) (-0.00017006607055664063, 4.013671875) (-0.00016506494140625, 4.015625) (-0.00016009092712402343, 4.017578125) (-0.00015504058837890623, 4.01953125) (-0.00014961419677734375, 4.021484375) (-0.00014355705261230467, 4.0234375) (-0.00013673089599609375, 4.025390625) (-0.00012888299560546873, 4.02734375) (-0.00011972403717041015, 4.029296875) (-0.00010913124847412109, 4.03125) (-9.709426879882811e-05, 4.033203125) (-8.410646820068358e-05, 4.03515625) (-7.114619445800781e-05, 4.037109375) (-5.898329162597656e-05, 4.0390625) (-4.820414733886718e-05, 4.041015625) (-3.9240081787109376e-05, 4.04296875) (-3.224637985229492e-05, 4.044921875) (-2.7316741943359375e-05, 4.046875) (-2.4260868072509763e-05, 4.048828125) (-2.1783578872680664e-05, 4.05078125) (-1.7770896911621092e-05, 4.052734375) (-1.012511920928955e-05, 4.0546875) (3.3457660675048825e-06, 4.056640625) (2.427036666870117e-05, 4.05859375) (5.366002655029297e-05, 4.060546875) (9.289555358886718e-05, 4.0625) (0.0001430783233642578, 4.064453125) (0.0002036995849609375, 4.06640625) (0.00027308172607421876, 4.068359375) (0.00034889593505859376, 4.0703125) (0.0004267953186035156, 4.072265625) (0.0005030033569335937, 4.07421875) (0.0005756939697265625, 4.076171875) (0.000640910888671875, 4.078125) (0.00069680517578125, 4.080078125) (0.0007428053588867188, 4.08203125) (0.0007733296508789062, 4.083984375) (0.0007855670776367187, 4.0859375) (0.0007769402465820312, 4.087890625) (0.0007434302978515624, 4.08984375) (0.0006896390380859374, 4.091796875) (0.0006213383178710937, 4.09375) (0.0005437548217773437, 4.095703125) (0.00046418646240234374, 4.09765625) (0.000384518310546875, 4.099609375) (0.00030536715698242187, 4.1015625) (0.00022888494873046875, 4.103515625) (0.00015693905639648436, 4.10546875) (9.301648712158202e-05, 4.107421875) (3.9972923278808593e-05, 4.109375) (-1.0290889739990234e-06, 4.111328125) (-2.9908288955688474e-05, 4.11328125) (-4.7854396820068354e-05, 4.115234375) (-5.5864818572998046e-05, 4.1171875) (-5.4971256256103515e-05, 4.119140625) (-4.714755249023437e-05, 4.12109375) (-3.432918930053711e-05, 4.123046875) (-1.8550323486328124e-05, 4.125) (-2.0189599990844724e-06, 4.126953125) (1.4104642868041992e-05, 4.12890625) (2.931739807128906e-05, 4.130859375) (4.306097412109375e-05, 4.1328125) (5.5231010437011715e-05, 4.134765625) (6.625514984130859e-05, 4.13671875) (7.64923095703125e-05, 4.138671875) (8.648766326904296e-05, 4.140625) (9.706497192382813e-05, 4.142578125) (0.00010847070312499999, 4.14453125) (0.0001206524429321289, 4.146484375) (0.00013362588500976562, 4.1484375) (0.00014693547058105468, 4.150390625) (0.0001597519989013672, 4.15234375) (0.00017142965698242188, 4.154296875) (0.00018137159729003907, 4.15625) (0.00018880804443359374, 4.158203125) (0.00019330815124511718, 4.16015625) (0.00019450604248046874, 4.162109375) (0.00019181651306152342, 4.1640625) (0.0001853602294921875, 4.166015625) (0.00017581828308105467, 4.16796875) (0.00016376312255859374, 4.169921875) (0.0001499066925048828, 4.171875) (0.00013504421997070313, 4.173828125) (0.00011971824645996093, 4.17578125) (0.00010479634857177734, 4.177734375) (9.152369689941406e-05, 4.1796875) (8.038186645507812e-05, 4.181640625) (7.139384460449218e-05, 4.18359375) (6.442543029785156e-05, 4.185546875) (5.885631942749023e-05, 4.1875) (5.428445434570312e-05, 4.189453125) (5.049239730834961e-05, 4.19140625) (4.67071304321289e-05, 4.193359375) (4.200312042236328e-05, 4.1953125) (3.596072769165039e-05, 4.197265625) (2.823702049255371e-05, 4.19921875) (1.9101572036743165e-05, 4.201171875) (9.425420761108398e-06, 4.203125) (-4.27847146987915e-07, 4.205078125) (-9.936697959899902e-06, 4.20703125) (-1.8204883575439452e-05, 4.208984375) (-2.463824462890625e-05, 4.2109375) (-2.8682193756103515e-05, 4.212890625) (-2.961149215698242e-05, 4.21484375) (-2.7537982940673826e-05, 4.216796875) (-2.2945537567138672e-05, 4.21875) (-1.5901103019714354e-05, 4.220703125) (-7.084022045135498e-06, 4.22265625) (2.7954883575439453e-06, 4.224609375) (1.3528058052062987e-05, 4.2265625) (2.4587560653686522e-05, 4.228515625) (3.531377410888672e-05, 4.23046875) (4.557183837890625e-05, 4.232421875) (5.518855285644531e-05, 4.234375) (6.385880279541016e-05, 4.236328125) (7.193628692626952e-05, 4.23828125) (7.961007690429687e-05, 4.240234375) (8.670130920410155e-05, 4.2421875) (9.330111694335937e-05, 4.244140625) (9.942916107177733e-05, 4.24609375) (0.0001050065689086914, 4.248046875) (0.00011020097351074219, 4.25) (0.00011514620971679686, 4.251953125) (0.00011965119934082031, 4.25390625) (0.0001236447296142578, 4.255859375) (0.0001271709213256836, 4.2578125) (0.00013022711181640624, 4.259765625) (0.00013297877502441404, 4.26171875) (0.0001355440673828125, 4.263671875) (0.00013788856506347655, 4.265625) (0.00014001785278320311, 4.267578125) (0.00014197932434082032, 4.26953125) (0.0001438207550048828, 4.271484375) (0.000145625732421875, 4.2734375) (0.00014744859313964843, 4.275390625) (0.0001492647247314453, 4.27734375) (0.00015105831909179688, 4.279296875) (0.0001528236083984375, 4.28125) (0.0001545515441894531, 4.283203125) (0.00015625741577148436, 4.28515625) (0.0001579276428222656, 4.287109375) (0.00015951620483398436, 4.2890625) (0.00016097776794433594, 4.291015625) (0.00016226046752929686, 4.29296875) (0.00016333493041992186, 4.294921875) (0.00016419790649414062, 4.296875) (0.0001648432159423828, 4.298828125) (0.00016526727294921873, 4.30078125) (0.00016547062683105467, 4.302734375) (0.00016545123291015625, 4.3046875) (0.00016522012329101563, 4.306640625) (0.00016480218505859375, 4.30859375) (0.00016421395874023436, 4.310546875) (0.0001634690704345703, 4.3125) (0.0001625819091796875, 4.314453125) (0.00016155963134765623, 4.31640625) (0.00016041763305664063, 4.318359375) (0.00015917994689941406, 4.3203125) (0.000157867919921875, 4.322265625) (0.00015650390624999999, 4.32421875) (0.0001551078643798828, 4.326171875) (0.00015369378662109375, 4.328125) (0.0001522755126953125, 4.330078125) (0.0001508668212890625, 4.33203125) (0.00014947743225097657, 4.333984375) (0.00014811459350585937, 4.3359375) (0.00014678300476074217, 4.337890625) (0.0001454836730957031, 4.33984375) (0.0001442187805175781, 4.341796875) (0.00014299205017089843, 4.34375) (0.00014180625915527343, 4.345703125) (0.00014066427612304688, 4.34765625) (0.00013956785583496092, 4.349609375) (0.00013851661682128905, 4.3515625) (0.00013750970458984373, 4.353515625) (0.0001365455322265625, 4.35546875) (0.00013562030029296875, 4.357421875) (0.00013472840881347656, 4.359375) (0.00013386254882812498, 4.361328125) (0.000133013427734375, 4.36328125) (0.00013217065429687498, 4.365234375) (0.00013132308959960936, 4.3671875) (0.0001304584045410156, 4.369140625) (0.00012956341552734375, 4.37109375) (0.00012862432861328123, 4.373046875) (0.00012762664794921874, 4.375) (0.0001265550994873047, 4.376953125) (0.00012539413452148436, 4.37890625) (0.00012412786865234374, 4.380859375) (0.00012274014282226563, 4.3828125) (0.00012121502685546875, 4.384765625) (0.00011953673553466796, 4.38671875) (0.00011768977355957031, 4.388671875) (0.00011565930938720703, 4.390625) (0.00011343144226074218, 4.392578125) (0.00011099322509765624, 4.39453125) (0.00010833302307128905, 4.396484375) (0.00010544065856933593, 4.3984375) (0.00010230717468261719, 4.400390625) (9.89251251220703e-05, 4.40234375) (9.528854370117187e-05, 4.404296875) (9.139298248291015e-05, 4.40625) (8.723561859130859e-05, 4.408203125) (8.281534576416015e-05, 4.41015625) (7.813252258300781e-05, 4.412109375) (7.318914794921875e-05, 4.4140625) (6.798892211914062e-05, 4.416015625) (6.253717422485351e-05, 4.41796875) (5.684114837646484e-05, 4.419921875) (5.0910018920898436e-05, 4.421875) (4.475465393066406e-05, 4.423828125) (3.8387714385986324e-05, 4.42578125) (3.182353973388672e-05, 4.427734375) (2.5077985763549802e-05, 4.4296875) (1.816841697692871e-05, 4.431640625) (1.1113554954528808e-05, 4.43359375) (3.933180332183838e-06, 4.435546875) (-3.351917266845703e-06, 4.4375) (-1.072006607055664e-05, 4.439453125) (-1.814894676208496e-05, 4.44140625) (-2.5615652084350585e-05, 4.443359375) (-3.3096832275390624e-05, 4.4453125) (-4.056892395019531e-05, 4.447265625) (-4.800822067260742e-05, 4.44921875) (-5.539108276367187e-05, 4.451171875) (-6.269416046142578e-05, 4.453125) (-6.989463806152344e-05, 4.455078125) (-7.697038269042968e-05, 4.45703125) (-8.390020751953124e-05, 4.458984375) (-9.066404724121093e-05, 4.4609375) (-9.724313354492187e-05, 4.462890625) (-0.00010362022399902343, 4.46484375) (-0.00010977964019775391, 4.466796875) (-0.00011570748138427734, 4.46875) (-0.00012139154052734374, 4.470703125) (-0.00012682140350341796, 4.47265625) (-0.00013198846435546875, 4.474609375) (-0.00013688592529296874, 4.4765625) (-0.00014150885009765624, 4.478515625) (-0.0001458541259765625, 4.48046875) (-0.00014992051696777344, 4.482421875) (-0.00015370867919921874, 4.484375) (-0.00015722103881835937, 4.486328125) (-0.00016046189880371094, 4.48828125) (-0.00016343734741210936, 4.490234375) (-0.00016615516662597655, 4.4921875) (-0.00016862467956542968, 4.494140625) (-0.00017085659790039062, 4.49609375) (-0.0001728629455566406, 4.498046875) (-0.00017465684509277343, 4.5) (-0.00017625250244140625, 4.501953125) (-0.00017766493225097654, 4.50390625) (-0.00017890988159179687, 4.505859375) (-0.00018000376892089842, 4.5078125) (-0.00018096340942382811, 4.509765625) (-0.00018180612182617186, 4.51171875) (-0.00018254937744140623, 4.513671875) (-0.00018321078491210938, 4.515625) (-0.00018380776977539062, 4.517578125) (-0.00018435734558105467, 4.51953125) (-0.00018487594604492188, 4.521484375) (-0.00018537916564941405, 4.5234375) (-0.00018588168334960937, 4.525390625) (-0.00018639700317382813, 4.52734375) (-0.000186937255859375, 4.529296875) (-0.00018751312255859375, 4.53125) (-0.00018813385009765625, 4.533203125) (-0.00018880722045898436, 4.53515625) (-0.00018953948974609374, 4.537109375) (-0.0001903353271484375, 4.5390625) (-0.0001911978302001953, 4.541015625) (-0.0001921284484863281, 4.54296875) (-0.00019312692260742186, 4.544921875) (-0.0001941915283203125, 4.546875) (-0.0001953188018798828, 4.548828125) (-0.0001965036926269531, 4.55078125) (-0.0001977396240234375, 4.552734375) (-0.00019901849365234375, 4.5546875) (-0.00020033090209960937, 4.556640625) (-0.00020166635131835936, 4.55859375) (-0.00020301327514648436, 4.560546875) (-0.00020435923767089844, 4.5625) (-0.00020569093322753905, 4.564453125) (-0.00020699441528320312, 4.56640625) (-0.00020825509643554688, 4.568359375) (-0.0002094578857421875, 4.5703125) (-0.00021058731079101563, 4.572265625) (-0.00021162759399414062, 4.57421875) (-0.00021256262207031249, 4.576171875) (-0.000213376220703125, 4.578125) (-0.00021405235290527342, 4.580078125) (-0.0002145753173828125, 4.58203125) (-0.00021492994689941406, 4.583984375) (-0.00021510173034667969, 4.5859375) (-0.00021507696533203124, 4.587890625) (-0.0002148430480957031, 4.58984375) (-0.00021438836669921874, 4.591796875) (-0.0002137025909423828, 4.59375) (-0.00021277665710449218, 4.595703125) (-0.00021160275268554686, 4.59765625) (-0.0002101743621826172, 4.599609375) (-0.00020848638916015624, 4.6015625) (-0.00020653515624999999, 4.603515625) (-0.00020431857299804687, 4.60546875) (-0.00020183602905273436, 4.607421875) (-0.00019908859252929686, 4.609375) (-0.00019607872009277342, 4.611328125) (-0.000192810546875, 4.61328125) (-0.0001892897186279297, 4.615234375) (-0.0001855232696533203, 4.6171875) (-0.0001815196075439453, 4.619140625) (-0.00017728825378417968, 4.62109375) (-0.0001728397979736328, 4.623046875) (-0.000168185791015625, 4.625) (-0.00016333883666992186, 4.626953125) (-0.00015831227111816405, 4.62890625) (-0.0001531202697753906, 4.630859375) (-0.00014777764892578125, 4.6328125) (-0.0001422999267578125, 4.634765625) (-0.00013670327758789062, 4.63671875) (-0.00013100433349609375, 4.638671875) (-0.00012522023773193358, 4.640625) (-0.00011936845397949218, 4.642578125) (-0.00011346643066406249, 4.64453125) (-0.00010753163146972656, 4.646484375) (-0.0001015812759399414, 4.6484375) (-9.563236999511718e-05, 4.650390625) (-8.970160675048827e-05, 4.65234375) (-8.380514526367187e-05, 4.654296875) (-7.795857238769531e-05, 4.65625) (-7.217678070068359e-05, 4.658203125) (-6.647412109374999e-05, 4.66015625) (-6.086431884765625e-05, 4.662109375) (-5.536043548583984e-05, 4.6640625) (-4.997462081909179e-05, 4.666015625) (-4.471802520751953e-05, 4.66796875) (-3.960078430175781e-05, 4.669921875) (-3.4632057189941405e-05, 4.671875) (-2.982007598876953e-05, 4.673828125) (-2.517197036743164e-05, 4.67578125) (-2.0693674087524413e-05, 4.677734375) (-1.63901252746582e-05, 4.6796875) (-1.2265364646911621e-05, 4.681640625) (-8.322503089904785e-06, 4.68359375) (-4.563859462738037e-06, 4.685546875) (-9.909491539001464e-07, 4.6875) (2.3957355022430417e-06, 4.689453125) (5.59635066986084e-06, 4.69140625) (8.611562728881836e-06, 4.693359375) (1.144278335571289e-05, 4.6953125) (1.4091958999633788e-05, 4.697265625) (1.656147003173828e-05, 4.69921875) (1.8854326248168945e-05, 4.701171875) (2.0974105834960935e-05, 4.703125) (2.292461585998535e-05, 4.705078125) (2.470990753173828e-05, 4.70703125) (2.6334228515624997e-05, 4.708984375) (2.780172348022461e-05, 4.7109375) (2.9116695404052732e-05, 4.712890625) (3.0283660888671874e-05, 4.71484375) (3.1306903839111324e-05, 4.716796875) (3.2190334320068355e-05, 4.71875) (3.2937564849853516e-05, 4.720703125) (3.355210876464844e-05, 4.72265625) (3.4037399291992184e-05, 4.724609375) (3.4396774291992184e-05, 4.7265625) (3.46329116821289e-05, 4.728515625) (3.474775695800781e-05, 4.73046875) (3.474280548095703e-05, 4.732421875) (3.461904144287109e-05, 4.734375) (3.437725067138672e-05, 4.736328125) (3.40174560546875e-05, 4.73828125) (3.35384407043457e-05, 4.740234375) (3.2938560485839844e-05, 4.7421875) (3.22159309387207e-05, 4.744140625) (3.136771011352539e-05, 4.74609375) (3.0390371322631834e-05, 4.748046875) (2.9279281616210937e-05, 4.75) (2.8027872085571287e-05, 4.751953125) (2.6629299163818357e-05, 4.75390625) (2.5077266693115234e-05, 4.755859375) (2.3364646911621092e-05, 4.7578125) (2.1483985900878905e-05, 4.759765625) (1.942867279052734e-05, 4.76171875) (1.7192083358764648e-05, 4.763671875) (1.4768747329711913e-05, 4.765625) (1.2155794143676757e-05, 4.767578125) (9.350496292114257e-06, 4.76953125) (6.349739074707031e-06, 4.771484375) (3.15056037902832e-06, 4.7734375) (-2.5089454650878905e-07, 4.775390625) (-3.85879898071289e-06, 4.77734375) (-7.675914764404296e-06, 4.779296875) (-1.170311164855957e-05, 4.78125) (-1.594022560119629e-05, 4.783203125) (-2.0385591506958007e-05, 4.78515625) (-2.5036664962768553e-05, 4.787109375) (-2.988772392272949e-05, 4.7890625) (-3.492684936523437e-05, 4.791015625) (-4.014091491699219e-05, 4.79296875) (-4.551696014404297e-05, 4.794921875) (-5.104681396484375e-05, 4.796875) (-5.672930526733398e-05, 4.798828125) (-6.255848693847655e-05, 4.80078125) (-6.851985168457031e-05, 4.802734375) (-7.459171295166016e-05, 4.8046875) (-8.074736022949218e-05, 4.806640625) (-8.695305633544921e-05, 4.80859375) (-9.316812133789062e-05, 4.810546875) (-9.934123992919921e-05, 4.8125) (-0.00010540474700927733, 4.814453125) (-0.00011129119873046874, 4.81640625) (-0.00011693742370605468, 4.818359375) (-0.00012228814697265623, 4.8203125) (-0.00012730110931396483, 4.822265625) (-0.0001319315490722656, 4.82421875) (-0.00013612989807128904, 4.826171875) (-0.00013983233642578125, 4.828125) (-0.00014296487426757813, 4.830078125) (-0.00014546519470214842, 4.83203125) (-0.00014728602600097654, 4.833984375) (-0.0001484004669189453, 4.8359375) (-0.00014879014587402344, 4.837890625) (-0.00014845446777343748, 4.83984375) (-0.00014742355346679688, 4.841796875) (-0.00014576383972167968, 4.84375) (-0.00014358511352539061, 4.845703125) (-0.00014098896789550781, 4.84765625) (-0.00013805545043945312, 4.849609375) (-0.00013485601806640624, 4.8515625) (-0.00013145808410644532, 4.853515625) (-0.00012794863891601562, 4.85546875) (-0.0001244264678955078, 4.857421875) (-0.00012099774932861327, 4.859375) (-0.00011774813842773437, 4.861328125) (-0.00011478231048583984, 4.86328125) (-0.00011223775482177734, 4.865234375) (-0.00011013472747802733, 4.8671875) (-0.0001083916015625, 4.869140625) (-0.00010679994201660156, 4.87109375) (-0.00010498108673095703, 4.873046875) (-0.00010257926940917968, 4.875) (-9.931753540039062e-05, 4.876953125) (-9.486228942871094e-05, 4.87890625) (-8.879283142089844e-05, 4.880859375) (-8.087534332275391e-05, 4.8828125) (-7.11102066040039e-05, 4.884765625) (-5.981410980224609e-05, 4.88671875) (-4.767401123046875e-05, 4.888671875) (-3.513844299316406e-05, 4.890625) (-2.2269577026367185e-05, 4.892578125) (-9.055132865905761e-06, 4.89453125) (4.403965950012207e-06, 4.896484375) (1.8006269454956052e-05, 4.8984375) (3.1977584838867184e-05, 4.900390625) (4.7173610687255854e-05, 4.90234375) (6.511677551269531e-05, 4.904296875) (8.715736389160156e-05, 4.90625) (0.00011404403686523437, 4.908203125) (0.00014614292907714842, 4.91015625) (0.00018390153503417968, 4.912109375) (0.0002282418212890625, 4.9140625) (0.0002799368896484375, 4.916015625) (0.0003389300231933594, 4.91796875) (0.000403990966796875, 4.919921875) (0.0004722523803710937, 4.921875) (0.0005400823974609374, 4.923828125) (0.0006046682739257812, 4.92578125) (0.0006640537109375, 4.927734375) (0.0007190035400390625, 4.9296875) (0.0007718374023437499, 4.931640625) (0.0008224029541015625, 4.93359375) (0.0008668740844726562, 4.935546875) (0.0008942913818359375, 4.9375) (0.0008915982666015625, 4.939453125) (0.0008498749389648437, 4.94140625) (0.0007673427734375, 4.943359375) (0.000655983642578125, 4.9453125) (0.00053247265625, 4.947265625) (0.0004134810791015625, 4.94921875) (0.00031416735839843746, 4.951171875) (0.00023721205139160155, 4.953125) (0.00018043157958984375, 4.955078125) (0.00013866529846191407, 4.95703125) (0.00010141598510742187, 4.958984375) (6.479497528076171e-05, 4.9609375) (2.872504425048828e-05, 4.962890625) (-5.408636093139648e-06, 4.96484375) (-3.174179077148437e-05, 4.966796875) (-4.8260498046875e-05, 4.96875) (-5.712005233764648e-05, 4.970703125) (-6.101073837280273e-05, 4.97265625) (-6.398389053344726e-05, 4.974609375) (-6.817362976074218e-05, 4.9765625) (-7.318341827392578e-05, 4.978515625) (-7.853292846679687e-05, 4.98046875) (-8.387191772460937e-05, 4.982421875) (-8.881544494628906e-05, 4.984375) (-9.300254821777344e-05, 4.986328125) (-9.575209045410155e-05, 4.98828125) (-9.606068420410156e-05, 4.990234375) (-9.349689483642578e-05, 4.9921875) (-8.82987060546875e-05, 4.994140625) (-8.088272094726562e-05, 4.99609375) (-7.17681655883789e-05, 4.998046875) (-6.149099731445312e-05, 5.0) (-5.053381729125976e-05, 5.001953125) (-3.94647216796875e-05, 5.00390625) (-2.8957481384277344e-05, 5.005859375) (-1.9440338134765623e-05, 5.0078125) (-1.1080717086791992e-05, 5.009765625) (-3.956887722015381e-06, 5.01171875) (1.9439032077789307e-06, 5.013671875) (6.625411987304688e-06, 5.015625) (1.0034796714782715e-05, 5.017578125) (1.2154146194458008e-05, 5.01953125) (1.3052983283996582e-05, 5.021484375) (1.2806741714477539e-05, 5.0234375) (1.1491549491882323e-05, 5.025390625) (9.21637725830078e-06, 5.02734375) (6.075860023498535e-06, 5.029296875) (2.2057774066925046e-06, 5.03125) (-2.2020254135131834e-06, 5.033203125) (-6.991502285003662e-06, 5.03515625) (-1.2035321235656738e-05, 5.037109375) (-1.7205066680908203e-05, 5.0390625) (-2.240105056762695e-05, 5.041015625) (-2.7509426116943357e-05, 5.04296875) (-3.236891555786133e-05, 5.044921875) (-3.686013031005859e-05, 5.046875) (-4.088344573974609e-05, 5.048828125) (-4.431781768798828e-05, 5.05078125) (-4.709530258178711e-05, 5.052734375) (-4.917028427124023e-05, 5.0546875) (-5.0499683380126954e-05, 5.056640625) (-5.109587860107422e-05, 5.05859375) (-5.099661636352539e-05, 5.060546875) (-5.0247299194335934e-05, 5.0625) (-4.892753219604492e-05, 5.064453125) (-4.71116943359375e-05, 5.06640625) (-4.484884643554687e-05, 5.068359375) (-4.2206878662109375e-05, 5.0703125) (-3.9254394531249996e-05, 5.072265625) (-3.6067443847656246e-05, 5.07421875) (-3.2761180877685544e-05, 5.076171875) (-2.9422550201416014e-05, 5.078125) (-2.6113754272460936e-05, 5.080078125) (-2.2910289764404297e-05, 5.08203125) (-1.986214065551758e-05, 5.083984375) (-1.700672912597656e-05, 5.0859375) (-1.438472843170166e-05, 5.087890625) (-1.200581169128418e-05, 5.08984375) (-9.856017112731933e-06, 5.091796875) (-7.926408767700195e-06, 5.09375) (-6.197144031524658e-06, 5.095703125) (-4.644001960754394e-06, 5.09765625) (-3.2581429481506348e-06, 5.099609375) (-2.0182087421417236e-06, 5.1015625) (-8.94627571105957e-07, 5.103515625) (1.4237694442272186e-07, 5.10546875) (1.1372849941253663e-06, 5.107421875) (2.123476028442383e-06, 5.109375) (3.11885404586792e-06, 5.111328125) (4.143186092376709e-06, 5.11328125) (5.2104415893554685e-06, 5.115234375) (6.328675270080566e-06, 5.1171875) (7.506759643554687e-06, 5.119140625) (8.743642807006836e-06, 5.12109375) (1.0026317596435547e-05, 5.123046875) (1.1347496032714843e-05, 5.125) (1.2701940536499023e-05, 5.126953125) (1.408235740661621e-05, 5.12890625) (1.548691940307617e-05, 5.130859375) (1.691021728515625e-05, 5.1328125) (1.834210968017578e-05, 5.134765625) (1.9773834228515625e-05, 5.13671875) (2.11954288482666e-05, 5.138671875) (2.259750175476074e-05, 5.140625) (2.3973865509033203e-05, 5.142578125) (2.5318847656249998e-05, 5.14453125) (2.662588882446289e-05, 5.146484375) (2.788995552062988e-05, 5.1484375) (2.9106639862060545e-05, 5.150390625) (3.0272567749023438e-05, 5.15234375) (3.138676834106445e-05, 5.154296875) (3.244637680053711e-05, 5.15625) (3.344618225097656e-05, 5.158203125) (3.438041305541992e-05, 5.16015625) (3.524235916137695e-05, 5.162109375) (3.602532958984375e-05, 5.1640625) (3.672330474853516e-05, 5.166015625) (3.732976150512695e-05, 5.16796875) (3.783747100830078e-05, 5.169921875) (3.824020767211914e-05, 5.171875) (3.8532585144042964e-05, 5.173828125) (3.8709564208984374e-05, 5.17578125) (3.876672744750976e-05, 5.177734375) (3.869952392578125e-05, 5.1796875) (3.850304412841797e-05, 5.181640625) (3.8172542572021484e-05, 5.18359375) (3.7703529357910155e-05, 5.185546875) (3.709149551391601e-05, 5.1875) (3.6332118988037106e-05, 5.189453125) (3.542166137695312e-05, 5.19140625) (3.435672760009765e-05, 5.193359375) (3.313448333740234e-05, 5.1953125) (3.175286102294922e-05, 5.197265625) (3.0210285186767577e-05, 5.19921875) (2.8505659103393553e-05, 5.201171875) (2.6638515472412108e-05, 5.203125) (2.4608829498291014e-05, 5.205078125) (2.241692352294922e-05, 5.20703125) (2.0063913345336913e-05, 5.208984375) (1.7551586151123046e-05, 5.2109375) (1.4882374763488769e-05, 5.212890625) (1.205957317352295e-05, 5.21484375) (9.087225914001464e-06, 5.216796875) (5.970239639282227e-06, 5.21875) (2.7145538330078126e-06, 5.220703125) (-6.730974912643433e-07, 5.22265625) (-4.1853814125061036e-06, 5.224609375) (-7.814287185668945e-06, 5.2265625) (-1.1551279067993164e-05, 5.228515625) (-1.5387319564819336e-05, 5.23046875) (-1.931279182434082e-05, 5.232421875) (-2.3317932128906248e-05, 5.234375) (-2.7392860412597654e-05, 5.236328125) (-3.152736282348633e-05, 5.23828125) (-3.571095275878906e-05, 5.240234375) (-3.993278121948242e-05, 5.2421875) (-4.418156814575195e-05, 5.244140625) (-4.844579696655273e-05, 5.24609375) (-5.2713745117187496e-05, 5.248046875) (-5.697341918945312e-05, 5.25) (-6.121263885498047e-05, 5.251953125) (-6.541928100585937e-05, 5.25390625) (-6.9581298828125e-05, 5.255859375) (-7.368695068359375e-05, 5.2578125) (-7.772493743896484e-05, 5.259765625) (-8.168436431884766e-05, 5.26171875) (-8.55548095703125e-05, 5.263671875) (-8.932640075683594e-05, 5.265625) (-9.298977661132812e-05, 5.267578125) (-9.653624725341796e-05, 5.26953125) (-9.995780944824218e-05, 5.271484375) (-0.00010324719238281249, 5.2734375) (-0.00010639801025390625, 5.275390625) (-0.00010940471649169921, 5.27734375) (-0.00011226274871826171, 5.279296875) (-0.00011496865081787109, 5.28125) (-0.00011752000427246094, 5.283203125) (-0.00011991542053222656, 5.28515625) (-0.00012215441131591795, 5.287109375) (-0.00012423731994628905, 5.2890625) (-0.00012616522216796875, 5.291015625) (-0.00012793988037109374, 5.29296875) (-0.00012956361389160155, 5.294921875) (-0.00013103921508789062, 5.296875) (-0.00013236990356445312, 5.298828125) (-0.00013355938720703125, 5.30078125) (-0.0001346117706298828, 5.302734375) (-0.00013553175354003906, 5.3046875) (-0.0001363244934082031, 5.306640625) (-0.00013699560546875, 5.30859375) (-0.0001375511016845703, 5.310546875) (-0.00013799734497070313, 5.3125) (-0.00013834089660644532, 5.314453125) (-0.00013858853149414062, 5.31640625) (-0.00013874700927734375, 5.318359375) (-0.00013882308959960936, 5.3203125) (-0.00013882330322265623, 5.322265625) (-0.00013875408935546874, 5.32421875) (-0.00013862162780761719, 5.326171875) (-0.00013843199157714844, 5.328125) (-0.00013819105529785155, 5.330078125) (-0.00013790435791015624, 5.33203125) (-0.00013757722473144531, 5.333984375) (-0.00013721453857421876, 5.3359375) (-0.00013682083129882812, 5.337890625) (-0.00013640005493164063, 5.33984375) (-0.00013595568847656249, 5.341796875) (-0.0001354905090332031, 5.34375) (-0.0001350066680908203, 5.345703125) (-0.0001345057373046875, 5.34765625) (-0.00013398883056640624, 5.349609375) (-0.00013345675659179687, 5.3515625) (-0.00013290989685058594, 5.353515625) (-0.00013234860229492188, 5.35546875) (-0.00013177304077148437, 5.357421875) (-0.00013118336486816405, 5.359375) (-0.00013057974243164063, 5.361328125) (-0.0001299623565673828, 5.36328125) (-0.00012933135986328124, 5.365234375) (-0.0001286867980957031, 5.3671875) (-0.00012802862548828123, 5.369140625) (-0.0001273568115234375, 5.37109375) (-0.00012667129516601562, 5.373046875) (-0.00012597203826904296, 5.375) (-0.0001252591094970703, 5.376953125) (-0.00012453268432617188, 5.37890625) (-0.00012379307556152343, 5.380859375) (-0.00012304087829589843, 5.3828125) (-0.00012227679443359374, 5.384765625) (-0.00012150177001953124, 5.38671875) (-0.00012071680450439453, 5.388671875) (-0.00011992292022705078, 5.390625) (-0.00011912118530273437, 5.392578125) (-0.00011831266784667968, 5.39453125) (-0.0001174984893798828, 5.396484375) (-0.00011667989349365234, 5.3984375) (-0.00011585816192626953, 5.400390625) (-0.00011503477478027344, 5.40234375) (-0.00011421143341064453, 5.404296875) (-0.00011339009857177734, 5.40625) (-0.00011257304382324218, 5.408203125) (-0.00011176272583007812, 5.41015625) (-0.00011096171569824218, 5.412109375) (-0.00011017265319824219, 5.4140625) (-0.0001093980712890625, 5.416015625) (-0.00010864044189453125, 5.41796875) (-0.00010790206909179687, 5.419921875) (-0.00010718507385253906, 5.421875) (-0.00010649130249023437, 5.423828125) (-0.00010582238769531249, 5.42578125) (-0.00010517979431152343, 5.427734375) (-0.00010456491088867187, 5.4296875) (-0.00010397897338867187, 5.431640625) (-0.00010342311096191406, 5.43359375) (-0.00010289828491210937, 5.435546875) (-0.0001024052734375, 5.4375) (-0.00010194462585449219, 5.439453125) (-0.00010151673126220703, 5.44140625) (-0.0001011217803955078, 5.443359375) (-0.00010075979614257812, 5.4453125) (-0.00010043064880371094, 5.447265625) (-0.0001001341094970703, 5.44921875) (-9.98699951171875e-05, 5.451171875) (-9.963820648193359e-05, 5.453125) (-9.943881225585937e-05, 5.455078125) (-9.927207183837891e-05, 5.45703125) (-9.913833618164062e-05, 5.458984375) (-9.903801727294922e-05, 5.4609375) (-9.897158813476562e-05, 5.462890625) (-9.893949890136718e-05, 5.46484375) (-9.894215393066406e-05, 5.466796875) (-9.897976684570312e-05, 5.46875) (-9.90523223876953e-05, 5.470703125) (-9.915953063964844e-05, 5.47265625) (-9.930091094970703e-05, 5.474609375) (-9.947595214843749e-05, 5.4765625) (-9.968397521972656e-05, 5.478515625) (-9.992413330078125e-05, 5.48046875) (-0.00010019551849365234, 5.482421875) (-0.00010049703216552735, 5.484375) (-0.00010082744598388672, 5.486328125) (-0.00010118547821044921, 5.48828125) (-0.00010156957244873047, 5.490234375) (-0.00010197789001464844, 5.4921875) (-0.00010240832519531249, 5.494140625) (-0.00010285833740234375, 5.49609375) (-0.00010332526397705078, 5.498046875) (-0.00010380625915527343, 5.5) (-0.00010429829406738281, 5.501953125) (-0.00010479820251464844, 5.50390625) (-0.00010530267333984375, 5.505859375) (-0.00010580809020996093, 5.5078125) (-0.00010631071472167968, 5.509765625) (-0.00010680673217773437, 5.51171875) (-0.00010729202270507812, 5.513671875) (-0.00010776213073730468, 5.515625) (-0.00010821224975585937, 5.517578125) (-0.0001086371612548828, 5.51953125) (-0.00010903144073486327, 5.521484375) (-0.00010938975524902343, 5.5234375) (-0.00010970674133300781, 5.525390625) (-0.00010997703552246093, 5.52734375) (-0.00011019552612304687, 5.529296875) (-0.00011035745239257812, 5.53125) (-0.00011045860290527343, 5.533203125) (-0.00011049559783935546, 5.53515625) (-0.00011046568298339843, 5.537109375) (-0.00011036662292480468, 5.5390625) (-0.00011019699096679688, 5.541015625) (-0.00010995608520507812, 5.54296875) (-0.00010964397430419922, 5.544921875) (-0.00010926181030273437, 5.546875) (-0.00010881158447265624, 5.548828125) (-0.0001082959747314453, 5.55078125) (-0.00010771882629394531, 5.552734375) (-0.0001070849380493164, 5.5546875) (-0.00010640025329589843, 5.556640625) (-0.00010567214965820312, 5.55859375) (-0.00010490904998779297, 5.560546875) (-0.00010412004089355468, 5.5625) (-0.00010331510162353516, 5.564453125) (-0.00010250489044189453, 5.56640625) (-0.00010170082092285155, 5.568359375) (-0.00010091543579101562, 5.5703125) (-0.00010016188049316406, 5.572265625) (-9.945339965820312e-05, 5.57421875) (-9.88038558959961e-05, 5.576171875) (-9.822772979736328e-05, 5.578125) (-9.774000549316405e-05, 5.580078125) (-9.73564224243164e-05, 5.58203125) (-9.709296417236327e-05, 5.583984375) (-9.696513366699218e-05, 5.5859375) (-9.698834991455077e-05, 5.587890625) (-9.717816925048828e-05, 5.58984375) (-9.754940032958984e-05, 5.591796875) (-9.811636352539062e-05, 5.59375) (-9.889251708984375e-05, 5.595703125) (-9.988970184326171e-05, 5.59765625) (-0.00010111859130859374, 5.599609375) (-0.00010258881378173827, 5.6015625) (-0.00010430839538574218, 5.603515625) (-0.00010628382873535156, 5.60546875) (-0.0001085207061767578, 5.607421875) (-0.00011102315521240234, 5.609375) (-0.00011379434204101562, 5.611328125) (-0.0001168369140625, 5.61328125) (-0.00012015158081054687, 5.615234375) (-0.00012373741912841796, 5.6171875) (-0.00012759198760986328, 5.619140625) (-0.00013171034240722657, 5.62109375) (-0.00013608522033691406, 5.623046875) (-0.0001407073516845703, 5.625) (-0.0001455640869140625, 5.626953125) (-0.00015063897705078124, 5.62890625) (-0.00015591461181640624, 5.630859375) (-0.00016137167358398438, 5.6328125) (-0.00016699021911621093, 5.634765625) (-0.000172751708984375, 5.63671875) (-0.0001786351318359375, 5.638671875) (-0.00018461614990234373, 5.640625) (-0.00019066970825195313, 5.642578125) (-0.00019676953125, 5.64453125) (-0.00020288792419433593, 5.646484375) (-0.00020899790954589844, 5.6484375) (-0.00021506861877441404, 5.650390625) (-0.0002210624542236328, 5.65234375) (-0.00022694488525390623, 5.654296875) (-0.00023268621826171874, 5.65625) (-0.00023826361083984375, 5.658203125) (-0.00024366470336914062, 5.66015625) (-0.0002488740539550781, 5.662109375) (-0.00025386822509765626, 5.6640625) (-0.000258621337890625, 5.666015625) (-0.00026310470581054684, 5.66796875) (-0.000267287109375, 5.669921875) (-0.00027113671875, 5.671875) (-0.0002746109619140625, 5.673828125) (-0.0002776505126953125, 5.67578125) (-0.0002801962890625, 5.677734375) (-0.00028219403076171874, 5.6796875) (-0.00028359896850585936, 5.681640625) (-0.000284385009765625, 5.68359375) (-0.00028452191162109375, 5.685546875) (-0.0002839621276855469, 5.6875) (-0.0002826477966308594, 5.689453125) (-0.00028051327514648435, 5.69140625) (-0.00027750787353515624, 5.693359375) (-0.00027361370849609374, 5.6953125) (-0.0002688310546875, 5.697265625) (-0.0002631654663085937, 5.69921875) (-0.00025663778686523436, 5.701171875) (-0.00024929667663574215, 5.703125) (-0.00024122190856933594, 5.705078125) (-0.00023253503417968748, 5.70703125) (-0.0002233833770751953, 5.708984375) (-0.00021390350341796873, 5.7109375) (-0.00020422911071777344, 5.712890625) (-0.0001944951629638672, 5.71484375) (-0.00018483488464355469, 5.716796875) (-0.00017539646911621094, 5.71875) (-0.00016637734985351562, 5.720703125) (-0.0001580155029296875, 5.72265625) (-0.00015044093322753906, 5.724609375) (-0.00014362652587890625, 5.7265625) (-0.00013739764404296874, 5.728515625) (-0.00013143736267089842, 5.73046875) (-0.00012545144653320313, 5.732421875) (-0.00011922681427001952, 5.734375) (-0.00011245049285888671, 5.736328125) (-0.00010461581420898437, 5.73828125) (-9.538297271728515e-05, 5.740234375) (-8.48082275390625e-05, 5.7421875) (-7.333352661132812e-05, 5.744140625) (-6.18376350402832e-05, 5.74609375) (-5.1129646301269526e-05, 5.748046875) (-4.14855842590332e-05, 5.75) (-3.3022705078125e-05, 5.751953125) (-2.6027774810791014e-05, 5.75390625) (-2.0491786956787107e-05, 5.755859375) (-1.579709243774414e-05, 5.7578125) (-1.0647994995117187e-05, 5.759765625) (-2.7778453826904297e-06, 5.76171875) (1.031100845336914e-05, 5.763671875) (3.0311576843261717e-05, 5.765625) (5.846303176879883e-05, 5.767578125) (9.601066589355468e-05, 5.76953125) (0.00014399234008789062, 5.771484375) (0.0002029748840332031, 5.7734375) (0.00027240203857421873, 5.775390625) (0.0003502340698242187, 5.77734375) (0.0004325505981445312, 5.779296875) (0.0005145369873046874, 5.78125) (0.000593328125, 5.783203125) (0.000666422607421875, 5.78515625) (0.0007321768798828125, 5.787109375) (0.0007913177490234375, 5.7890625) (0.0008395955200195312, 5.791015625) (0.0008706412963867187, 5.79296875) (0.0008802257080078124, 5.794921875) (0.0008614866333007812, 5.796875) (0.000814396484375, 5.798828125) (0.0007448709106445313, 5.80078125) (0.0006565482788085937, 5.802734375) (0.0005582250976562499, 5.8046875) (0.00045885580444335935, 5.806640625) (0.00036566827392578124, 5.80859375) (0.00028894894409179684, 5.810546875) (0.0002335366516113281, 5.8125) (0.0001976885070800781, 5.814453125) (0.0001755794982910156, 5.81640625) (0.00015900753784179686, 5.818359375) (0.000143065673828125, 5.8203125) (0.00012795085906982422, 5.822265625) (0.00011721818542480468, 5.82421875) (0.00011310575866699218, 5.826171875) (0.00011493450927734375, 5.828125) (0.00012006237030029297, 5.830078125) (0.0001246880645751953, 5.83203125) (0.00012699827575683592, 5.833984375) (0.00012727865600585937, 5.8359375) (0.0001260199508666992, 5.837890625) (0.00012380906677246094, 5.83984375) (0.00012117930603027343, 5.841796875) (0.00011838667297363281, 5.84375) (0.00011604896545410156, 5.845703125) (0.0001150778579711914, 5.84765625) (0.0001156990509033203, 5.849609375) (0.0001176035919189453, 5.8515625) (0.0001203796157836914, 5.853515625) (0.0001235247802734375, 5.85546875) (0.00012665802001953123, 5.857421875) (0.00012956677246093749, 5.859375) (0.00013190959167480468, 5.861328125) (0.00013323548889160157, 5.86328125) (0.00013335223388671874, 5.865234375) (0.0001322735595703125, 5.8671875) (0.00013013682556152343, 5.869140625) (0.00012721502685546874, 5.87109375) (0.00012372611999511717, 5.873046875) (0.00011980880737304687, 5.875) (0.00011562121582031249, 5.876953125) (0.00011134452056884765, 5.87890625) (0.00010715489196777343, 5.880859375) (0.0001032497329711914, 5.8828125) (9.98031005859375e-05, 5.884765625) (9.690126037597656e-05, 5.88671875) (9.459601593017577e-05, 5.888671875) (9.291954040527344e-05, 5.890625) (9.188629913330078e-05, 5.892578125) (9.151670837402343e-05, 5.89453125) (9.180570983886719e-05, 5.896484375) (9.269980621337891e-05, 5.8984375) (9.411900329589844e-05, 5.900390625) (9.598213195800781e-05, 5.90234375) (9.821316528320312e-05, 5.904296875) (0.00010074955749511719, 5.90625) (0.00010353485107421875, 5.908203125) (0.00010649506378173828, 5.91015625) (0.00010954562377929687, 5.912109375) (0.00011259635925292968, 5.9140625) (0.0001155577392578125, 5.916015625) (0.00011836527252197265, 5.91796875) (0.00012097422790527343, 5.919921875) (0.0001233471221923828, 5.921875) (0.00012545305633544922, 5.923828125) (0.0001272655792236328, 5.92578125) (0.00012876751708984374, 5.927734375) (0.00012995938110351563, 5.9296875) (0.00013085264587402344, 5.931640625) (0.00013145394897460936, 5.93359375) (0.00013176499938964844, 5.935546875) (0.00013178466796875, 5.9375) (0.0001315114288330078, 5.939453125) (0.00013095193481445311, 5.94140625) (0.00013011741638183593, 5.943359375) (0.0001290186767578125, 5.9453125) (0.0001276677474975586, 5.947265625) (0.00012607564544677734, 5.94921875) (0.00012425312042236327, 5.951171875) (0.00012221347045898438, 5.953125) (0.000119970947265625, 5.955078125) (0.00011753874206542968, 5.95703125) (0.00011493009948730468, 5.958984375) (0.00011215788269042968, 5.9609375) (0.00010923452758789062, 5.962890625) (0.00010617588806152343, 5.96484375) (0.00010300087738037108, 5.966796875) (9.97296142578125e-05, 5.96875) (9.638387298583984e-05, 5.970703125) (9.29859619140625e-05, 5.97265625) (8.95582275390625e-05, 5.974609375) (8.612406158447265e-05, 5.9765625) (8.270748901367187e-05, 5.978515625) (7.933149719238281e-05, 5.98046875) (7.601820373535156e-05, 5.982421875) (7.278909301757812e-05, 5.984375) (6.966473388671875e-05, 5.986328125) (6.666543579101562e-05, 5.98828125) (6.381092071533203e-05, 5.990234375) (6.111967468261718e-05, 5.9921875) (5.860917282104492e-05, 5.994140625) (5.6296058654785155e-05, 5.99609375) (5.419577789306641e-05, 5.998046875) (5.232246398925781e-05, 6.0) (5.0688549041748047e-05, 6.001953125) (4.930450820922851e-05, 6.00390625) (4.817917251586914e-05, 6.005859375) (4.731992721557617e-05, 6.0078125) (4.6732349395751954e-05, 6.009765625) (4.642005920410156e-05, 6.01171875) (4.6384727478027344e-05, 6.013671875) (4.6625968933105464e-05, 6.015625) (4.714163589477539e-05, 6.017578125) (4.792800521850586e-05, 6.01953125) (4.897956085205078e-05, 6.021484375) (5.028892135620117e-05, 6.0234375) (5.184697723388672e-05, 6.025390625) (5.364282608032226e-05, 6.02734375) (5.566385269165039e-05, 6.029296875) (5.789603042602539e-05, 6.03125) (6.032386016845703e-05, 6.033203125) (6.293033981323243e-05, 6.03515625) (6.569715118408202e-05, 6.037109375) (6.860463714599609e-05, 6.0390625) (7.163195037841796e-05, 6.041015625) (7.475756072998046e-05, 6.04296875) (7.795928955078125e-05, 6.044921875) (8.121425628662109e-05, 6.046875) (8.449906921386719e-05, 6.048828125) (8.778972625732421e-05, 6.05078125) (9.10618896484375e-05, 6.052734375) (9.429107666015625e-05, 6.0546875) (9.74528350830078e-05, 6.056640625) (0.00010052261352539062, 6.05859375) (0.00010347601318359374, 6.060546875) (0.00010628890228271483, 6.0625) (0.00010893758392333983, 6.064453125) (0.0001113991470336914, 6.06640625) (0.00011365151977539062, 6.068359375) (0.00011567353820800781, 6.0703125) (0.00011744508361816405, 6.072265625) (0.00011894727325439452, 6.07421875) (0.00012016246795654296, 6.076171875) (0.00012107453918457031, 6.078125) (0.00012166896057128906, 6.080078125) (0.00012193276977539062, 6.08203125) (0.00012185472106933593, 6.083984375) (0.00012142534637451171, 6.0859375) (0.00012063706970214844, 6.087890625) (0.00011948426055908202, 6.08984375) (0.00011796337890625, 6.091796875) (0.00011607289123535156, 6.09375) (0.00011381335449218749, 6.095703125) (0.00011118734741210937, 6.09765625) (0.00010819955444335937, 6.099609375) (0.00010485678100585936, 6.1015625) (0.00010116798400878906, 6.103515625) (9.714404296875e-05, 6.10546875) (9.279787445068359e-05, 6.107421875) (8.814422607421874e-05, 6.109375) (8.319974517822265e-05, 6.111328125) (7.798290252685547e-05, 6.11328125) (7.251390075683593e-05, 6.115234375) (6.681455993652343e-05, 6.1171875) (6.090817260742187e-05, 6.119140625) (5.481942749023437e-05, 6.12109375) (4.857428741455078e-05, 6.123046875) (4.219990921020508e-05, 6.125) (3.5724472045898435e-05, 6.126953125) (2.9177001953124998e-05, 6.12890625) (2.2587158203125e-05, 6.130859375) (1.5985095977783203e-05, 6.1328125) (9.401288986206054e-06, 6.134765625) (2.8663675785064695e-06, 6.13671875) (-3.58908200263977e-06, 6.138671875) (-9.934749603271484e-06, 6.140625) (-1.614080810546875e-05, 6.142578125) (-2.2178096771240232e-05, 6.14453125) (-2.8018268585205077e-05, 6.146484375) (-3.363396072387695e-05, 6.1484375) (-3.8998989105224606e-05, 6.150390625) (-4.408853530883789e-05, 6.15234375) (-4.8879352569580075e-05, 6.154296875) (-5.334990310668945e-05, 6.15625) (-5.748046493530273e-05, 6.158203125) (-6.125325775146484e-05, 6.16015625) (-6.465263366699219e-05, 6.162109375) (-6.766510009765625e-05, 6.1640625) (-7.0279541015625e-05, 6.166015625) (-7.248719787597656e-05, 6.16796875) (-7.42817153930664e-05, 6.169921875) (-7.565921020507812e-05, 6.171875) (-7.661820983886718e-05, 6.173828125) (-7.715982055664062e-05, 6.17578125) (-7.728767395019531e-05, 6.177734375) (-7.700791931152343e-05, 6.1796875) (-7.632920837402343e-05, 6.181640625) (-7.526267242431641e-05, 6.18359375) (-7.382186889648437e-05, 6.185546875) (-7.20228042602539e-05, 6.1875) (-6.988385772705078e-05, 6.189453125) (-6.742566680908203e-05, 6.19140625) (-6.467098999023438e-05, 6.193359375) (-6.164453887939453e-05, 6.1953125) (-5.837288665771484e-05, 6.197265625) (-5.4884288787841797e-05, 6.19921875) (-5.120849609375e-05, 6.201171875) (-4.737652206420898e-05, 6.203125) (-4.3420440673828124e-05, 6.205078125) (-3.9373138427734374e-05, 6.20703125) (-3.5268157958984375e-05, 6.208984375) (-3.113945388793945e-05, 6.2109375) (-2.7021179199218748e-05, 6.212890625) (-2.2947393417358396e-05, 6.21484375) (-1.8951799392700193e-05, 6.216796875) (-1.5067499160766601e-05, 6.21875) (-1.1326787948608397e-05, 6.220703125) (-7.760941505432128e-06, 6.22265625) (-4.399993419647216e-06, 6.224609375) (-1.2725181579589842e-06, 6.2265625) (1.5945570468902587e-06, 6.228515625) (4.176095962524414e-06, 6.23046875) (6.4488520622253414e-06, 6.232421875) (8.391569137573241e-06, 6.234375) (9.985099792480469e-06, 6.236328125) (1.1212546348571777e-05, 6.23828125) (1.205937671661377e-05, 6.240234375) (1.251350688934326e-05, 6.2421875) (1.2565370559692383e-05, 6.244140625) (1.2207979202270507e-05, 6.24609375) (1.1437006950378418e-05, 6.248046875) (1.0250872611999511e-05, 6.25) (8.650774002075194e-06, 6.251953125) (6.640674591064453e-06, 6.25390625) (4.227238655090332e-06, 6.255859375) (1.4197794198989867e-06, 6.2578125) (-1.7697958946228027e-06, 6.259765625) (-5.327052116394043e-06, 6.26171875) (-9.235125541687012e-06, 6.263671875) (-1.3474868774414063e-05, 6.265625) (-1.802501678466797e-05, 6.267578125) (-2.2862358093261717e-05, 6.26953125) (-2.7961885452270508e-05, 6.271484375) (-3.329698181152343e-05, 6.2734375) (-3.883961486816406e-05, 6.275390625) (-4.4560600280761716e-05, 6.27734375) (-5.042988586425781e-05, 6.279296875) (-5.641679382324218e-05, 6.28125) (-6.249024200439453e-05, 6.283203125) (-6.861897277832031e-05, 6.28515625) (-7.4771728515625e-05, 6.287109375) (-8.091751861572266e-05, 6.2890625) (-8.702578735351563e-05, 6.291015625) (-9.306661987304687e-05, 6.29296875) (-9.90108413696289e-05, 6.294921875) (-0.00010483010864257813, 6.296875) (-0.0001104970474243164, 6.298828125) (-0.00011598541259765624, 6.30078125) (-0.00012127027130126953, 6.302734375) (-0.00012632813262939451, 6.3046875) (-0.00013113699340820312, 6.306640625) (-0.00013567649841308594, 6.30859375) (-0.0001399280090332031, 6.310546875) (-0.00014387475585937498, 6.3125) (-0.00014750195312499998, 6.314453125) (-0.00015079681396484374, 6.31640625) (-0.00015374859619140624, 6.318359375) (-0.0001563485870361328, 6.3203125) (-0.00015859019470214843, 6.322265625) (-0.00016046884155273435, 6.32421875) (-0.00016198207092285154, 6.326171875) (-0.00016312945556640624, 6.328125) (-0.0001639126434326172, 6.330078125) (-0.0001643350372314453, 6.33203125) (-0.00016440194702148437, 6.333984375) (-0.00016412033081054686, 6.3359375) (-0.00016349877929687498, 6.337890625) (-0.00016254745483398436, 6.33984375) (-0.00016127761840820313, 6.341796875) (-0.0001597017364501953, 6.34375) (-0.00015783314514160156, 6.345703125) (-0.00015568597412109374, 6.34765625) (-0.0001532750701904297, 6.349609375) (-0.00015061585998535156, 6.3515625) (-0.00014772409057617187, 6.353515625) (-0.00014461570739746093, 6.35546875) (-0.0001413068389892578, 6.357421875) (-0.00013781369018554687, 6.359375) (-0.00013415255737304687, 6.361328125) (-0.0001303396759033203, 6.36328125) (-0.00012639108276367187, 6.365234375) (-0.0001223226089477539, 6.3671875) (-0.00011814970397949218, 6.369140625) (-0.00011388741302490234, 6.37109375) 