(6.293622589111328e-05, 0.0) (6.995698547363281e-05, 0.001953125) (7.68819580078125e-05, 0.00390625) (8.363069152832031e-05, 0.005859375) (9.014250946044922e-05, 0.0078125) (9.636067199707031e-05, 0.009765625) (0.00010225810241699219, 0.01171875) (0.00010782374572753906, 0.013671875) (0.00011304238128662108, 0.015625) (0.00011793004608154296, 0.017578125) (0.00012251703643798828, 0.01953125) (0.00012684586334228516, 0.021484375) (0.00013099528503417968, 0.0234375) (0.00013502450561523436, 0.025390625) (0.00013897592163085936, 0.02734375) (0.00014290005493164062, 0.029296875) (0.0001468236389160156, 0.03125) (0.0001507588653564453, 0.033203125) (0.0001547156982421875, 0.03515625) (0.00015867921447753906, 0.037109375) (0.000162614990234375, 0.0390625) (0.00016649319458007813, 0.041015625) (0.000170275390625, 0.04296875) (0.00017391622924804688, 0.044921875) (0.0001773802490234375, 0.046875) (0.00018061968994140625, 0.048828125) (0.00018357865905761718, 0.05078125) (0.0001861998596191406, 0.052734375) (0.00018841439819335936, 0.0546875) (0.00019016397094726562, 0.056640625) (0.00019140464782714842, 0.05859375) (0.00019209510803222657, 0.060546875) (0.00019220294189453124, 0.0625) (0.00019170355224609373, 0.064453125) (0.0001905751953125, 0.06640625) (0.00018880706787109374, 0.068359375) (0.0001864002685546875, 0.0703125) (0.00018335307312011717, 0.072265625) (0.00017966387939453125, 0.07421875) (0.00017533378601074218, 0.076171875) (0.00017036068725585936, 0.078125) (0.00016474740600585936, 0.080078125) (0.0001585023498535156, 0.08203125) (0.00015163485717773436, 0.083984375) (0.00014415737915039062, 0.0859375) (0.0001360834503173828, 0.087890625) (0.0001274256591796875, 0.08984375) (0.00011819818878173827, 0.091796875) (0.00010841777801513672, 0.09375) (9.810192108154296e-05, 0.095703125) (8.726966094970703e-05, 0.09765625) (7.594086456298828e-05, 0.099609375) (6.413534545898437e-05, 0.1015625) (5.1876682281494136e-05, 0.103515625) (3.9192413330078124e-05, 0.10546875) (2.6112541198730467e-05, 0.107421875) (1.2669792175292969e-05, 0.109375) (-1.1015701293945311e-06, 0.111328125) (-1.5166276931762695e-05, 0.11328125) (-2.948700714111328e-05, 0.115234375) (-4.402452850341797e-05, 0.1171875) (-5.873930740356445e-05, 0.119140625) (-7.359157562255859e-05, 0.12109375) (-8.854129791259766e-05, 0.123046875) (-0.00010354855346679687, 0.125) (-0.00011857295227050781, 0.126953125) (-0.00013357371520996092, 0.12890625) (-0.00014851022338867187, 0.130859375) (-0.00016334217834472654, 0.1328125) (-0.000178029541015625, 0.134765625) (-0.00019253271484374998, 0.13671875) (-0.00020681268310546874, 0.138671875) (-0.00022083079528808594, 0.140625) (-0.00023454924011230468, 0.142578125) (-0.00024793116760253906, 0.14453125) (-0.00026094064331054685, 0.146484375) (-0.00027354296874999997, 0.1484375) (-0.00028570465087890623, 0.150390625) (-0.0002973935546875, 0.15234375) (-0.00030857910156249996, 0.154296875) (-0.00031923239135742186, 0.15625) (-0.00032932656860351563, 0.158203125) (-0.0003388367919921875, 0.16015625) (-0.00034774017333984375, 0.162109375) (-0.00035601589965820313, 0.1640625) (-0.00036364547729492185, 0.166015625) (-0.0003706125793457031, 0.16796875) (-0.00037690338134765625, 0.169921875) (-0.0003825061645507812, 0.171875) (-0.00038741156005859373, 0.173828125) (-0.00039161260986328124, 0.17578125) (-0.00039510452270507813, 0.177734375) (-0.00039788494873046874, 0.1796875) (-0.0003999536437988281, 0.181640625) (-0.00040131222534179684, 0.18359375) (-0.00040196417236328124, 0.185546875) (-0.00040191500854492185, 0.1875) (-0.0004011717529296875, 0.189453125) (-0.00039974328613281247, 0.19140625) (-0.00039764001464843746, 0.193359375) (-0.0003948739013671875, 0.1953125) (-0.00039145855712890623, 0.197265625) (-0.0003874091796875, 0.19921875) (-0.0003827425537109375, 0.201171875) (-0.0003774769592285156, 0.203125) (-0.00037163204956054685, 0.205078125) (-0.00036522900390625, 0.20703125) (-0.0003582900695800781, 0.208984375) (-0.0003508388671875, 0.2109375) (-0.00034289990234375, 0.212890625) (-0.00033449871826171873, 0.21484375) (-0.00032566168212890624, 0.216796875) (-0.0003164158935546875, 0.21875) (-0.00030678912353515625, 0.220703125) (-0.00029680966186523437, 0.22265625) (-0.00028650640869140625, 0.224609375) (-0.0002759085998535156, 0.2265625) (-0.0002650458984375, 0.228515625) (-0.00025394810485839843, 0.23046875) (-0.00024264520263671873, 0.232421875) (-0.0002311671142578125, 0.234375) (-0.0002195435791015625, 0.236328125) (-0.00020780404663085938, 0.23828125) (-0.0001959776611328125, 0.240234375) (-0.0001840930938720703, 0.2421875) (-0.00017217855834960938, 0.244140625) (-0.00016026170349121093, 0.24609375) (-0.00014836959838867187, 0.248046875) (-0.00013652877807617187, 0.25) (-0.00012476509094238282, 0.251953125) (-0.00011310370635986328, 0.25390625) (-0.00010156895446777343, 0.255859375) (-9.018425750732421e-05, 0.2578125) (-7.89719009399414e-05, 0.259765625) (-6.795297241210937e-05, 0.26171875) (-5.7147228240966796e-05, 0.263671875) (-4.6572994232177734e-05, 0.265625) (-3.624704360961914e-05, 0.267578125) (-2.6184555053710935e-05, 0.26953125) (-1.6399038314819335e-05, 0.271484375) (-6.902349948883057e-06, 0.2734375) (2.2953200340270994e-06, 0.275390625) (1.1185464859008788e-05, 0.27734375) (1.9761304855346678e-05, 0.279296875) (2.8017818450927734e-05, 0.28125) (3.59517707824707e-05, 0.283203125) (4.356171417236328e-05, 0.28515625) (5.084798431396484e-05, 0.287109375) (5.781265640258789e-05, 0.2890625) (6.445951843261719e-05, 0.291015625) (7.079400634765625e-05, 0.29296875) (7.682308197021484e-05, 0.294921875) (8.255509185791015e-05, 0.296875) (8.799966430664062e-05, 0.298828125) (9.316757202148438e-05, 0.30078125) (9.807064819335937e-05, 0.302734375) (0.00010272171020507812, 0.3046875) (0.00010713447570800781, 0.306640625) (0.00011132344818115234, 0.30859375) (0.00011530389404296874, 0.310546875) (0.00011909166717529296, 0.3125) (0.00012270320129394532, 0.314453125) (0.0001261553497314453, 0.31640625) (0.0001294651641845703, 0.318359375) (0.00013264979553222656, 0.3203125) (0.00013572615051269532, 0.322265625) (0.00013871081542968748, 0.32421875) (0.000141619873046875, 0.326171875) (0.00014446868896484375, 0.328125) (0.00014727177429199218, 0.330078125) (0.00015004269409179687, 0.33203125) (0.0001527938232421875, 0.333984375) (0.00015553634643554687, 0.3359375) (0.0001582801055908203, 0.337890625) (0.00016103359985351562, 0.33984375) (0.0001638037872314453, 0.341796875) (0.00016659605407714844, 0.34375) (0.00016941407775878905, 0.345703125) (0.0001722598419189453, 0.34765625) (0.00017513360595703125, 0.349609375) (0.00017803387451171873, 0.3515625) (0.00018095751953124998, 0.353515625) (0.00018389971923828125, 0.35546875) (0.00018685404968261718, 0.357421875) (0.00018981271362304686, 0.359375) (0.00019276651000976562, 0.361328125) (0.00019570492553710938, 0.36328125) (0.00019861639404296873, 0.365234375) (0.0002014881134033203, 0.3671875) (0.00020430627441406248, 0.369140625) (0.0002070561828613281, 0.37109375) (0.00020972227478027343, 0.373046875) (0.0002122882385253906, 0.375) (0.00021473716735839843, 0.376953125) (0.0002170515899658203, 0.37890625) (0.00021921383666992188, 0.380859375) (0.0002212059631347656, 0.3828125) (0.0002230101623535156, 0.384765625) (0.00022460884094238282, 0.38671875) (0.00022598475646972655, 0.388671875) (0.00022712123107910154, 0.390625) (0.00022800242614746092, 0.392578125) (0.0002286132354736328, 0.39453125) (0.00022893975830078124, 0.396484375) (0.00022896917724609373, 0.3984375) (0.00022869004821777342, 0.400390625) (0.00022809242248535155, 0.40234375) (0.00022716781616210937, 0.404296875) (0.00022590943908691404, 0.40625) (0.00022431234741210936, 0.408203125) (0.00022237333679199218, 0.41015625) (0.00022009109497070313, 0.412109375) (0.0002174660949707031, 0.4140625) (0.000214500732421875, 0.416015625) (0.00021119923400878907, 0.41796875) (0.00020756759643554687, 0.419921875) (0.000203613525390625, 0.421875) (0.00019934646606445313, 0.423828125) (0.00019477746582031248, 0.42578125) (0.00018991912841796873, 0.427734375) (0.00018478555297851563, 0.4296875) (0.00017939230346679686, 0.431640625) (0.00017375634765625, 0.43359375) (0.00016789591979980467, 0.435546875) (0.00016183047485351563, 0.4375) (0.00015558070373535157, 0.439453125) (0.00014916822814941405, 0.44140625) (0.00014261563110351563, 0.443359375) (0.0001359464111328125, 0.4453125) (0.00012918463134765624, 0.447265625) (0.00012235502624511718, 0.44921875) (0.00011548270416259765, 0.451171875) (0.00010859302520751953, 0.453125) (0.00010171150970458984, 0.455078125) (9.486357879638672e-05, 0.45703125) (8.807448577880859e-05, 0.458984375) (8.136913299560547e-05, 0.4609375) (7.477189636230469e-05, 0.462890625) (6.83064956665039e-05, 0.46484375) (6.199590301513671e-05, 0.466796875) (5.5862167358398436e-05, 0.46875) (4.9926315307617184e-05, 0.470703125) (4.420827865600586e-05, 0.47265625) (3.872679138183593e-05, 0.474609375) (3.349933624267578e-05, 0.4765625) (2.854205894470215e-05, 0.478515625) (2.386973762512207e-05, 0.48046875) (1.9495718002319335e-05, 0.482421875) (1.5431903839111328e-05, 0.484375) (1.1688734054565429e-05, 0.486328125) (8.275161743164062e-06, 0.48828125) (5.198634147644042e-06, 0.490234375) (2.4650852680206297e-06, 0.4921875) (7.892519235610961e-08, 0.494140625) (-1.9569664001464843e-06, 0.49609375) (-3.641242742538452e-06, 0.498046875) (-4.974131107330322e-06, 0.5) (-5.957449913024902e-06, 0.501953125) (-6.594612121582031e-06, 0.50390625) (-6.8906345367431635e-06, 0.505859375) (-6.852128028869629e-06, 0.5078125) (-6.48726749420166e-06, 0.509765625) (-5.80577564239502e-06, 0.51171875) (-4.818874359130859e-06, 0.513671875) (-3.539200782775879e-06, 0.515625) (-1.980724811553955e-06, 0.517578125) (-1.5865355730056762e-07, 0.51953125) (1.910669684410095e-06, 0.521484375) (4.209844589233398e-06, 0.5234375) (6.720510959625244e-06, 0.525390625) (9.423465728759765e-06, 0.52734375) (1.229876708984375e-05, 0.529296875) (1.5325851440429686e-05, 0.53125) (1.8483648300170897e-05, 0.533203125) (2.1750667572021483e-05, 0.53515625) (2.5105102539062498e-05, 0.537109375) (2.8524990081787107e-05, 0.5390625) (3.198832321166992e-05, 0.541015625) (3.547315216064453e-05, 0.54296875) (3.895769882202148e-05, 0.544921875) (4.24203872680664e-05, 0.546875) (4.583988189697266e-05, 0.548828125) (4.919526290893555e-05, 0.55078125) (5.246607208251953e-05, 0.552734375) (5.563235092163086e-05, 0.5546875) (5.867475891113281e-05, 0.556640625) (6.15746078491211e-05, 0.55859375) (6.431396484375e-05, 0.560546875) (6.687586212158202e-05, 0.5625) (6.924446105957031e-05, 0.564453125) (7.14051055908203e-05, 0.56640625) (7.3344482421875e-05, 0.568359375) (7.505062866210937e-05, 0.5703125) (7.651307678222656e-05, 0.572265625) (7.772290802001952e-05, 0.57421875) (7.86728515625e-05, 0.576171875) (7.935731506347656e-05, 0.578125) (7.977237701416015e-05, 0.580078125) (7.991575622558593e-05, 0.58203125) (7.978686523437499e-05, 0.583984375) (7.93868637084961e-05, 0.5859375) (7.871873474121093e-05, 0.587890625) (7.778713989257812e-05, 0.58984375) (7.659849548339844e-05, 0.591796875) (7.516078186035156e-05, 0.59375) (7.348342132568358e-05, 0.595703125) (7.157739257812499e-05, 0.59765625) (6.945503997802734e-05, 0.599609375) (6.712998199462891e-05, 0.6015625) (6.461688995361328e-05, 0.603515625) (6.19315185546875e-05, 0.60546875) (5.9090423583984374e-05, 0.607421875) (5.611124038696289e-05, 0.609375) (5.3012680053710935e-05, 0.611328125) (4.9814247131347654e-05, 0.61328125) (4.653620910644531e-05, 0.615234375) (4.319957733154297e-05, 0.6171875) (3.9825946807861326e-05, 0.619140625) (3.64376106262207e-05, 0.62109375) (3.305746078491211e-05, 0.623046875) (2.9708417892456053e-05, 0.625) (2.6413223266601563e-05, 0.626953125) (2.3194366455078124e-05, 0.62890625) (2.0073856353759764e-05, 0.630859375) (1.707327651977539e-05, 0.6328125) (1.4213699340820311e-05, 0.634765625) (1.1515273094177246e-05, 0.63671875) (8.997160911560058e-06, 0.638671875) (6.677503108978271e-06, 0.640625) (4.5732774734497066e-06, 0.642578125) (2.7003095149993894e-06, 0.64453125) (1.073177933692932e-06, 0.646484375) (-2.9521220922470093e-07, 0.6484375) (-1.393751859664917e-06, 0.650390625) (-2.213099241256714e-06, 0.65234375) (-2.7458324432373044e-06, 0.654296875) (-2.986205816268921e-06, 0.65625) (-2.9300484657287595e-06, 0.658203125) (-2.575045347213745e-06, 0.66015625) (-1.9208165407180787e-06, 0.662109375) (-9.685346484184265e-07, 0.6640625) (2.7913376688957215e-07, 0.666015625) (1.8179476261138916e-06, 0.66796875) (3.6422700881958007e-06, 0.669921875) (5.744379997253418e-06, 0.671875) (8.114060401916503e-06, 0.673828125) (1.0739282608032226e-05, 0.67578125) (1.360624885559082e-05, 0.677734375) (1.6698707580566407e-05, 0.6796875) (1.999808692932129e-05, 0.681640625) (2.348306083679199e-05, 0.68359375) (2.7129295349121093e-05, 0.685546875) (3.091126632690429e-05, 0.6875) (3.4802845001220705e-05, 0.689453125) (3.877633285522461e-05, 0.69140625) (4.280268096923828e-05, 0.693359375) (4.6851982116699214e-05, 0.6953125) (5.08931655883789e-05, 0.697265625) (5.489572143554687e-05, 0.69921875) (5.8830181121826166e-05, 0.701171875) (6.266571807861328e-05, 0.703125) (6.637022399902343e-05, 0.705078125) (6.991077423095703e-05, 0.70703125) (7.325320434570312e-05, 0.708984375) (7.636446380615234e-05, 0.7109375) (7.921349334716797e-05, 0.712890625) (8.176911926269531e-05, 0.71484375) (8.400047302246093e-05, 0.716796875) (8.587763214111328e-05, 0.71875) (8.737017822265625e-05, 0.720703125) (8.845184326171875e-05, 0.72265625) (8.910234069824219e-05, 0.724609375) (8.930031585693359e-05, 0.7265625) (8.902428436279296e-05, 0.728515625) (8.8251220703125e-05, 0.73046875) (8.69536895751953e-05, 0.732421875) (8.511212158203125e-05, 0.734375) (8.271795654296875e-05, 0.736328125) (7.976664733886718e-05, 0.73828125) (7.625889587402343e-05, 0.740234375) (7.220243835449219e-05, 0.7421875) (6.76094741821289e-05, 0.744140625) (6.250692749023437e-05, 0.74609375) (5.6939853668212886e-05, 0.748046875) (5.095473861694336e-05, 0.75) (4.460040283203125e-05, 0.751953125) (3.792103576660156e-05, 0.75390625) (3.0949447631835934e-05, 0.755859375) (2.372625923156738e-05, 0.7578125) (1.62979736328125e-05, 0.759765625) (8.71534252166748e-06, 0.76171875) (1.0377473831176758e-06, 0.763671875) (-6.68729305267334e-06, 0.765625) (-1.4429722785949707e-05, 0.767578125) (-2.2162307739257812e-05, 0.76953125) (-2.9860111236572266e-05, 0.771484375) (-3.751364517211914e-05, 0.7734375) (-4.512594223022461e-05, 0.775390625) (-5.273064041137695e-05, 0.77734375) (-6.040279388427734e-05, 0.779296875) (-6.822217559814453e-05, 0.78125) (-7.627275085449218e-05, 0.783203125) (-8.462870788574219e-05, 0.78515625) (-9.33463134765625e-05, 0.787109375) (-0.00010248132324218749, 0.7890625) (-0.00011207472229003906, 0.791015625) (-0.00012217147827148437, 0.79296875) (-0.00013282057189941405, 0.794921875) (-0.000144049072265625, 0.796875) (-0.00015587135314941406, 0.798828125) (-0.0001682877960205078, 0.80078125) (-0.00018125909423828123, 0.802734375) (-0.000194732421875, 0.8046875) (-0.00020866326904296875, 0.806640625) (-0.0002229050598144531, 0.80859375) (-0.00023718898010253905, 0.810546875) (-0.00025113185119628905, 0.8125) (-0.0002641631164550781, 0.814453125) (-0.00027568853759765623, 0.81640625) (-0.0002852318115234375, 0.818359375) (-0.0002923167114257812, 0.8203125) (-0.00029647589111328124, 0.822265625) (-0.00029739721679687497, 0.82421875) (-0.00029494091796875, 0.826171875) (-0.0002893668518066406, 0.828125) (-0.0002815055541992187, 0.830078125) (-0.00027237530517578123, 0.83203125) (-0.00026282266235351563, 0.833984375) (-0.0002535075988769531, 0.8359375) (-0.0002450213623046875, 0.837890625) (-0.0002378485870361328, 0.83984375) (-0.00023223429870605468, 0.841796875) (-0.00022768084716796874, 0.84375) (-0.00022184544372558593, 0.845703125) (-0.00021109181213378904, 0.84765625) (-0.0001923011474609375, 0.849609375) (-0.00016370831298828125, 0.8515625) (-0.0001267975616455078, 0.853515625) (-8.476516723632812e-05, 0.85546875) (-3.890745544433594e-05, 0.857421875) (1.1707101821899414e-05, 0.859375) (7.213480377197266e-05, 0.861328125) (0.00014761227416992185, 0.86328125) (0.00023921043395996094, 0.865234375) (0.00034409771728515626, 0.8671875) (0.0004533711242675781, 0.869140625) (0.0005564334106445312, 0.87109375) (0.0006425253295898437, 0.873046875) (0.0007006497192382813, 0.875) (0.0007212843627929687, 0.876953125) (0.0006948370971679687, 0.87890625) (0.0006166137695312499, 0.880859375) (0.000487595458984375, 0.8828125) (0.0003173379516601562, 0.884765625) (0.00012603044128417967, 0.88671875) (-6.285671997070313e-05, 0.888671875) (-0.00022487179565429687, 0.890625) (-0.00034282763671874997, 0.892578125) (-0.00041161419677734375, 0.89453125) (-0.00043590380859374997, 0.896484375) (-0.00042720748901367187, 0.8984375) (-0.0003961107788085937, 0.900390625) (-0.00035194873046875, 0.90234375) (-0.00030064144897460937, 0.904296875) (-0.0002477578430175781, 0.90625) (-0.0002023894348144531, 0.908203125) (-0.00016858541870117186, 0.91015625) (-0.00014779714965820312, 0.912109375) (-0.00013717926025390623, 0.9140625) (-0.00012765857696533201, 0.916015625) (-0.0001154809341430664, 0.91796875) (-0.00010050547790527343, 0.919921875) (-8.469036865234375e-05, 0.921875) (-7.384394073486328e-05, 0.923828125) (-6.98568878173828e-05, 0.92578125) (-7.108391571044921e-05, 0.927734375) (-7.551321411132812e-05, 0.9296875) (-7.962960815429687e-05, 0.931640625) (-8.116192626953124e-05, 0.93359375) (-7.999285125732421e-05, 0.935546875) (-7.625346374511718e-05, 0.9375) (-7.031567382812499e-05, 0.939453125) (-6.279058456420898e-05, 0.94140625) (-5.4124008178710935e-05, 0.943359375) (-4.482912063598633e-05, 0.9453125) (-3.582743072509765e-05, 0.947265625) (-2.8070457458496092e-05, 0.94921875) (-2.201692581176758e-05, 0.951171875) (-1.7840381622314453e-05, 0.953125) (-1.550829982757568e-05, 0.955078125) (-1.4736045837402343e-05, 0.95703125) (-1.5247522354125976e-05, 0.958984375) (-1.6769081115722654e-05, 0.9609375) (-1.8850820541381834e-05, 0.962890625) (-2.1038640975952146e-05, 0.96484375) (-2.3084728240966795e-05, 0.966796875) (-2.486562728881836e-05, 0.96875) (-2.6371421813964842e-05, 0.970703125) (-2.768120574951172e-05, 0.97265625) (-2.883141708374023e-05, 0.974609375) (-2.9844320297241208e-05, 0.9765625) (-3.0784219741821285e-05, 0.978515625) (-3.171896171569824e-05, 0.98046875) (-3.2695152282714844e-05, 0.982421875) (-3.374436950683594e-05, 0.984375) (-3.487477493286133e-05, 0.986328125) (-3.6092296600341793e-05, 0.98828125) (-3.743070983886719e-05, 0.990234375) (-3.894145584106445e-05, 0.9921875) (-4.067905044555664e-05, 0.994140625) (-4.267951965332031e-05, 0.99609375) (-4.495230484008789e-05, 0.998046875) (-4.7491546630859375e-05, 1.0) (-5.028036117553711e-05, 1.001953125) (-5.329521560668945e-05, 1.00390625) (-5.6506584167480465e-05, 1.005859375) (-5.987276458740234e-05, 1.0078125) (-6.33448257446289e-05, 1.009765625) (-6.68794937133789e-05, 1.01171875) (-7.043690490722656e-05, 1.013671875) (-7.397898864746094e-05, 1.015625) (-7.74696044921875e-05, 1.017578125) (-8.086618041992188e-05, 1.01953125) (-8.41221466064453e-05, 1.021484375) (-8.71912384033203e-05, 1.0234375) (-9.002619934082031e-05, 1.025390625) (-9.25827407836914e-05, 1.02734375) (-9.482229614257812e-05, 1.029296875) (-9.670933532714844e-05, 1.03125) (-9.821200561523437e-05, 1.033203125) (-9.930378723144531e-05, 1.03515625) (-9.996112823486328e-05, 1.037109375) (-0.00010016452026367186, 1.0390625) (-9.989871215820312e-05, 1.041015625) (-9.914858245849609e-05, 1.04296875) (-9.789981079101562e-05, 1.044921875) (-9.61406021118164e-05, 1.046875) (-9.386112976074218e-05, 1.048828125) (-9.105486297607421e-05, 1.05078125) (-8.771916198730468e-05, 1.052734375) (-8.385393524169921e-05, 1.0546875) (-7.946205139160157e-05, 1.056640625) (-7.455081939697265e-05, 1.05859375) (-6.913121795654296e-05, 1.060546875) (-6.321751022338867e-05, 1.0625) (-5.6827453613281245e-05, 1.064453125) (-4.9981246948242184e-05, 1.06640625) (-4.2701721191406246e-05, 1.068359375) (-3.501475524902344e-05, 1.0703125) (-2.6948760986328124e-05, 1.072265625) (-1.8534374237060546e-05, 1.07421875) (-9.80451774597168e-06, 1.076171875) (-7.940325736999511e-07, 1.078125) (8.460390090942382e-06, 1.080078125) (1.7920055389404297e-05, 1.08203125) (2.754483413696289e-05, 1.083984375) (3.729341125488281e-05, 1.0859375) (4.712337493896484e-05, 1.087890625) (5.699160766601562e-05, 1.08984375) (6.685448455810547e-05, 1.091796875) (7.666810607910156e-05, 1.09375) (8.638866424560546e-05, 1.095703125) (9.597288513183593e-05, 1.09765625) (0.00010537813568115234, 1.099609375) (0.00011456277465820312, 1.1015625) (0.00012348638153076173, 1.103515625) (0.00013210971069335938, 1.10546875) (0.00014039501953125, 1.107421875) (0.00014830633544921874, 1.109375) (0.00015580958557128905, 1.111328125) (0.00016287265014648436, 1.11328125) (0.00016946566772460937, 1.115234375) (0.00017556095886230467, 1.1171875) (0.00018113331604003904, 1.119140625) (0.000186160400390625, 1.12109375) (0.0001906228332519531, 1.123046875) (0.0001945040588378906, 1.125) (0.00019779049682617185, 1.126953125) (0.00020047140502929686, 1.12890625) (0.00020253884887695312, 1.130859375) (0.00020398793029785154, 1.1328125) (0.00020481649780273436, 1.134765625) (0.00020502519226074217, 1.13671875) (0.00020461730957031248, 1.138671875) (0.0002035987548828125, 1.140625) (0.00020197814941406249, 1.142578125) (0.00019976669311523435, 1.14453125) (0.00019697824096679686, 1.146484375) (0.00019362905883789063, 1.1484375) (0.00018973777770996093, 1.150390625) (0.00018532524108886718, 1.15234375) (0.000180414306640625, 1.154296875) (0.00017502978515625, 1.15625) (0.00016919825744628905, 1.158203125) (0.00016294776916503904, 1.16015625) (0.0001563077392578125, 1.162109375) (0.0001493086700439453, 1.1640625) (0.00014198211669921875, 1.166015625) (0.00013436041259765624, 1.16796875) (0.00012647665405273438, 1.169921875) (0.00011836429595947265, 1.171875) (0.00011005717468261719, 1.173828125) (0.00010158918762207031, 1.17578125) (9.299423217773437e-05, 1.177734375) (8.430591583251952e-05, 1.1796875) (7.555757141113282e-05, 1.181640625) (6.678187561035156e-05, 1.18359375) (5.801078033447265e-05, 1.185546875) (4.927541351318359e-05, 1.1875) (4.060596084594726e-05, 1.189453125) (3.2031578063964845e-05, 1.19140625) (2.3580333709716796e-05, 1.193359375) (1.5279111862182617e-05, 1.1953125) (7.153562068939208e-06, 1.197265625) (-7.719595432281494e-07, 1.19921875) (-8.474437713623047e-06, 1.201171875) (-1.5932254791259765e-05, 1.203125) (-2.312525939941406e-05, 1.205078125) (-3.0034854888916013e-05, 1.20703125) (-3.664405059814453e-05, 1.208984375) (-4.293749237060547e-05, 1.2109375) (-4.890151596069336e-05, 1.212890625) (-5.452411651611328e-05, 1.21484375) (-5.979497528076172e-05, 1.216796875) (-6.470545196533203e-05, 1.21875) (-6.924856567382812e-05, 1.220703125) (-7.34189453125e-05, 1.22265625) (-7.721278381347656e-05, 1.224609375) (-8.062777709960936e-05, 1.2265625) (-8.366309356689452e-05, 1.228515625) (-8.631930541992187e-05, 1.23046875) (-8.859835815429688e-05, 1.232421875) (-9.050347137451171e-05, 1.234375) (-9.203905487060546e-05, 1.236328125) (-9.321063995361328e-05, 1.23828125) (-9.402481079101562e-05, 1.240234375) (-9.448912811279297e-05, 1.2421875) (-9.461205291748046e-05, 1.244140625) (-9.440288543701171e-05, 1.24609375) (-9.387164306640625e-05, 1.248046875) (-9.302904510498047e-05, 1.25) (-9.188648986816405e-05, 1.251953125) (-9.045600891113281e-05, 1.25390625) (-8.875025939941406e-05, 1.255859375) (-8.678247070312499e-05, 1.2578125) (-8.456645965576171e-05, 1.259765625) (-8.211663055419921e-05, 1.26171875) (-7.944790649414062e-05, 1.263671875) (-7.657575225830078e-05, 1.265625) (-7.351609802246094e-05, 1.267578125) (-7.028530883789063e-05, 1.26953125) (-6.690010070800781e-05, 1.271484375) (-6.337749099731445e-05, 1.2734375) (-5.973479843139648e-05, 1.275390625) (-5.598949813842773e-05, 1.27734375) (-5.215923309326172e-05, 1.279296875) (-4.826171493530273e-05, 1.28125) (-4.431468200683594e-05, 1.283203125) (-4.0335838317871094e-05, 1.28515625) (-3.6342845916748045e-05, 1.287109375) (-3.235324096679687e-05, 1.2890625) (-2.8384418487548825e-05, 1.291015625) (-2.445353317260742e-05, 1.29296875) (-2.057748794555664e-05, 1.294921875) (-1.6772865295410154e-05, 1.296875) (-1.3055922508239745e-05, 1.298828125) (-9.442529678344726e-06, 1.30078125) (-5.94813060760498e-06, 1.302734375) (-2.587674617767334e-06, 1.3046875) (6.244221925735473e-07, 1.306640625) (3.6743240356445313e-06, 1.30859375) (6.548828124999999e-06, 1.310546875) (9.235411643981933e-06, 1.3125) (1.172232151031494e-05, 1.314453125) (1.3998674392700194e-05, 1.31640625) (1.605452346801758e-05, 1.318359375) (1.7880939483642576e-05, 1.3203125) (1.94700927734375e-05, 1.322265625) (2.0815345764160155e-05, 1.32421875) (2.1911333084106443e-05, 1.326171875) (2.275406265258789e-05, 1.328125) (2.334096908569336e-05, 1.330078125) (2.367091941833496e-05, 1.33203125) (2.374424362182617e-05, 1.333984375) (2.3562740325927734e-05, 1.3359375) (2.3129693984985352e-05, 1.337890625) (2.2449886322021484e-05, 1.33984375) (2.152954292297363e-05, 1.341796875) (2.0376338958740232e-05, 1.34375) (1.8999259948730468e-05, 1.345703125) (1.7408580780029297e-05, 1.34765625) (1.56158390045166e-05, 1.349609375) (1.363379955291748e-05, 1.3515625) (1.1476333618164061e-05, 1.353515625) (9.158336639404296e-06, 1.35546875) (6.695601463317871e-06, 1.357421875) (4.10468053817749e-06, 1.359375) (1.4029113054275513e-06, 1.361328125) (-1.3916711807250977e-06, 1.36328125) (-4.260489463806152e-06, 1.365234375) (-7.184575080871582e-06, 1.3671875) (-1.0144711494445801e-05, 1.369140625) (-1.3121543884277342e-05, 1.37109375) (-1.6095682144165038e-05, 1.373046875) (-1.904776382446289e-05, 1.375) (-2.195862579345703e-05, 1.376953125) (-2.480953598022461e-05, 1.37890625) (-2.7582298278808592e-05, 1.380859375) (-3.025937271118164e-05, 1.3828125) (-3.2823974609374996e-05, 1.384765625) (-3.526020812988281e-05, 1.38671875) (-3.755319213867187e-05, 1.388671875) (-3.968930053710937e-05, 1.390625) (-4.165633010864258e-05, 1.392578125) (-4.3443511962890624e-05, 1.39453125) (-4.5041557312011716e-05, 1.396484375) (-4.6442707061767575e-05, 1.3984375) (-4.7640869140625e-05, 1.400390625) (-4.8631698608398435e-05, 1.40234375) (-4.941267776489258e-05, 1.404296875) (-4.998312377929687e-05, 1.40625) (-5.034395980834961e-05, 1.408203125) (-5.049763488769531e-05, 1.41015625) (-5.0448272705078126e-05, 1.412109375) (-5.020173645019531e-05, 1.4140625) (-4.976544952392578e-05, 1.416015625) (-4.9148292541503904e-05, 1.41796875) (-4.8360351562499996e-05, 1.419921875) (-4.741265869140625e-05, 1.421875) (-4.6317504882812496e-05, 1.423828125) (-4.508856964111328e-05, 1.42578125) (-4.374053573608398e-05, 1.427734375) (-4.228892135620117e-05, 1.4296875) (-4.074983596801757e-05, 1.431640625) (-3.9139884948730465e-05, 1.43359375) (-3.747612380981445e-05, 1.435546875) (-3.577617263793945e-05, 1.4375) (-3.405796432495117e-05, 1.439453125) (-3.2339233398437496e-05, 1.44140625) (-3.0637483596801755e-05, 1.443359375) (-2.897000503540039e-05, 1.4453125) (-2.735378074645996e-05, 1.447265625) (-2.5805469512939454e-05, 1.44921875) (-2.4341344833374023e-05, 1.451171875) (-2.2976818084716796e-05, 1.453125) (-2.17261848449707e-05, 1.455078125) (-2.0602903366088867e-05, 1.45703125) (-1.961952018737793e-05, 1.458984375) (-1.878775978088379e-05, 1.4609375) (-1.811821746826172e-05, 1.462890625) (-1.7620044708251953e-05, 1.46484375) (-1.7300895690917967e-05, 1.466796875) (-1.7166828155517576e-05, 1.46875) (-1.7222949981689452e-05, 1.470703125) (-1.747352409362793e-05, 1.47265625) (-1.7921289443969725e-05, 1.474609375) (-1.8567325592041016e-05, 1.4765625) (-1.941175651550293e-05, 1.478515625) (-2.0453998565673826e-05, 1.48046875) (-2.169326019287109e-05, 1.482421875) (-2.3129194259643553e-05, 1.484375) (-2.4760168075561522e-05, 1.486328125) (-2.658271789550781e-05, 1.48828125) (-2.8592758178710935e-05, 1.490234375) (-3.078570556640625e-05, 1.4921875) (-3.315607452392578e-05, 1.494140625) (-3.569708633422852e-05, 1.49609375) (-3.839945983886719e-05, 1.498046875) (-4.125102233886719e-05, 1.5) (-4.423906326293945e-05, 1.501953125) (-4.735187530517578e-05, 1.50390625) (-5.057850646972656e-05, 1.505859375) (-5.390748596191406e-05, 1.5078125) (-5.732583618164062e-05, 1.509765625) (-6.081932830810547e-05, 1.51171875) (-6.437319946289062e-05, 1.513671875) (-6.79736328125e-05, 1.515625) (-7.16073989868164e-05, 1.517578125) (-7.525938415527343e-05, 1.51953125) (-7.891016387939453e-05, 1.521484375) (-8.253802490234375e-05, 1.5234375) (-8.612357330322265e-05, 1.525390625) (-8.965155029296874e-05, 1.52734375) (-9.311528778076171e-05, 1.529296875) (-9.651312255859374e-05, 1.53125) (-9.983878326416016e-05, 1.533203125) (-0.00010308175659179687, 1.53515625) (-0.00010622950744628905, 1.537109375) (-0.00010926994323730468, 1.5390625) (-0.00011219018554687499, 1.541015625) (-0.0001149728775024414, 1.54296875) (-0.00011758831787109375, 1.544921875) (-0.00011999466705322265, 1.546875) (-0.00012215145111083985, 1.548828125) (-0.00012402482604980468, 1.55078125) (-0.0001255930480957031, 1.552734375) (-0.00012683706665039062, 1.5546875) (-0.000127730712890625, 1.556640625) (-0.00012824217224121094, 1.55859375) (-0.0001283262481689453, 1.560546875) (-0.00012794204711914062, 1.5625) (-0.0001270645980834961, 1.564453125) (-0.00012567788696289062, 1.56640625) (-0.0001237767105102539, 1.568359375) (-0.00012136414337158202, 1.5703125) (-0.00011845865631103515, 1.572265625) (-0.0001150977783203125, 1.57421875) (-0.00011135302734374999, 1.576171875) (-0.00010732859802246094, 1.578125) (-0.00010313526916503906, 1.580078125) (-9.888465881347656e-05, 1.58203125) (-9.468109130859374e-05, 1.583984375) (-9.063575744628906e-05, 1.5859375) (-8.685418701171875e-05, 1.587890625) (-8.346538543701171e-05, 1.58984375) (-8.063919067382812e-05, 1.591796875) (-7.845787811279297e-05, 1.59375) (-7.693803405761719e-05, 1.595703125) (-7.601712036132812e-05, 1.59765625) (-7.547557067871093e-05, 1.599609375) (-7.507025146484375e-05, 1.6015625) (-7.456147003173828e-05, 1.603515625) (-7.360093688964844e-05, 1.60546875) (-7.177664184570312e-05, 1.607421875) (-6.882160949707031e-05, 1.609375) (-6.453908538818358e-05, 1.611328125) (-5.9013832092285156e-05, 1.61328125) (-5.2827606201171875e-05, 1.615234375) (-4.654409790039062e-05, 1.6171875) (-4.080094909667969e-05, 1.619140625) (-3.633526611328125e-05, 1.62109375) (-3.356746673583984e-05, 1.623046875) (-3.28637809753418e-05, 1.625) (-3.4643966674804684e-05, 1.626953125) (-3.863336944580078e-05, 1.62890625) (-4.362940979003906e-05, 1.630859375) (-4.7411186218261714e-05, 1.6328125) (-4.6507774353027345e-05, 1.634765625) (-3.7723255157470705e-05, 1.63671875) (-1.941352844238281e-05, 1.638671875) (7.338144302368164e-06, 1.640625) (4.0135414123535155e-05, 1.642578125) (7.764904022216796e-05, 1.64453125) (0.00012027383422851562, 1.646484375) (0.00017323135375976563, 1.6484375) (0.00024189746093749998, 1.650390625) (0.00032818554687499997, 1.65234375) (0.00043132861328125, 1.654296875) (0.0005429412841796875, 1.65625) (0.0006512811279296874, 1.658203125) (0.0007433628540039062, 1.66015625) (0.0008042120971679687, 1.662109375) (0.0008221063842773437, 1.6640625) (0.0007891272583007812, 1.666015625) (0.0007043109741210937, 1.66796875) (0.0005743414916992187, 1.669921875) (0.0004117832336425781, 1.671875) (0.00023367552185058594, 1.673828125) (5.7661113739013666e-05, 1.67578125) (-9.9335205078125e-05, 1.677734375) (-0.00022394357299804687, 1.6796875) (-0.0003075000305175781, 1.681640625) (-0.0003489310302734375, 1.68359375) (-0.00035318673706054684, 1.685546875) (-0.00032731494140625, 1.6875) (-0.00028332449340820313, 1.689453125) (-0.00023078221130371093, 1.69140625) (-0.00017873223876953124, 1.693359375) (-0.000138711181640625, 1.6953125) (-0.00011353298950195312, 1.697265625) (-0.00010302565765380859, 1.69921875) (-0.0001030989532470703, 1.701171875) (-0.00010289490509033202, 1.703125) (-9.833873748779297e-05, 1.705078125) (-8.938803100585937e-05, 1.70703125) (-7.788916015625e-05, 1.708984375) (-7.025115966796875e-05, 1.7109375) (-6.869272613525391e-05, 1.712890625) (-7.165194702148437e-05, 1.71484375) (-7.744244384765624e-05, 1.716796875) (-8.275225830078125e-05, 1.71875) (-8.552873992919921e-05, 1.720703125) (-8.591252899169921e-05, 1.72265625) (-8.414476013183593e-05, 1.724609375) (-8.061677551269531e-05, 1.7265625) (-7.588636779785155e-05, 1.728515625) (-7.028102111816406e-05, 1.73046875) (-6.413456726074218e-05, 1.732421875) (-5.8126613616943355e-05, 1.734375) (-5.299326705932617e-05, 1.736328125) (-4.905000305175781e-05, 1.73828125) (-4.6386589050292965e-05, 1.740234375) (-4.49503173828125e-05, 1.7421875) (-4.446872329711914e-05, 1.744140625) (-4.468354034423828e-05, 1.74609375) (-4.537019729614258e-05, 1.748046875) (-4.615909194946289e-05, 1.75) (-4.666335678100586e-05, 1.751953125) (-4.667657089233398e-05, 1.75390625) (-4.6094005584716794e-05, 1.755859375) (-4.490140914916992e-05, 1.7578125) (-4.317377471923828e-05, 1.759765625) (-4.095418930053711e-05, 1.76171875) (-3.8270866394042966e-05, 1.763671875) (-3.519350814819336e-05, 1.765625) (-3.1800399780273434e-05, 1.767578125) (-2.8152418136596678e-05, 1.76953125) (-2.4302425384521484e-05, 1.771484375) (-2.0286640167236328e-05, 1.7734375) (-1.6135667800903318e-05, 1.775390625) (-1.1903576850891113e-05, 1.77734375) (-7.65930128097534e-06, 1.779296875) (-3.470613479614258e-06, 1.78125) (6.110409498214722e-07, 1.783203125) (4.556403160095215e-06, 1.78515625) (8.35075569152832e-06, 1.787109375) (1.1989774703979491e-05, 1.7890625) (1.5474803924560546e-05, 1.791015625) (1.8813791275024413e-05, 1.79296875) (2.2026546478271484e-05, 1.794921875) (2.513791275024414e-05, 1.796875) (2.8166883468627927e-05, 1.798828125) (3.11298713684082e-05, 1.80078125) (3.4041347503662105e-05, 1.802734375) (3.691390228271484e-05, 1.8046875) (3.976697921752929e-05, 1.806640625) (4.262338256835937e-05, 1.80859375) (4.5504547119140625e-05, 1.810546875) (4.8434597015380855e-05, 1.8125) (5.143764114379883e-05, 1.814453125) (5.4535068511962886e-05, 1.81640625) (5.774930953979492e-05, 1.818359375) (6.110131835937499e-05, 1.8203125) (6.460653686523437e-05, 1.822265625) (6.827884674072265e-05, 1.82421875) (7.212964630126953e-05, 1.826171875) (7.616729736328125e-05, 1.828125) (8.040325927734374e-05, 1.830078125) (8.484750366210937e-05, 1.83203125) (8.950534057617187e-05, 1.833984375) (9.438518524169922e-05, 1.8359375) (9.94960708618164e-05, 1.837890625) (0.00010484803771972656, 1.83984375) (0.00011045841979980468, 1.841796875) (0.00011633857727050781, 1.84375) (0.0001224846725463867, 1.845703125) (0.00012888760375976563, 1.84765625) (0.000135529541015625, 1.849609375) (0.00014238046264648436, 1.8515625) (0.00014941506958007813, 1.853515625) (0.00015660426330566405, 1.85546875) (0.00016390661621093749, 1.857421875) (0.00017129020690917967, 1.859375) (0.00017873240661621094, 1.861328125) (0.00018621890258789062, 1.86328125) (0.00019375634765624999, 1.865234375) (0.00020135165405273437, 1.8671875) (0.0002089940948486328, 1.869140625) (0.00021666175842285156, 1.87109375) (0.00022431509399414062, 1.873046875) (0.00023191342163085936, 1.875) (0.00023944009399414062, 1.876953125) (0.0002468817443847656, 1.87890625) (0.0002542270965576172, 1.880859375) (0.0002614861450195312, 1.8828125) (0.0002686622009277344, 1.884765625) (0.000275765380859375, 1.88671875) (0.00028283551025390624, 1.888671875) (0.0002898869323730469, 1.890625) (0.00029689538574218747, 1.892578125) (0.00030381341552734376, 1.89453125) (0.00031054434204101563, 1.896484375) (0.00031697274780273434, 1.8984375) (0.000323017578125, 1.900390625) (0.0003286146240234375, 1.90234375) (0.0003337154541015625, 1.904296875) (0.0003382859191894531, 1.90625) (0.00034226812744140623, 1.908203125) (0.00034560382080078123, 1.91015625) (0.0003482495727539062, 1.912109375) (0.0003501415100097656, 1.9140625) (0.00035121612548828123, 1.916015625) (0.0003514002075195312, 1.91796875) (0.0003505804443359375, 1.919921875) (0.0003486755676269531, 1.921875) (0.0003456671142578125, 1.923828125) (0.00034157156372070313, 1.92578125) (0.000336468994140625, 1.927734375) (0.00033047839355468747, 1.9296875) (0.00032368273925781246, 1.931640625) (0.00031615362548828124, 1.93359375) (0.00030796392822265626, 1.935546875) (0.00029916644287109376, 1.9375) (0.00028982904052734376, 1.939453125) (0.000280021728515625, 1.94140625) (0.0002697899780273437, 1.943359375) (0.0002591929931640625, 1.9453125) (0.00024830548095703124, 1.947265625) (0.00023721850585937498, 1.94921875) (0.00022606205749511717, 1.951171875) (0.00021495147705078124, 1.953125) (0.0002039514465332031, 1.955078125) (0.00019310145568847656, 1.95703125) (0.0001823997802734375, 1.958984375) (0.0001718126220703125, 1.9609375) (0.00016133389282226563, 1.962890625) (0.0001509660186767578, 1.96484375) (0.00014070274353027344, 1.966796875) (0.00013055812072753907, 1.96875) (0.0001205479507446289, 1.970703125) (0.00011068984222412109, 1.97265625) (0.0001010263671875, 1.974609375) (9.160009765624999e-05, 1.9765625) (8.243580627441406e-05, 1.978515625) (7.35458984375e-05, 1.98046875) (6.492184448242187e-05, 1.982421875) (5.6553733825683594e-05, 1.984375) (4.845470809936523e-05, 1.986328125) (4.0647846221923825e-05, 1.98828125) (3.316768646240234e-05, 1.990234375) (2.606149673461914e-05, 1.9921875) (1.936345100402832e-05, 1.994140625) (1.3102127075195313e-05, 1.99609375) (7.311123371124267e-06, 1.998046875) (2.0112996101379395e-06, 2.0) (-2.786229372024536e-06, 2.001953125) (-7.075990676879883e-06, 2.00390625) (-1.0869108200073242e-05, 2.005859375) (-1.418457794189453e-05, 2.0078125) (-1.7034915924072264e-05, 2.009765625) (-1.943086242675781e-05, 2.01171875) (-2.138150405883789e-05, 2.013671875) (-2.2894386291503906e-05, 2.015625) (-2.398465919494629e-05, 2.017578125) (-2.467240524291992e-05, 2.01953125) (-2.4979141235351562e-05, 2.021484375) (-2.4930675506591795e-05, 2.0234375) (-2.4553831100463867e-05, 2.025390625) (-2.3876718521118163e-05, 2.02734375) (-2.2931535720825195e-05, 2.029296875) (-2.1749965667724608e-05, 2.03125) (-2.0361127853393553e-05, 2.033203125) (-1.8793306350708007e-05, 2.03515625) (-1.7072021484375e-05, 2.037109375) (-1.5220561981201172e-05, 2.0390625) (-1.3264148712158202e-05, 2.041015625) (-1.122834587097168e-05, 2.04296875) (-9.137640953063964e-06, 2.044921875) (-7.017334938049316e-06, 2.046875) (-4.8921895027160645e-06, 2.048828125) (-2.785790920257568e-06, 2.05078125) (-7.219636440277099e-07, 2.052734375) (1.276272177696228e-06, 2.0546875) (3.188359022140503e-06, 2.056640625) (4.9956665039062495e-06, 2.05859375) (6.681495666503906e-06, 2.060546875) (8.231555938720702e-06, 2.0625) (9.633169174194336e-06, 2.064453125) (1.0875321388244629e-05, 2.06640625) (1.194919490814209e-05, 2.068359375) (1.2847858428955077e-05, 2.0703125) (1.3566064834594726e-05, 2.072265625) (1.4100382804870605e-05, 2.07421875) (1.4449064254760741e-05, 2.076171875) (1.4611988067626952e-05, 2.078125) (1.4590852737426757e-05, 2.080078125) (1.4389037132263184e-05, 2.08203125) (1.4011433601379394e-05, 2.083984375) (1.346449851989746e-05, 2.0859375) (1.2756133079528808e-05, 2.087890625) (1.1895559310913086e-05, 2.08984375) (1.0893321990966797e-05, 2.091796875) (9.761008262634277e-06, 2.09375) (8.510988235473632e-06, 2.095703125) (7.156426906585693e-06, 2.09765625) (5.711125373840332e-06, 2.099609375) (4.189259529113769e-06, 2.1015625) (2.605456590652466e-06, 2.103515625) (9.745532870292663e-07, 2.10546875) (-6.887199282646179e-07, 2.107421875) (-2.3695502281188963e-06, 2.109375) (-4.053121089935302e-06, 2.111328125) (-5.7249231338500975e-06, 2.11328125) (-7.37073802947998e-06, 2.115234375) (-8.976844787597656e-06, 2.1171875) (-1.0530495643615722e-05, 2.119140625) (-1.20198917388916e-05, 2.12109375) (-1.343418312072754e-05, 2.123046875) (-1.476374053955078e-05, 2.125) (-1.600009536743164e-05, 2.126953125) (-1.7135957717895506e-05, 2.12890625) (-1.8165390014648435e-05, 2.130859375) (-1.9083757400512696e-05, 2.1328125) (-1.9887598037719726e-05, 2.134765625) (-2.057472229003906e-05, 2.13671875) (-2.1144189834594726e-05, 2.138671875) (-2.1596303939819335e-05, 2.140625) (-2.193271446228027e-05, 2.142578125) (-2.2156368255615234e-05, 2.14453125) (-2.227143096923828e-05, 2.146484375) (-2.2283273696899414e-05, 2.1484375) (-2.2198364257812498e-05, 2.150390625) (-2.202418518066406e-05, 2.15234375) (-2.176920509338379e-05, 2.154296875) (-2.1442760467529296e-05, 2.15625) (-2.105494689941406e-05, 2.158203125) (-2.0616559982299802e-05, 2.16015625) (-2.013895034790039e-05, 2.162109375) (-1.9633907318115232e-05, 2.1640625) (-1.911360549926758e-05, 2.166015625) (-1.8590450286865232e-05, 2.16796875) (-1.8076976776123046e-05, 2.169921875) (-1.7585763931274415e-05, 2.171875) (-1.7129249572753907e-05, 2.173828125) (-1.6719562530517576e-05, 2.17578125) (-1.636849594116211e-05, 2.177734375) (-1.6087387084960937e-05, 2.1796875) (-1.588700008392334e-05, 2.181640625) (-1.5777515411376954e-05, 2.18359375) (-1.5768369674682615e-05, 2.185546875) (-1.5868129730224608e-05, 2.1875) (-1.6084543228149415e-05, 2.189453125) (-1.6424514770507813e-05, 2.19140625) (-1.6894041061401368e-05, 2.193359375) (-1.7498188018798827e-05, 2.1953125) (-1.8241077423095703e-05, 2.197265625) (-1.9125749588012694e-05, 2.19921875) (-2.0154254913330076e-05, 2.201171875) (-2.1327701568603516e-05, 2.203125) (-2.2646175384521484e-05, 2.205078125) (-2.410871887207031e-05, 2.20703125) (-2.571335220336914e-05, 2.208984375) (-2.745706558227539e-05, 2.2109375) (-2.9335840225219726e-05, 2.212890625) (-3.134480285644531e-05, 2.21484375) (-3.3478233337402345e-05, 2.216796875) (-3.5729545593261714e-05, 2.21875) (-3.809138488769531e-05, 2.220703125) (-4.05556526184082e-05, 2.22265625) (-4.3113693237304684e-05, 2.224609375) (-4.575645065307617e-05, 2.2265625) (-4.847450256347656e-05, 2.228515625) (-5.1258224487304684e-05, 2.23046875) (-5.409770202636719e-05, 2.232421875) (-5.6982730865478514e-05, 2.234375) (-5.990309906005859e-05, 2.236328125) (-6.284879684448243e-05, 2.23828125) (-6.580977630615234e-05, 2.240234375) (-6.877606201171875e-05, 2.2421875) (-7.173770141601562e-05, 2.244140625) (-7.468460083007812e-05, 2.24609375) (-7.760697174072265e-05, 2.248046875) (-8.049562072753907e-05, 2.25) (-8.334158325195312e-05, 2.251953125) (-8.613613128662109e-05, 2.25390625) (-8.887081909179687e-05, 2.255859375) (-9.153749084472656e-05, 2.2578125) (-9.412832641601563e-05, 2.259765625) (-9.663615417480468e-05, 2.26171875) (-9.905411529541015e-05, 2.263671875) (-0.00010137553405761718, 2.265625) (-0.0001035941390991211, 2.267578125) (-0.0001057042999267578, 2.26953125) (-0.00010770108795166015, 2.271484375) (-0.00010958022308349608, 2.2734375) (-0.00011133806610107421, 2.275390625) (-0.00011297140502929687, 2.27734375) (-0.0001144776611328125, 2.279296875) (-0.0001158550033569336, 2.28125) (-0.00011710231018066406, 2.283203125) (-0.00011821922302246093, 2.28515625) (-0.00011920573425292968, 2.287109375) (-0.00012006219482421875, 2.2890625) (-0.00012078944396972655, 2.291015625) (-0.00012138871765136718, 2.29296875) (-0.00012186203002929687, 2.294921875) (-0.00012221215820312499, 2.296875) (-0.0001224418487548828, 2.298828125) (-0.00012255335998535155, 2.30078125) (-0.00012254949188232421, 2.302734375) (-0.00012243437194824219, 2.3046875) (-0.00012221383666992188, 2.306640625) (-0.00012189607238769531, 2.30859375) (-0.00012148992919921875, 2.310546875) (-0.00012100436401367188, 2.3125) (-0.00012044967651367188, 2.314453125) (-0.00011983802032470703, 2.31640625) (-0.00011918180847167968, 2.318359375) (-0.00011849234008789062, 2.3203125) (-0.00011777873229980468, 2.322265625) (-0.00011704625701904296, 2.32421875) (-0.00011629933166503905, 2.326171875) (-0.00011554371643066406, 2.328125) (-0.00011478495788574218, 2.330078125) (-0.00011402889251708984, 2.33203125) (-0.00011328160095214844, 2.333984375) (-0.00011254696655273436, 2.3359375) (-0.00011182704162597656, 2.337890625) (-0.00011112395477294922, 2.33984375) (-0.00011043687438964844, 2.341796875) (-0.00010976075744628906, 2.34375) (-0.00010908610534667968, 2.345703125) (-0.00010839781951904296, 2.34765625) (-0.00010768241882324218, 2.349609375) (-0.00010693291473388671, 2.3515625) (-0.00010615161895751952, 2.353515625) (-0.00010535160827636718, 2.35546875) (-0.00010454765319824219, 2.357421875) (-0.000103752685546875, 2.359375) (-0.00010298219299316406, 2.361328125) (-0.00010224921417236328, 2.36328125) (-0.00010155766296386718, 2.365234375) (-0.0001009104995727539, 2.3671875) (-0.00010030186462402343, 2.369140625) (-9.971827697753906e-05, 2.37109375) (-9.91600112915039e-05, 2.373046875) (-9.862667846679686e-05, 2.375) (-9.811422729492187e-05, 2.376953125) (-9.762400817871094e-05, 2.37890625) (-9.714373779296874e-05, 2.380859375) (-9.664805603027344e-05, 2.3828125) (-9.611061096191406e-05, 2.384765625) (-9.54639434814453e-05, 2.38671875) (-9.460260772705077e-05, 2.388671875) (-9.348060607910156e-05, 2.390625) (-9.211038208007812e-05, 2.392578125) (-9.057379150390624e-05, 2.39453125) (-8.90628204345703e-05, 2.396484375) (-8.774183654785157e-05, 2.3984375) (-8.669218444824218e-05, 2.400390625) (-8.607144165039063e-05, 2.40234375) (-8.608532714843749e-05, 2.404296875) (-8.672679138183593e-05, 2.40625) (-8.779440307617187e-05, 2.408203125) (-8.884483337402343e-05, 2.41015625) (-8.914056396484374e-05, 2.412109375) (-8.811549377441406e-05, 2.4140625) (-8.555178833007812e-05, 2.416015625) (-8.119004821777343e-05, 2.41796875) (-7.472593688964844e-05, 2.419921875) (-6.627249145507812e-05, 2.421875) (-5.626951599121093e-05, 2.423828125) (-4.559828186035156e-05, 2.42578125) (-3.5696071624755855e-05, 2.427734375) (-2.7693086624145506e-05, 2.4296875) (-2.2164705276489255e-05, 2.431640625) (-1.9778364181518553e-05, 2.43359375) (-2.1347427368164062e-05, 2.435546875) (-2.729446029663086e-05, 2.4375) (-3.770780563354492e-05, 2.439453125) (-5.204640197753906e-05, 2.44140625) (-6.910774993896484e-05, 2.443359375) (-8.796408081054687e-05, 2.4453125) (-0.00010804351806640624, 2.447265625) (-0.00012860264587402344, 2.44921875) (-0.00014738400268554688, 2.451171875) (-0.00016103811645507812, 2.453125) (-0.0001669250793457031, 2.455078125) (-0.00016265731811523437, 2.45703125) (-0.00014899969482421875, 2.458984375) (-0.00012970228576660156, 2.4609375) (-0.00010497608947753906, 2.462890625) (-7.385749816894531e-05, 2.46484375) (-3.253345489501953e-05, 2.466796875) (2.7637634277343748e-05, 2.46875) (0.00010883193969726561, 2.470703125) (0.0002092309112548828, 2.47265625) (0.00032399325561523434, 2.474609375) (0.0004414647827148437, 2.4765625) (0.0005531422729492187, 2.478515625) (0.000650173828125, 2.48046875) (0.0007213505859375, 2.482421875) (0.0007567408447265625, 2.484375) (0.0007444832153320312, 2.486328125) (0.00067852978515625, 2.48828125) (0.0005611890258789062, 2.490234375) (0.000403144775390625, 2.4921875) (0.00022432418823242187, 2.494140625) (4.620687103271484e-05, 2.49609375) (-0.00011102259826660155, 2.498046875) (-0.0002327753448486328, 2.5) (-0.00031291259765625, 2.501953125) (-0.0003530120239257812, 2.50390625) (-0.000359790771484375, 2.505859375) (-0.00034042559814453124, 2.5078125) (-0.000303829833984375, 2.509765625) (-0.0002567041625976562, 2.51171875) (-0.0002066908264160156, 2.513671875) (-0.000165165771484375, 2.515625) (-0.00013687469482421874, 2.517578125) (-0.00012333953857421876, 2.51953125) (-0.00012084522247314452, 2.521484375) (-0.00011843654632568359, 2.5234375) (-0.00011151393890380858, 2.525390625) (-9.999987030029296e-05, 2.52734375) (-8.626953887939453e-05, 2.529296875) (-7.701806640624999e-05, 2.53125) (-7.477997589111328e-05, 2.533203125) (-7.813824462890625e-05, 2.53515625) (-8.530865478515625e-05, 2.537109375) (-9.311222839355468e-05, 2.5390625) (-9.921905517578125e-05, 2.541015625) (-0.00010297854614257812, 2.54296875) (-0.00010412004089355468, 2.544921875) (-0.00010276342010498046, 2.546875) (-9.933878326416015e-05, 2.548828125) (-9.425249481201171e-05, 2.55078125) (-8.783988952636718e-05, 2.552734375) (-8.055870819091796e-05, 2.5546875) (-7.315428924560547e-05, 2.556640625) (-6.637583923339843e-05, 2.55859375) (-6.068167495727539e-05, 2.560546875) (-5.626465606689453e-05, 2.5625) (-5.30076904296875e-05, 2.564453125) (-5.063402557373047e-05, 2.56640625) (-4.891738891601562e-05, 2.568359375) (-4.762915802001953e-05, 2.5703125) (-4.648040771484375e-05, 2.572265625) (-4.516236114501953e-05, 2.57421875) (-4.347243118286133e-05, 2.576171875) (-4.133677673339844e-05, 2.578125) (-3.878200912475586e-05, 2.580078125) (-3.590548706054687e-05, 2.58203125) (-3.279697799682617e-05, 2.583984375) (-2.951475143432617e-05, 2.5859375) (-2.611136245727539e-05, 2.587890625) (-2.2654802322387693e-05, 2.58984375) (-1.919735336303711e-05, 2.591796875) (-1.576863956451416e-05, 2.59375) (-1.2396955490112305e-05, 2.595703125) (-9.086414337158203e-06, 2.59765625) (-5.841091156005859e-06, 2.599609375) (-2.6962742805480958e-06, 2.6015625) (3.169779479503631e-07, 2.603515625) (3.170490741729736e-06, 2.60546875) (5.8294730186462396e-06, 2.607421875) (8.278355598449706e-06, 2.609375) (1.0512989044189452e-05, 2.611328125) (1.252637481689453e-05, 2.61328125) (1.432469081878662e-05, 2.615234375) (1.591858100891113e-05, 2.6171875) (1.730100059509277e-05, 2.619140625) (1.8475109100341796e-05, 2.62109375) (1.945552635192871e-05, 2.623046875) (2.0231172561645508e-05, 2.625) (2.0786277770996092e-05, 2.626953125) (2.1082269668579102e-05, 2.62890625) (2.10443000793457e-05, 2.630859375) (2.063813018798828e-05, 2.6328125) (1.987026023864746e-05, 2.634765625) (1.8763540267944335e-05, 2.63671875) (1.7372713088989257e-05, 2.638671875) (1.576325225830078e-05, 2.640625) (1.3998628616333007e-05, 2.642578125) (1.2173556327819824e-05, 2.64453125) (1.0409205436706542e-05, 2.646484375) (8.81161880493164e-06, 2.6484375) (7.48639440536499e-06, 2.650390625) (6.515804290771484e-06, 2.65234375) (5.946925640106201e-06, 2.654296875) (5.8611555099487304e-06, 2.65625) (6.360586166381835e-06, 2.658203125) (7.572762012481689e-06, 2.66015625) (9.666498184204102e-06, 2.662109375) (1.2755820274353027e-05, 2.6640625) (1.688914680480957e-05, 2.666015625) (2.2095483779907225e-05, 2.66796875) (2.8368595123291013e-05, 2.669921875) (3.566773223876953e-05, 2.671875) (4.3938331604003905e-05, 2.673828125) (5.305896759033203e-05, 2.67578125) (6.284143829345703e-05, 2.677734375) (7.312933349609375e-05, 2.6796875) (8.378871154785156e-05, 2.681640625) (9.472181701660155e-05, 2.68359375) (0.00010588536071777343, 2.685546875) (0.00011719998168945312, 2.6875) (0.00012855645751953123, 2.689453125) (0.00013983586120605468, 2.69140625) (0.00015089227294921875, 2.693359375) (0.0001616265869140625, 2.6953125) (0.0001719983367919922, 2.697265625) (0.00018195722961425782, 2.69921875) (0.00019145602416992187, 2.701171875) (0.0002004817657470703, 2.703125) (0.00020903639221191405, 2.705078125) (0.0002171999053955078, 2.70703125) (0.00022512918090820312, 2.708984375) (0.0002329288330078125, 2.7109375) (0.00024065573120117187, 2.712890625) (0.000248317138671875, 2.71484375) (0.00025585777282714843, 2.716796875) (0.00026324874877929686, 2.71875) (0.000270480712890625, 2.720703125) (0.0002775173950195312, 2.72265625) (0.00028431588745117184, 2.724609375) (0.00029079449462890623, 2.7265625) (0.00029683416748046873, 2.728515625) (0.0003023662109375, 2.73046875) (0.00030735101318359373, 2.732421875) (0.00031172308349609374, 2.734375) (0.0003154015808105469, 2.736328125) (0.0003182305908203125, 2.73828125) (0.0003199956665039062, 2.740234375) (0.00032054345703125, 2.7421875) (0.00031977288818359374, 2.744140625) (0.0003176268920898437, 2.74609375) (0.00031409039306640624, 2.748046875) (0.0003091241455078125, 2.75) (0.00030269509887695314, 2.751953125) (0.0002948356628417969, 2.75390625) (0.0002856138916015625, 2.755859375) (0.00027513821411132813, 2.7578125) (0.0002635322875976562, 2.759765625) (0.00025084632873535154, 2.76171875) (0.00023710821533203124, 2.763671875) (0.0002223802032470703, 2.765625) (0.0002067531280517578, 2.767578125) (0.00019039369201660157, 2.76953125) (0.00017350706481933592, 2.771484375) (0.00015625341796875, 2.7734375) (0.0001387769775390625, 2.775390625) (0.00012122079467773436, 2.77734375) (0.00010373449707031249, 2.779296875) (8.65115966796875e-05, 2.78125) (6.972299957275391e-05, 2.783203125) (5.3464828491210933e-05, 2.78515625) (3.7803905487060546e-05, 2.787109375) (2.2778453826904297e-05, 2.7890625) (8.437732696533204e-06, 2.791015625) (-5.093264102935791e-06, 2.79296875) (-1.769267654418945e-05, 2.794921875) (-2.9281154632568356e-05, 2.796875) (-3.9807167053222655e-05, 2.798828125) (-4.927765274047851e-05, 2.80078125) (-5.771637725830078e-05, 2.802734375) (-6.512010955810547e-05, 2.8046875) (-7.15094985961914e-05, 2.806640625) (-7.69427490234375e-05, 2.80859375) (-8.151329040527343e-05, 2.810546875) (-8.536505889892578e-05, 2.8125) (-8.861331939697266e-05, 2.814453125) (-9.131258392333984e-05, 2.81640625) (-9.350893402099608e-05, 2.818359375) (-9.523786163330078e-05, 2.8203125) (-9.655656433105468e-05, 2.822265625) (-9.757591247558593e-05, 2.82421875) (-9.838748168945311e-05, 2.826171875) (-9.904640197753906e-05, 2.828125) (-9.959979248046875e-05, 2.830078125) (-0.00010007174682617187, 2.83203125) (-0.00010048849487304687, 2.833984375) (-0.00010089584350585937, 2.8359375) (-0.00010130815124511718, 2.837890625) (-0.00010170179748535155, 2.83984375) (-0.00010203031158447266, 2.841796875) (-0.00010221939086914062, 2.84375) (-0.00010222260284423827, 2.845703125) (-0.00010203519439697265, 2.84765625) (-0.00010165423583984375, 2.849609375) (-0.00010108209228515625, 2.8515625) (-0.0001003140869140625, 2.853515625) (-9.932796478271484e-05, 2.85546875) (-9.812358093261718e-05, 2.857421875) (-9.67266616821289e-05, 2.859375) (-9.515956878662109e-05, 2.861328125) (-9.344613647460938e-05, 2.86328125) (-9.160646057128906e-05, 2.865234375) (-8.9650634765625e-05, 2.8671875) (-8.760881042480469e-05, 2.869140625) (-8.553228759765624e-05, 2.87109375) (-8.347738647460937e-05, 2.873046875) (-8.150738525390624e-05, 2.875) (-7.967166900634765e-05, 2.876953125) (-7.800126647949219e-05, 2.87890625) (-7.652669525146484e-05, 2.880859375) (-7.527574157714843e-05, 2.8828125) (-7.427197265625e-05, 2.884765625) (-7.353727722167968e-05, 2.88671875) (-7.308145141601563e-05, 2.888671875) (-7.290166473388672e-05, 2.890625) (-7.299836730957031e-05, 2.892578125) (-7.337435913085937e-05, 2.89453125) (-7.403132629394531e-05, 2.896484375) (-7.497257232666016e-05, 2.8984375) (-7.619372558593749e-05, 2.900390625) (-7.768263244628906e-05, 2.90234375) (-7.942687988281249e-05, 2.904296875) (-8.14129638671875e-05, 2.90625) (-8.362737274169922e-05, 2.908203125) (-8.605778503417968e-05, 2.91015625) (-8.868990325927734e-05, 2.912109375) (-9.150769042968749e-05, 2.9140625) (-9.449647521972656e-05, 2.916015625) (-9.764237976074218e-05, 2.91796875) (-0.00010093179321289062, 2.919921875) (-0.00010435173797607422, 2.921875) (-0.00010788656616210937, 2.923828125) (-0.00011151828002929687, 2.92578125) (-0.00011522857666015625, 2.927734375) (-0.0001189979019165039, 2.9296875) (-0.00012280616760253907, 2.931640625) (-0.00012663285064697265, 2.93359375) (-0.00013045635986328125, 2.935546875) (-0.00013425474548339842, 2.9375) (-0.00013800685119628905, 2.939453125) (-0.00014169192504882811, 2.94140625) (-0.00014528947448730467, 2.943359375) (-0.00014877984619140623, 2.9453125) (-0.00015214382934570313, 2.947265625) (-0.00015536318969726562, 2.94921875) (-0.00015842083740234375, 2.951171875) (-0.0001613009796142578, 2.953125) (-0.00016398947143554687, 2.955078125) (-0.00016647384643554686, 2.95703125) (-0.00016874395751953125, 2.958984375) (-0.00017079154968261718, 2.9609375) (-0.00017260946655273438, 2.962890625) (-0.0001741925811767578, 2.96484375) (-0.00017553741455078123, 2.966796875) (-0.0001766412353515625, 2.96875) (-0.0001775025939941406, 2.970703125) (-0.00017812115478515623, 2.97265625) (-0.00017849630737304688, 2.974609375) (-0.00017862852478027342, 2.9765625) (-0.00017852061462402343, 2.978515625) (-0.00017817660522460936, 2.98046875) (-0.00017760325622558594, 2.982421875) (-0.0001768104553222656, 2.984375) (-0.00017580838012695312, 2.986328125) (-0.00017460734558105468, 2.98828125) (-0.0001732191467285156, 2.990234375) (-0.00017165615844726563, 2.9921875) (-0.00016993190002441406, 2.994140625) (-0.00016806053161621092, 2.99609375) (-0.00016605288696289061, 2.998046875) (-0.00016391944885253907, 3.0) (-0.00016167413330078124, 3.001953125) (-0.00015933639526367186, 3.00390625) (-0.00015693426513671874, 3.005859375) (-0.0001544964904785156, 3.0078125) (-0.000152045166015625, 3.009765625) (-0.00014959799194335936, 3.01171875) (-0.00014716879272460936, 3.013671875) (-0.00014476524353027344, 3.015625) (-0.00014239250183105469, 3.017578125) (-0.0001400469055175781, 3.01953125) (-0.000137708984375, 3.021484375) (-0.00013535649108886719, 3.0234375) (-0.00013296807861328124, 3.025390625) (-0.00013052659606933593, 3.02734375) (-0.00012802676391601562, 3.029296875) (-0.00012546249389648438, 3.03125) (-0.0001228189239501953, 3.033203125) (-0.00012006829071044922, 3.03515625) (-0.00011716897583007812, 3.037109375) (-0.00011408389282226562, 3.0390625) (-0.00011079356384277344, 3.041015625) (-0.00010729231262207031, 3.04296875) (-0.0001035856704711914, 3.044921875) (-9.969552612304688e-05, 3.046875) (-9.56547622680664e-05, 3.048828125) (-9.153356933593749e-05, 3.05078125) (-8.744198608398437e-05, 3.052734375) (-8.348571777343749e-05, 3.0546875) (-7.977918243408202e-05, 3.056640625) (-7.642927551269531e-05, 3.05859375) (-7.352131652832031e-05, 3.060546875) (-7.116293334960937e-05, 3.0625) (-6.947398376464843e-05, 3.064453125) (-6.855879974365234e-05, 3.06640625) (-6.855174255371093e-05, 3.068359375) (-6.960295104980468e-05, 3.0703125) (-7.17469482421875e-05, 3.072265625) (-7.493486022949218e-05, 3.07421875) (-7.902022552490234e-05, 3.076171875) (-8.367980957031249e-05, 3.078125) (-8.858325195312499e-05, 3.080078125) (-9.34063720703125e-05, 3.08203125) (-9.769078826904297e-05, 3.083984375) (-0.00010096176147460937, 3.0859375) (-0.0001029376983642578, 3.087890625) (-0.00010346469879150391, 3.08984375) (-0.00010269950866699218, 3.091796875) (-0.00010121615600585937, 3.09375) (-9.950141906738281e-05, 3.095703125) (-9.797828674316406e-05, 3.09765625) (-9.70861358642578e-05, 3.099609375) (-9.699258422851562e-05, 3.1015625) (-9.776739501953125e-05, 3.103515625) (-9.949708557128905e-05, 3.10546875) (-0.00010167407226562499, 3.107421875) (-0.00010305108642578124, 3.109375) (-0.00010145952606201172, 3.111328125) (-9.381648254394531e-05, 3.11328125) (-7.781449890136718e-05, 3.115234375) (-5.247588348388672e-05, 3.1171875) (-1.927093505859375e-05, 3.119140625) (1.884743118286133e-05, 3.12109375) (6.13022232055664e-05, 3.123046875) (0.00010947176361083984, 3.125) (0.00016739341735839844, 3.126953125) (0.00023957456970214843, 3.12890625) (0.0003249791259765625, 3.130859375) (0.00041889660644531246, 3.1328125) (0.0005147755126953125, 3.134765625) (0.0006048460693359375, 3.13671875) (0.0006841767578124999, 3.138671875) (0.0007475814208984375, 3.140625) (0.0007852966918945312, 3.142578125) (0.0007860491943359375, 3.14453125) (0.000738728515625, 3.146484375) (0.0006377599487304688, 3.1484375) (0.0004898582153320312, 3.150390625) (0.00031206683349609376, 3.15234375) (0.00012884698486328124, 3.154296875) (-3.402931213378906e-05, 3.15625) (-0.00015779837036132812, 3.158203125) (-0.0002343465576171875, 3.16015625) (-0.00026680157470703125, 3.162109375) (-0.0002663296203613281, 3.1640625) (-0.00024643603515625, 3.166015625) (-0.00021693707275390625, 3.16796875) (-0.00018396525573730467, 3.169921875) (-0.000151354736328125, 3.171875) (-0.00012027227783203124, 3.173828125) (-9.37521514892578e-05, 3.17578125) (-7.36127700805664e-05, 3.177734375) (-5.8083847045898435e-05, 3.1796875) (-4.682692718505859e-05, 3.181640625) (-3.839953994750976e-05, 3.18359375) (-3.234394836425781e-05, 3.185546875) (-3.143508338928223e-05, 3.1875) (-3.6546302795410157e-05, 3.189453125) (-4.733674621582031e-05, 3.19140625) (-6.235480880737304e-05, 3.193359375) (-7.836100769042968e-05, 3.1953125) (-9.2853515625e-05, 3.197265625) (-0.00010432788848876953, 3.19921875) (-0.00011212591552734374, 3.201171875) (-0.00011647235870361327, 3.203125) (-0.00011775172424316406, 3.205078125) (-0.00011646232604980468, 3.20703125) (-0.0001133210220336914, 3.208984375) (-0.00010905371093749999, 3.2109375) (-0.00010457389831542968, 3.212890625) (-0.00010081361389160156, 3.21484375) (-9.82215576171875e-05, 3.216796875) (-9.694461822509765e-05, 3.21875) (-9.691844177246093e-05, 3.220703125) (-9.785198974609374e-05, 3.22265625) (-9.945914459228515e-05, 3.224609375) (-0.00010145591735839843, 3.2265625) (-0.00010344384765624999, 3.228515625) (-0.00010503160095214843, 3.23046875) (-0.00010600653076171874, 3.232421875) (-0.00010627269744873046, 3.234375) (-0.00010583619689941406, 3.236328125) (-0.00010478224182128905, 3.23828125) (-0.00010315277099609374, 3.240234375) (-0.00010098023986816405, 3.2421875) (-9.83302993774414e-05, 3.244140625) (-9.526853942871094e-05, 3.24609375) (-9.184976959228516e-05, 3.248046875) (-8.811515808105468e-05, 3.25) (-8.408703613281249e-05, 3.251953125) (-7.978881835937499e-05, 3.25390625) (-7.52664337158203e-05, 3.255859375) (-7.058235931396484e-05, 3.2578125) (-6.580450439453125e-05, 3.259765625) (-6.09872817993164e-05, 3.26171875) (-5.616357803344726e-05, 3.263671875) (-5.1356170654296874e-05, 3.265625) (-4.657838439941406e-05, 3.267578125) (-4.183773803710937e-05, 3.26953125) (-3.714126586914062e-05, 3.271484375) (-3.248522186279297e-05, 3.2734375) (-2.7858470916748047e-05, 3.275390625) (-2.325540733337402e-05, 3.27734375) (-1.8671384811401366e-05, 3.279296875) (-1.4102302551269531e-05, 3.28125) (-9.54706573486328e-06, 3.283203125) (-4.998146057128906e-06, 3.28515625) (-4.402593374252319e-07, 3.287109375) (4.1432461738586425e-06, 3.2890625) (8.772361755371093e-06, 3.291015625) (1.3468595504760741e-05, 3.29296875) (1.824924087524414e-05, 3.294921875) (2.3131473541259766e-05, 3.296875) (2.8133422851562497e-05, 3.298828125) (3.326895523071289e-05, 3.30078125) (3.854990768432617e-05, 3.302734375) (4.398666381835937e-05, 3.3046875) (4.95834732055664e-05, 3.306640625) (5.534353637695312e-05, 3.30859375) (6.127525329589843e-05, 3.310546875) (6.738704681396484e-05, 3.3125) (7.36905517578125e-05, 3.314453125) (8.020191955566406e-05, 3.31640625) (8.69273681640625e-05, 3.318359375) (9.386656188964843e-05, 3.3203125) (0.00010101936340332031, 3.322265625) (0.0001083752212524414, 3.32421875) (0.00011591404724121093, 3.326171875) (0.00012360858154296874, 3.328125) (0.00013141371154785155, 3.330078125) (0.00013927935791015623, 3.33203125) (0.00014717034912109373, 3.333984375) (0.00015505641174316405, 3.3359375) (0.00016291738891601563, 3.337890625) (0.00017074972534179687, 3.33984375) (0.00017854211425781248, 3.341796875) (0.00018628556823730469, 3.34375) (0.00019397653198242187, 3.345703125) (0.00020159210205078124, 3.34765625) (0.00020911264038085936, 3.349609375) (0.0002165249786376953, 3.3515625) (0.0002238006591796875, 3.353515625) (0.00023091990661621093, 3.35546875) (0.0002378841857910156, 3.357421875) (0.00024470382690429686, 3.359375) (0.00025141949462890626, 3.361328125) (0.000258086669921875, 3.36328125) (0.0002647202758789062, 3.365234375) (0.000271314697265625, 3.3671875) (0.00027784631347656247, 3.369140625) (0.0002842480773925781, 3.37109375) (0.0002904508972167969, 3.373046875) (0.00029636932373046875, 3.375) (0.00030188525390625, 3.376953125) (0.00030690795898437496, 3.37890625) (0.0003113604736328125, 3.380859375) (0.0003151652221679687, 3.3828125) (0.0003182767333984375, 3.384765625) (0.0003206490478515625, 3.38671875) (0.0003222063903808594, 3.388671875) (0.0003228692016601562, 3.390625) (0.00032253155517578125, 3.392578125) (0.00032106439208984375, 3.39453125) (0.00031839208984375, 3.396484375) (0.0003144709777832031, 3.3984375) (0.0003092753601074219, 3.400390625) (0.00030284155273437496, 3.40234375) (0.00029522686767578126, 3.404296875) (0.00028652035522460935, 3.40625) (0.0002768698120117187, 3.408203125) (0.00026640509033203124, 3.41015625) (0.00025523011779785156, 3.412109375) (0.00024344686889648436, 3.4140625) (0.00023112672424316404, 3.416015625) (0.0002183368225097656, 3.41796875) (0.00020517666625976562, 3.419921875) (0.00019174676513671873, 3.421875) (0.00017816073608398436, 3.423828125) (0.00016456265258789061, 3.42578125) (0.00015106491088867188, 3.427734375) (0.000137760986328125, 3.4296875) (0.00012474337768554687, 3.431640625) (0.00011205892181396484, 3.43359375) (9.973191833496093e-05, 3.435546875) (8.776303100585937e-05, 3.4375) (7.610462951660155e-05, 3.439453125) (6.471817779541015e-05, 3.44140625) (5.359420776367187e-05, 3.443359375) (4.2730087280273435e-05, 3.4453125) (3.2143974304199216e-05, 3.447265625) (2.1863780975341797e-05, 3.44921875) (1.1899815559387206e-05, 3.451171875) (2.266507148742676e-06, 3.453125) (-7.01848030090332e-06, 3.455078125) (-1.5959425926208495e-05, 3.45703125) (-2.455558395385742e-05, 3.458984375) (-3.280315017700195e-05, 3.4609375) (-4.070825958251953e-05, 3.462890625) (-4.825980377197265e-05, 3.46484375) (-5.543476867675781e-05, 3.466796875) (-6.220368194580077e-05, 3.46875) (-6.851853942871094e-05, 3.470703125) (-7.433581542968749e-05, 3.47265625) (-7.963156127929687e-05, 3.474609375) (-8.439016723632812e-05, 3.4765625) (-8.860694885253906e-05, 3.478515625) (-9.228862762451171e-05, 3.48046875) (-9.544178009033202e-05, 3.482421875) (-9.808106231689452e-05, 3.484375) (-0.00010023221588134765, 3.486328125) (-0.00010191624450683594, 3.48828125) (-0.00010315287780761718, 3.490234375) (-0.000103962890625, 3.4921875) (-0.00010436312866210937, 3.494140625) (-0.00010437535858154296, 3.49609375) (-0.00010402775573730468, 3.498046875) (-0.00010335029602050781, 3.5) (-0.00010237705993652344, 3.501953125) (-0.00010114381408691405, 3.50390625) (-9.968327331542968e-05, 3.505859375) (-9.80271987915039e-05, 3.5078125) (-9.620712280273437e-05, 3.509765625) (-9.425159454345703e-05, 3.51171875) (-9.218780517578125e-05, 3.513671875) (-9.004061889648437e-05, 3.515625) (-8.783073425292969e-05, 3.517578125) (-8.557878875732421e-05, 3.51953125) (-8.330656433105468e-05, 3.521484375) (-8.103553009033203e-05, 3.5234375) (-7.878726959228516e-05, 3.525390625) (-7.658252716064453e-05, 3.52734375) (-7.443997955322266e-05, 3.529296875) (-7.237744140625e-05, 3.53125) (-7.041213989257812e-05, 3.533203125) (-6.855915832519531e-05, 3.53515625) (-6.683125305175781e-05, 3.537109375) (-6.523897552490234e-05, 3.5390625) (-6.37903823852539e-05, 3.541015625) (-6.249169921874999e-05, 3.54296875) (-6.134762573242187e-05, 3.544921875) (-6.036111831665039e-05, 3.546875) (-5.953340148925781e-05, 3.548828125) (-5.886416625976562e-05, 3.55078125) (-5.8351688385009766e-05, 3.552734375) (-5.799300003051757e-05, 3.5546875) (-5.7784179687499995e-05, 3.556640625) (-5.772035598754882e-05, 3.55859375) (-5.779573822021484e-05, 3.560546875) (-5.800350952148437e-05, 3.5625) (-5.8335906982421875e-05, 3.564453125) (-5.878438949584961e-05, 3.56640625) (-5.934000396728516e-05, 3.568359375) (-5.9993412017822264e-05, 3.5703125) (-6.0734855651855466e-05, 3.572265625) (-6.155416107177734e-05, 3.57421875) (-6.244084930419921e-05, 3.576171875) (-6.338459396362304e-05, 3.578125) (-6.437548065185547e-05, 3.580078125) (-6.540396118164062e-05, 3.58203125) (-6.64605484008789e-05, 3.583984375) (-6.753561401367187e-05, 3.5859375) (-6.86197052001953e-05, 3.587890625) (-6.970339202880859e-05, 3.58984375) (-7.077750396728516e-05, 3.591796875) (-7.183332824707031e-05, 3.59375) (-7.286222839355469e-05, 3.595703125) (-7.385599517822266e-05, 3.59765625) (-7.480714416503905e-05, 3.599609375) (-7.57090835571289e-05, 3.6015625) (-7.655612182617188e-05, 3.603515625) (-7.734384155273437e-05, 3.60546875) (-7.806906127929688e-05, 3.607421875) (-7.872909545898437e-05, 3.609375) (-7.932235717773437e-05, 3.611328125) (-7.984800720214844e-05, 3.61328125) (-8.0305908203125e-05, 3.615234375) (-8.069684600830078e-05, 3.6171875) (-8.102224731445312e-05, 3.619140625) (-8.128398895263672e-05, 3.62109375) (-8.148439025878906e-05, 3.623046875) (-8.162673950195312e-05, 3.625) (-8.171526336669922e-05, 3.626953125) (-8.175475311279297e-05, 3.62890625) (-8.175049591064452e-05, 3.630859375) (-8.17086181640625e-05, 3.6328125) (-8.163648986816406e-05, 3.634765625) (-8.154237365722657e-05, 3.63671875) (-8.143569946289062e-05, 3.638671875) (-8.132581329345703e-05, 3.640625) (-8.122135162353515e-05, 3.642578125) (-8.113228607177735e-05, 3.64453125) (-8.107000732421874e-05, 3.646484375) (-8.104561614990233e-05, 3.6484375) (-8.106940460205078e-05, 3.650390625) (-8.114972686767578e-05, 3.65234375) (-8.129283905029297e-05, 3.654296875) (-8.150551605224609e-05, 3.65625) (-8.1796142578125e-05, 3.658203125) (-8.217299652099609e-05, 3.66015625) (-8.264352416992186e-05, 3.662109375) (-8.321263122558594e-05, 3.6640625) (-8.388262939453125e-05, 3.666015625) (-8.465701293945312e-05, 3.66796875) (-8.554010772705077e-05, 3.669921875) (-8.653596496582031e-05, 3.671875) (-8.764797210693359e-05, 3.673828125) (-8.887019348144531e-05, 3.67578125) (-9.018855285644531e-05, 3.677734375) (-9.159272003173828e-05, 3.6796875) (-9.307582855224609e-05, 3.681640625) (-9.463894653320312e-05, 3.68359375) (-9.629130554199218e-05, 3.685546875) (-9.803330993652343e-05, 3.6875) (-9.985597229003906e-05, 3.689453125) (-0.00010175172424316405, 3.69140625) (-0.00010371347045898437, 3.693359375) (-0.00010573341369628906, 3.6953125) (-0.00010780322265624999, 3.697265625) (-0.0001098934097290039, 3.69921875) (-0.0001119550552368164, 3.701171875) (-0.00011394049072265625, 3.703125) (-0.0001158003921508789, 3.705078125) (-0.00011751131439208984, 3.70703125) (-0.00011907197570800781, 3.708984375) (-0.00012046807861328125, 3.7109375) (-0.00012168331909179687, 3.712890625) (-0.0001226703643798828, 3.71484375) (-0.0001233502426147461, 3.716796875) (-0.00012367552947998046, 3.71875) (-0.0001236256561279297, 3.720703125) (-0.00012318335723876953, 3.72265625) (-0.00012235670471191405, 3.724609375) (-0.0001211351318359375, 3.7265625) (-0.00011945897674560546, 3.728515625) (-0.00011740818786621093, 3.73046875) (-0.00011519757080078125, 3.732421875) (-0.0001130259552001953, 3.734375) (-0.00011113159179687499, 3.736328125) (-0.00010960421752929687, 3.73828125) (-0.00010831597137451172, 3.740234375) (-0.00010727879333496093, 3.7421875) (-0.00010668058776855468, 3.744140625) (-0.00010655987548828124, 3.74609375) (-0.00010680166625976562, 3.748046875) (-0.00010718150329589844, 3.75) (-0.00010721448516845703, 3.751953125) (-0.00010667533111572265, 3.75390625) (-0.00010578991699218749, 3.755859375) (-0.00010454139709472655, 3.7578125) (-0.00010265913391113281, 3.759765625) (-9.996585083007813e-05, 3.76171875) (-9.635293579101562e-05, 3.763671875) (-9.195890045166015e-05, 3.765625) (-8.74737319946289e-05, 3.767578125) (-8.3512939453125e-05, 3.76953125) (-8.020782470703125e-05, 3.771484375) (-7.798256683349609e-05, 3.7734375) (-7.737934875488281e-05, 3.775390625) (-7.856640625e-05, 3.77734375) (-8.183840942382812e-05, 3.779296875) (-8.729640960693359e-05, 3.78125) (-9.396434020996093e-05, 3.783203125) (-0.00010052586364746094, 3.78515625) (-0.00010488521575927734, 3.787109375) (-0.0001033375244140625, 3.7890625) (-9.38431167602539e-05, 3.791015625) (-7.56751480102539e-05, 3.79296875) (-4.890125656127929e-05, 3.794921875) (-1.6118303298950195e-05, 3.796875) (2.425815963745117e-05, 3.798828125) (7.62279052734375e-05, 3.80078125) (0.00014132269287109374, 3.802734375) (0.00022240454101562498, 3.8046875) (0.00031547653198242185, 3.806640625) (0.0004118051147460937, 3.80859375) (0.0005082748413085937, 3.810546875) (0.0005993185424804687, 3.8125) (0.0006791316528320312, 3.814453125) (0.0007429180297851562, 3.81640625) (0.0007763588256835938, 3.818359375) (0.0007657934570312499, 3.8203125) (0.0007070623168945312, 3.822265625) (0.0006008564453125, 3.82421875) (0.00045845672607421875, 3.826171875) (0.0002977861633300781, 3.828125) (0.00013080413818359373, 3.830078125) (-2.9443115234375e-05, 3.83203125) (-0.00017032470703125, 3.833984375) (-0.00028507061767578124, 3.8359375) (-0.0003642557067871094, 3.837890625) (-0.00040502551269531247, 3.83984375) (-0.00041085202026367183, 3.841796875) (-0.00038386212158203123, 3.84375) (-0.0003340007629394531, 3.845703125) (-0.00027125827026367187, 3.84765625) (-0.00020611285400390624, 3.849609375) (-0.00015381985473632813, 3.8515625) (-0.000120126220703125, 3.853515625) (-0.00010485569763183594, 3.85546875) (-0.0001026780776977539, 3.857421875) (-0.00010118743896484374, 3.859375) (-9.485245513916016e-05, 3.861328125) (-8.360359954833984e-05, 3.86328125) (-6.999088287353516e-05, 3.865234375) (-6.055940628051758e-05, 3.8671875) (-5.75744743347168e-05, 3.869140625) (-5.985214614868164e-05, 3.87109375) (-6.559745025634766e-05, 3.873046875) (-7.13265151977539e-05, 3.875) (-7.509305572509765e-05, 3.876953125) (-7.651775360107422e-05, 3.87890625) (-7.544736480712891e-05, 3.880859375) (-7.245623779296875e-05, 3.8828125) (-6.810681915283203e-05, 3.884765625) (-6.253858184814452e-05, 3.88671875) (-5.606314849853515e-05, 3.888671875) (-4.915216827392578e-05, 3.890625) (-4.229902648925781e-05, 3.892578125) (-3.617034149169922e-05, 3.89453125) (-3.1141231536865234e-05, 3.896484375) (-2.7171279907226562e-05, 3.8984375) (-2.410224723815918e-05, 3.900390625) (-2.167762756347656e-05, 3.90234375) (-1.96297550201416e-05, 3.904296875) (-1.778321647644043e-05, 3.90625) (-1.592759132385254e-05, 3.908203125) (-1.377164077758789e-05, 3.91015625) (-1.1164844512939452e-05, 3.912109375) (-8.076229095458983e-06, 3.9140625) (-4.528175354003906e-06, 3.916015625) (-6.444541215896607e-07, 3.91796875) (3.4716389179229737e-06, 3.919921875) (7.774438858032226e-06, 3.921875) (1.2194825172424316e-05, 3.923828125) (1.6656679153442382e-05, 3.92578125) (2.1105176925659177e-05, 3.927734375) (2.5474912643432615e-05, 3.9296875) (2.9710060119628905e-05, 3.931640625) (3.3773735046386716e-05, 3.93359375) (3.761518096923828e-05, 3.935546875) (4.119695663452148e-05, 3.9375) (4.4498641967773435e-05, 3.939453125) (4.749945068359375e-05, 3.94140625) (5.019500732421875e-05, 3.943359375) (5.259192657470703e-05, 3.9453125) (5.4699581146240234e-05, 3.947265625) (5.654280853271484e-05, 3.94921875) (5.815256500244141e-05, 3.951171875) (5.9549682617187495e-05, 3.953125) (6.0754745483398436e-05, 3.955078125) (6.178853607177734e-05, 3.95703125) (6.267102432250977e-05, 3.958984375) (6.343299865722656e-05, 3.9609375) (6.410961914062499e-05, 3.962890625) (6.473495483398437e-05, 3.96484375) (6.534593200683593e-05, 3.966796875) (6.597808074951172e-05, 3.96875) (6.666616058349609e-05, 3.970703125) (6.744830322265625e-05, 3.97265625) (6.835850524902343e-05, 3.974609375) (6.942416381835937e-05, 3.9765625) (7.067288208007812e-05, 3.978515625) (7.212943267822265e-05, 3.98046875) (7.381979370117188e-05, 3.982421875) (7.577720642089843e-05, 3.984375) (7.802870941162109e-05, 3.986328125) (8.059214019775391e-05, 3.98828125) (8.348232269287109e-05, 3.990234375) (8.670774841308593e-05, 3.9921875) (9.026918792724608e-05, 3.994140625) (9.416327667236328e-05, 3.99609375) (9.837594604492186e-05, 3.998046875) (0.00010287991333007811, 4.0) (0.00010764763641357422, 4.001953125) (0.0001126521987915039, 4.00390625) (0.00011786904907226563, 4.005859375) (0.00012328085327148437, 4.0078125) (0.00012886955261230467, 4.009765625) (0.00013461761474609375, 4.01171875) (0.0001405037841796875, 4.013671875) (0.00014650025939941407, 4.015625) (0.0001525941162109375, 4.017578125) (0.0001587884521484375, 4.01953125) (0.00016509268188476562, 4.021484375) (0.00017152410888671875, 4.0234375) (0.000178103271484375, 4.025390625) (0.00018484933471679687, 4.02734375) (0.00019179562377929685, 4.029296875) (0.00019899180603027343, 4.03125) (0.00020647326660156248, 4.033203125) (0.0002142579345703125, 4.03515625) (0.0002223473205566406, 4.037109375) (0.0002307191162109375, 4.0390625) (0.00023933815002441405, 4.041015625) (0.00024815499877929684, 4.04296875) (0.0002571108703613281, 4.044921875) (0.00026614068603515625, 4.046875) (0.0002751486511230469, 4.048828125) (0.00028401141357421874, 4.05078125) (0.0002925862731933594, 4.052734375) (0.0003007108764648437, 4.0546875) (0.0003082275390625, 4.056640625) (0.000314989501953125, 4.05859375) (0.0003208359680175781, 4.060546875) (0.0003255927734375, 4.0625) (0.00032911016845703123, 4.064453125) (0.0003312664184570312, 4.06640625) (0.0003319700622558594, 4.068359375) (0.0003311687622070312, 4.0703125) (0.00032883258056640624, 4.072265625) (0.000324955322265625, 4.07421875) (0.00031955389404296876, 4.076171875) (0.00031266598510742185, 4.078125) (0.00030437033081054686, 4.080078125) (0.00029477947998046873, 4.08203125) (0.0002840377197265625, 4.083984375) (0.000272320068359375, 4.0859375) (0.0002597920532226562, 4.087890625) (0.00024660580444335937, 4.08984375) (0.00023292576599121093, 4.091796875) (0.00021892507934570313, 4.09375) (0.00020476054382324217, 4.095703125) (0.00019057150268554686, 4.09765625) (0.0001764710998535156, 4.099609375) (0.00016254037475585937, 4.1015625) (0.00014885162353515624, 4.103515625) (0.00013546630859375, 4.10546875) (0.00012243118286132812, 4.107421875) (0.0001097801513671875, 4.109375) (9.751994323730468e-05, 4.111328125) (8.56369400024414e-05, 4.11328125) (7.409683990478516e-05, 4.115234375) (6.28454475402832e-05, 4.1171875) (5.184302520751953e-05, 4.119140625) (4.10656509399414e-05, 4.12109375) (3.0487226486206052e-05, 4.123046875) (2.008364677429199e-05, 4.125) (9.839961051940918e-06, 4.126953125) (-2.516660690307617e-07, 4.12890625) (-1.0181785583496093e-05, 4.130859375) (-1.992230987548828e-05, 4.1328125) (-2.9448980331420896e-05, 4.134765625) (-3.873989868164062e-05, 4.13671875) (-4.777079010009766e-05, 4.138671875) (-5.651729583740234e-05, 4.140625) (-6.49458770751953e-05, 4.142578125) (-7.301729583740234e-05, 4.14453125) (-8.06885986328125e-05, 4.146484375) (-8.791299438476562e-05, 4.1484375) (-9.465536499023437e-05, 4.150390625) (-0.00010089265441894531, 4.15234375) (-0.00010660658264160155, 4.154296875) (-0.00011178609466552733, 4.15625) (-0.00011642721557617187, 4.158203125) (-0.00012053089141845702, 4.16015625) (-0.00012410888671875, 4.162109375) (-0.00012718334960937498, 4.1640625) (-0.00012977401733398438, 4.166015625) (-0.00013189903259277344, 4.16796875) (-0.00013357769775390623, 4.169921875) (-0.00013482878112792968, 4.171875) (-0.0001356751708984375, 4.173828125) (-0.000136143310546875, 4.17578125) (-0.0001362603759765625, 4.177734375) (-0.00013605453491210938, 4.1796875) (-0.00013555331420898436, 4.181640625) (-0.0001347831268310547, 4.18359375) (-0.00013377029418945311, 4.185546875) (-0.0001325404052734375, 4.1875) (-0.00013111790466308594, 4.189453125) (-0.00012952653503417967, 4.19140625) (-0.00012778822326660157, 4.193359375) (-0.00012592286682128906, 4.1953125) (-0.00012395161437988282, 4.197265625) (-0.00012189649963378905, 4.19921875) (-0.00011977942657470703, 4.201171875) (-0.00011762266540527344, 4.203125) (-0.00011544727325439453, 4.205078125) (-0.00011327281188964843, 4.20703125) (-0.00011111837768554688, 4.208984375) (-0.00010900234985351562, 4.2109375) (-0.00010694097900390624, 4.212890625) (-0.00010494862365722655, 4.21484375) (-0.00010303778076171874, 4.216796875) (-0.0001012188720703125, 4.21875) (-9.950121307373046e-05, 4.220703125) (-9.78929214477539e-05, 4.22265625) (-9.640070343017577e-05, 4.224609375) (-9.502995300292968e-05, 4.2265625) (-9.378490447998046e-05, 4.228515625) (-9.266862487792969e-05, 4.23046875) (-9.168305969238281e-05, 4.232421875) (-9.082907104492187e-05, 4.234375) (-9.010645294189453e-05, 4.236328125) (-8.951392364501953e-05, 4.23828125) (-8.904922485351562e-05, 4.240234375) (-8.870909118652343e-05, 4.2421875) (-8.84894790649414e-05, 4.244140625) (-8.838558197021485e-05, 4.24609375) (-8.839192199707031e-05, 4.248046875) (-8.850251770019531e-05, 4.25) (-8.871075439453124e-05, 4.251953125) (-8.900933837890625e-05, 4.25390625) (-8.93905029296875e-05, 4.255859375) (-8.984601593017578e-05, 4.2578125) (-9.036723327636719e-05, 4.259765625) (-9.094518280029296e-05, 4.26171875) (-9.157064056396485e-05, 4.263671875) (-9.223423767089844e-05, 4.265625) (-9.292662048339844e-05, 4.267578125) (-9.363866424560546e-05, 4.26953125) (-9.436141204833984e-05, 4.271484375) (-9.508625793457031e-05, 4.2734375) (-9.580522155761718e-05, 4.275390625) (-9.651098632812499e-05, 4.27734375) (-9.719688415527343e-05, 4.279296875) (-9.785690307617187e-05, 4.28125) (-9.848567199707031e-05, 4.283203125) (-9.907843017578124e-05, 4.28515625) (-9.963114166259765e-05, 4.287109375) (-0.00010014043426513671, 4.2890625) (-0.00010060350036621093, 4.291015625) (-0.00010101815795898437, 4.29296875) (-0.00010138285064697265, 4.294921875) (-0.00010169664001464844, 4.296875) (-0.0001019593048095703, 4.298828125) (-0.00010217121887207031, 4.30078125) (-0.00010233336639404296, 4.302734375) (-0.00010244731140136718, 4.3046875) (-0.00010251521301269531, 4.306640625) (-0.00010253970336914062, 4.30859375) (-0.00010252389526367187, 4.310546875) (-0.00010247135925292968, 4.3125) (-0.0001023860855102539, 4.314453125) (-0.00010227249908447266, 4.31640625) (-0.00010213540649414062, 4.318359375) (-0.0001019799575805664, 4.3203125) (-0.00010181161499023437, 4.322265625) (-0.00010163607788085937, 4.32421875) (-0.00010145918273925781, 4.326171875) (-0.00010128689575195313, 4.328125) (-0.00010112518310546874, 4.330078125) (-0.00010097990417480469, 4.33203125) (-0.00010085677337646484, 4.333984375) (-0.00010076126098632812, 4.3359375) (-0.00010069854736328125, 4.337890625) (-0.00010067345428466796, 4.33984375) (-0.00010069046020507812, 4.341796875) (-0.00010075358581542968, 4.34375) (-0.00010086642456054687, 4.345703125) (-0.00010103205871582031, 4.34765625) (-0.0001012530517578125, 4.349609375) (-0.0001015314483642578, 4.3515625) (-0.00010186872100830077, 4.353515625) (-0.00010226577758789063, 4.35546875) (-0.00010272291564941406, 4.357421875) (-0.0001032398223876953, 4.359375) (-0.00010381561279296875, 4.361328125) (-0.00010444884490966796, 4.36328125) (-0.00010513751220703124, 4.365234375) (-0.00010587907409667969, 4.3671875) (-0.00010667046356201171, 4.369140625) (-0.00010750813293457031, 4.37109375) (-0.00010838800048828124, 4.373046875) (-0.00010930559539794922, 4.375) (-0.00011025599670410156, 4.376953125) (-0.00011123387908935547, 4.37890625) (-0.00011223353576660156, 4.380859375) (-0.00011324893188476563, 4.3828125) (-0.00011427372741699218, 4.384765625) (-0.0001153013916015625, 4.38671875) (-0.00011632516479492187, 4.388671875) (-0.00011733818054199218, 4.390625) (-0.00011833341979980468, 4.392578125) (-0.00011930384826660155, 4.39453125) (-0.0001202423858642578, 4.396484375) (-0.00012114208221435547, 4.3984375) (-0.00012199597167968749, 4.400390625) (-0.0001227973175048828, 4.40234375) (-0.0001235395050048828, 4.404296875) (-0.00012421620178222655, 4.40625) (-0.00012482141876220702, 4.408203125) (-0.00012534947204589843, 4.41015625) (-0.000125795166015625, 4.412109375) (-0.00012615374755859375, 4.4140625) (-0.00012642091369628907, 4.416015625) (-0.00012659295654296874, 4.41796875) (-0.00012666665649414062, 4.419921875) (-0.0001266394348144531, 4.421875) (-0.00012650926208496093, 4.423828125) (-0.0001262746887207031, 4.42578125) (-0.00012593490600585936, 4.427734375) (-0.00012548968505859373, 4.4296875) (-0.000124939453125, 4.431640625) (-0.0001242852096557617, 4.43359375) (-0.0001235285873413086, 4.435546875) (-0.00012267176818847657, 4.4375) (-0.00012171748352050781, 4.439453125) (-0.00012066893005371093, 4.44140625) (-0.00011952981567382812, 4.443359375) (-0.00011830429077148438, 4.4453125) (-0.00011699691772460938, 4.447265625) (-0.00011561264038085937, 4.44921875) (-0.00011415679931640625, 4.451171875) (-0.00011263513946533203, 4.453125) (-0.00011105374908447266, 4.455078125) (-0.00010941911315917968, 4.45703125) (-0.00010773804473876952, 4.458984375) (-0.0001060176773071289, 4.4609375) (-0.000104265380859375, 4.462890625) (-0.00010248878479003905, 4.46484375) (-0.00010069561767578125, 4.466796875) (-9.889373779296874e-05, 4.46875) (-9.709098052978515e-05, 4.470703125) (-9.529517364501952e-05, 4.47265625) (-9.351400756835938e-05, 4.474609375) (-9.175504302978516e-05, 4.4765625) (-9.002565002441406e-05, 4.478515625) (-8.833294677734375e-05, 4.48046875) (-8.668374633789062e-05, 4.482421875) (-8.508448028564452e-05, 4.484375) (-8.354116821289062e-05, 4.486328125) (-8.205935668945312e-05, 4.48828125) (-8.064403533935546e-05, 4.490234375) (-7.929963684082031e-05, 4.4921875) (-7.802998352050781e-05, 4.494140625) (-7.68382568359375e-05, 4.49609375) (-7.572705078125e-05, 4.498046875) (-7.469834899902343e-05, 4.5) (-7.375357818603515e-05, 4.501953125) (-7.289362335205077e-05, 4.50390625) (-7.211885070800781e-05, 4.505859375) (-7.142910003662109e-05, 4.5078125) (-7.082367706298827e-05, 4.509765625) (-7.030131530761719e-05, 4.51171875) (-6.986017608642578e-05, 4.513671875) (-6.949781036376953e-05, 4.515625) (-6.921107482910156e-05, 4.517578125) (-6.899622344970702e-05, 4.51953125) (-6.884881591796874e-05, 4.521484375) (-6.876376342773438e-05, 4.5234375) (-6.873544311523438e-05, 4.525390625) (-6.875762176513671e-05, 4.52734375) (-6.882362365722656e-05, 4.529296875) (-6.892633056640625e-05, 4.53125) (-6.905823516845703e-05, 4.533203125) (-6.921149444580078e-05, 4.53515625) (-6.93780059814453e-05, 4.537109375) (-6.95494155883789e-05, 4.5390625) (-6.971722412109375e-05, 4.541015625) (-6.987284851074219e-05, 4.54296875) (-7.000770568847656e-05, 4.544921875) (-7.011331939697265e-05, 4.546875) (-7.018144989013671e-05, 4.548828125) (-7.020413208007812e-05, 4.55078125) (-7.017386627197265e-05, 4.552734375) (-7.008363342285156e-05, 4.5546875) (-6.99269790649414e-05, 4.556640625) (-6.969794464111328e-05, 4.55859375) (-6.939119720458984e-05, 4.560546875) (-6.900199127197265e-05, 4.5625) (-6.852612304687499e-05, 4.564453125) (-6.795994567871094e-05, 4.56640625) (-6.730036163330077e-05, 4.568359375) (-6.654483032226562e-05, 4.5703125) (-6.569149017333984e-05, 4.572265625) (-6.473919677734375e-05, 4.57421875) (-6.368756103515624e-05, 4.576171875) (-6.253700256347656e-05, 4.578125) (-6.1288818359375e-05, 4.580078125) (-5.9945159912109375e-05, 4.58203125) (-5.85091323852539e-05, 4.583984375) (-5.698478317260742e-05, 4.5859375) (-5.5376953125e-05, 4.587890625) (-5.369124603271484e-05, 4.58984375) (-5.193402099609375e-05, 4.591796875) (-5.0112289428710935e-05, 4.59375) (-4.823377990722656e-05, 4.595703125) (-4.630690765380859e-05, 4.59765625) (-4.434068298339843e-05, 4.599609375) (-4.234462738037109e-05, 4.6015625) (-4.032876968383789e-05, 4.603515625) (-3.8303421020507814e-05, 4.60546875) (-3.627919769287109e-05, 4.607421875) (-3.4266899108886715e-05, 4.609375) (-3.2277233123779296e-05, 4.611328125) (-3.032069206237793e-05, 4.61328125) (-2.840741729736328e-05, 4.615234375) (-2.6547035217285155e-05, 4.6171875) (-2.474873161315918e-05, 4.619140625) (-2.302131652832031e-05, 4.62109375) (-2.1372982025146485e-05, 4.623046875) (-1.981129264831543e-05, 4.625) (-1.834329795837402e-05, 4.626953125) (-1.6975421905517578e-05, 4.62890625) (-1.571354866027832e-05, 4.630859375) (-1.456310749053955e-05, 4.6328125) (-1.352865982055664e-05, 4.634765625) (-1.2613765716552733e-05, 4.63671875) (-1.1821107864379882e-05, 4.638671875) (-1.115238380432129e-05, 4.640625) (-1.0608217239379882e-05, 4.642578125) (-1.0188271522521972e-05, 4.64453125) (-9.890972137451171e-06, 4.646484375) (-9.713404655456543e-06, 4.6484375) (-9.651783943176269e-06, 4.650390625) (-9.701444625854491e-06, 4.65234375) (-9.85686683654785e-06, 4.654296875) (-1.0111828804016113e-05, 4.65625) (-1.0459158897399901e-05, 4.658203125) (-1.0890649795532225e-05, 4.66015625) (-1.1397342681884765e-05, 4.662109375) (-1.196957778930664e-05, 4.6640625) (-1.2597000122070312e-05, 4.666015625) (-1.3268888473510742e-05, 4.66796875) (-1.3973966598510742e-05, 4.669921875) (-1.470039653778076e-05, 4.671875) (-1.5436430931091307e-05, 4.673828125) (-1.6170543670654296e-05, 4.67578125) (-1.6891527175903318e-05, 4.677734375) (-1.7588905334472654e-05, 4.6796875) (-1.8252504348754882e-05, 4.681640625) (-1.887217330932617e-05, 4.68359375) (-1.9438539505004882e-05, 4.685546875) (-1.9943107604980467e-05, 4.6875) (-2.0377872467041015e-05, 4.689453125) (-2.0735635757446288e-05, 4.69140625) (-2.100971221923828e-05, 4.693359375) (-2.1193681716918944e-05, 4.6953125) (-2.1282432556152342e-05, 4.697265625) (-2.1272506713867187e-05, 4.69921875) (-2.1161430358886717e-05, 4.701171875) (-2.094771957397461e-05, 4.703125) (-2.063141441345215e-05, 4.705078125) (-2.0213878631591797e-05, 4.70703125) (-1.969864273071289e-05, 4.708984375) (-1.9091972351074218e-05, 4.7109375) (-1.8401123046875e-05, 4.712890625) (-1.763399887084961e-05, 4.71484375) (-1.679981994628906e-05, 4.716796875) (-1.5908907890319823e-05, 4.71875) (-1.4972277641296386e-05, 4.720703125) (-1.400217056274414e-05, 4.72265625) (-1.301041030883789e-05, 4.724609375) (-1.2007095336914062e-05, 4.7265625) (-1.1003121376037597e-05, 4.728515625) (-1.0010202407836913e-05, 4.73046875) (-9.040789604187012e-06, 4.732421875) (-8.109712600708008e-06, 4.734375) (-7.231943607330322e-06, 4.736328125) (-6.420431613922119e-06, 4.73828125) (-5.687909126281738e-06, 4.740234375) (-5.046258449554443e-06, 4.7421875) (-4.505725860595703e-06, 4.744140625) (-4.077600955963135e-06, 4.74609375) (-3.7690987586975096e-06, 4.748046875) (-3.5802512168884278e-06, 4.75) (-3.5124945640563963e-06, 4.751953125) (-3.5684032440185546e-06, 4.75390625) (-3.7540001869201658e-06, 4.755859375) (-4.08559226989746e-06, 4.7578125) (-4.57599925994873e-06, 4.759765625) (-5.227788925170898e-06, 4.76171875) (-6.042774200439453e-06, 4.763671875) (-7.017839908599853e-06, 4.765625) (-8.139888763427734e-06, 4.767578125) (-9.394842147827148e-06, 4.76953125) (-1.0756189346313476e-05, 4.771484375) (-1.2177980422973632e-05, 4.7734375) (-1.3617755889892578e-05, 4.775390625) (-1.5034598350524901e-05, 4.77734375) (-1.6391695022583007e-05, 4.779296875) (-1.767019462585449e-05, 4.78125) (-1.8845382690429686e-05, 4.783203125) (-1.9880924224853516e-05, 4.78515625) (-2.073698043823242e-05, 4.787109375) (-2.1356155395507812e-05, 4.7890625) (-2.1686140060424805e-05, 4.791015625) (-2.1699859619140623e-05, 4.79296875) (-2.136806106567383e-05, 4.794921875) (-2.0668922424316406e-05, 4.796875) (-1.961620330810547e-05, 4.798828125) (-1.8237344741821287e-05, 4.80078125) (-1.6594709396362305e-05, 4.802734375) (-1.479809284210205e-05, 4.8046875) (-1.2935661315917969e-05, 4.806640625) (-1.1089033126831055e-05, 4.80859375) (-9.354278564453125e-06, 4.810546875) (-7.803814888000488e-06, 4.8125) (-6.528583526611328e-06, 4.814453125) (-5.6354441642761226e-06, 4.81640625) (-5.195185661315918e-06, 4.818359375) (-5.323236465454102e-06, 4.8203125) (-6.172996520996093e-06, 4.822265625) (-7.800775051116942e-06, 4.82421875) (-1.018964672088623e-05, 4.826171875) (-1.318362808227539e-05, 4.828125) (-1.639333724975586e-05, 4.830078125) (-1.9393299102783203e-05, 4.83203125) (-2.1792865753173826e-05, 4.833984375) (-2.3076393127441405e-05, 4.8359375) (-2.270359420776367e-05, 4.837890625) (-2.0320133209228514e-05, 4.83984375) (-1.5769618034362793e-05, 4.841796875) (-9.400251388549805e-06, 4.84375) (-2.1026623249053956e-06, 4.845703125) (5.1697988510131834e-06, 4.84765625) (1.1560018539428711e-05, 4.849609375) (1.630318832397461e-05, 4.8515625) (1.8744083404541014e-05, 4.853515625) (1.8497104644775388e-05, 4.85546875) (1.5682783126831053e-05, 4.857421875) (1.140043830871582e-05, 4.859375) (7.762722969055175e-06, 4.861328125) (7.322887420654297e-06, 4.86328125) (1.2671506881713866e-05, 4.865234375) (2.6255756378173827e-05, 4.8671875) (5.048855972290039e-05, 4.869140625) (8.750450134277343e-05, 4.87109375) (0.00013885580444335938, 4.873046875) (0.0002042093505859375, 4.875) (0.0002806535339355469, 4.876953125) (0.0003639840087890625, 4.87890625) (0.0004492078247070312, 4.880859375) (0.0005328552856445312, 4.8828125) (0.0006142215576171874, 4.884765625) (0.0006927260742187499, 4.88671875) (0.0007663040771484375, 4.888671875) (0.00082896826171875, 4.890625) (0.0008701075439453125, 4.892578125) (0.0008771172485351562, 4.89453125) (0.0008397264404296875, 4.896484375) (0.00075422802734375, 4.8984375) (0.0006231885986328125, 4.900390625) (0.000458719482421875, 4.90234375) (0.00028022872924804686, 4.904296875) (0.0001080329360961914, 4.90625) (-3.5395278930664064e-05, 4.908203125) (-0.00013585804748535155, 4.91015625) (-0.0001916017150878906, 4.912109375) (-0.0002073782501220703, 4.9140625) (-0.00019688009643554686, 4.916015625) (-0.00017296990966796875, 4.91796875) (-0.00014282315063476563, 4.919921875) (-0.00011249153900146484, 4.921875) (-8.339977264404296e-05, 4.923828125) (-5.668400192260742e-05, 4.92578125) (-3.346432495117187e-05, 4.927734375) (-1.1550504684448242e-05, 4.9296875) (9.707982063293456e-06, 4.931640625) (3.077080154418945e-05, 4.93359375) (5.0572528839111326e-05, 4.935546875) (6.49976806640625e-05, 4.9375) (7.219238281249999e-05, 4.939453125) (7.181046295166015e-05, 4.94140625) (6.489927673339843e-05, 4.943359375) (5.4493209838867184e-05, 4.9453125) (4.2628627777099604e-05, 4.947265625) (3.072545051574707e-05, 4.94921875) (2.0240129470825194e-05, 4.951171875) (1.2059842109680175e-05, 4.953125) (6.715537071228027e-06, 4.955078125) (4.38028335571289e-06, 4.95703125) (4.73337173461914e-06, 4.958984375) (7.242036819458008e-06, 4.9609375) (1.1357114791870116e-05, 4.962890625) (1.6423337936401368e-05, 4.96484375) (2.1665523529052734e-05, 4.966796875) (2.6261804580688476e-05, 4.96875) (2.973145294189453e-05, 4.970703125) (3.199409484863281e-05, 4.97265625) (3.3172294616699215e-05, 4.974609375) (3.357733917236328e-05, 4.9765625) (3.352436828613281e-05, 4.978515625) (3.324566650390625e-05, 4.98046875) (3.303834533691406e-05, 4.982421875) (3.323712539672852e-05, 4.984375) (3.401204681396484e-05, 4.986328125) (3.540897750854492e-05, 4.98828125) (3.74051399230957e-05, 4.990234375) (3.9876708984374995e-05, 4.9921875) (4.272520065307617e-05, 4.994140625) (4.5907951354980464e-05, 4.99609375) (4.9354633331298825e-05, 4.998046875) (5.299503707885742e-05, 5.0) (5.678642272949219e-05, 5.001953125) (6.0675163269042963e-05, 5.00390625) (6.461676788330077e-05, 5.005859375) (6.857878112792968e-05, 5.0078125) (7.250616455078124e-05, 5.009765625) (7.635232543945313e-05, 5.01171875) (8.008702087402344e-05, 5.013671875) (8.367881774902344e-05, 5.015625) (8.711161041259765e-05, 5.017578125) (9.038092041015625e-05, 5.01953125) (9.348282623291016e-05, 5.021484375) (9.642728424072265e-05, 5.0234375) (9.92320098876953e-05, 5.025390625) (0.00010190468597412109, 5.02734375) (0.00010445126342773437, 5.029296875) (0.00010687751007080078, 5.03125) (0.00010918673706054687, 5.033203125) (0.00011139122009277344, 5.03515625) (0.00011350840759277343, 5.037109375) (0.00011555473327636718, 5.0390625) (0.00011754968261718749, 5.041015625) (0.00011951249694824218, 5.04296875) (0.00012146148681640625, 5.044921875) (0.00012341736602783203, 5.046875) (0.00012539911651611327, 5.048828125) (0.0001274218292236328, 5.05078125) (0.00012949937438964842, 5.052734375) (0.00013164329528808592, 5.0546875) (0.00013386383056640625, 5.056640625) (0.0001361741943359375, 5.05859375) (0.00013858848571777344, 5.060546875) (0.00014111988830566407, 5.0625) (0.00014378155517578124, 5.064453125) (0.00014658518981933594, 5.06640625) (0.0001495408935546875, 5.068359375) (0.000152658447265625, 5.0703125) (0.00015594633483886718, 5.072265625) (0.00015941024780273438, 5.07421875) (0.00016305361938476562, 5.076171875) (0.00016687791442871093, 5.078125) (0.0001708827209472656, 5.080078125) (0.00017506658935546873, 5.08203125) (0.00017942662048339844, 5.083984375) (0.00018395782470703124, 5.0859375) (0.00018865333557128904, 5.087890625) (0.00019350450134277342, 5.08984375) (0.00019850103759765623, 5.091796875) (0.00020363092041015624, 5.09375) (0.00020888034057617186, 5.095703125) (0.00021423350524902343, 5.09765625) (0.00021967266845703123, 5.099609375) (0.00022517863464355467, 5.1015625) (0.00023073046874999998, 5.103515625) (0.00023630581665039062, 5.10546875) (0.0002418807678222656, 5.107421875) (0.0002474299926757812, 5.109375) (0.00025292694091796875, 5.111328125) (0.0002583442993164062, 5.11328125) (0.00026365405273437497, 5.115234375) (0.0002688276672363281, 5.1171875) (0.0002738362731933594, 5.119140625) (0.00027865084838867184, 5.12109375) (0.00028324237060546874, 5.123046875) (0.00028758221435546874, 5.125) (0.0002916423034667969, 5.126953125) (0.0002953951416015625, 5.12890625) (0.0002988140258789062, 5.130859375) (0.0003018732299804687, 5.1328125) (0.0003045479736328125, 5.134765625) (0.000306815185546875, 5.13671875) (0.0003086534423828125, 5.138671875) (0.00031004296875, 5.140625) (0.00031096582031249996, 5.142578125) (0.0003114057922363281, 5.14453125) (0.0003113486938476562, 5.146484375) (0.00031078234863281246, 5.1484375) (0.0003096969909667969, 5.150390625) (0.00030808474731445313, 5.15234375) (0.0003059400024414062, 5.154296875) (0.0003032593994140625, 5.15625) (0.0003000417785644531, 5.158203125) (0.0002962886962890625, 5.16015625) (0.0002920040588378906, 5.162109375) (0.00028719442749023435, 5.1640625) (0.00028186865234375, 5.166015625) (0.00027603820800781246, 5.16796875) (0.00026971704101562497, 5.169921875) (0.0002629215087890625, 5.171875) (0.00025567047119140626, 5.173828125) (0.00024798478698730467, 5.17578125) (0.00023988748168945312, 5.177734375) (0.00023140336608886718, 5.1796875) (0.0002225591125488281, 5.181640625) (0.00021338294982910154, 5.18359375) (0.00020390458679199217, 5.185546875) (0.00019415489196777342, 5.1875) (0.0001841656799316406, 5.189453125) (0.00017396966552734374, 5.19140625) (0.00016360025024414061, 5.193359375) (0.0001530914306640625, 5.1953125) (0.00014247756958007813, 5.197265625) (0.00013179309082031248, 5.19921875) (0.00012107221221923827, 5.201171875) (0.00011034900665283202, 5.203125) (9.965712738037109e-05, 5.205078125) (8.902974700927734e-05, 5.20703125) (7.849944305419921e-05, 5.208984375) (6.809780883789062e-05, 5.2109375) (5.7855411529541016e-05, 5.212890625) (4.780183410644531e-05, 5.21484375) (3.7965473175048825e-05, 5.216796875) (2.8373458862304687e-05, 5.21875) (1.9051599502563475e-05, 5.220703125) (1.002389621734619e-05, 5.22265625) (1.3124793767929076e-06, 5.224609375) (-7.062219619750976e-06, 5.2265625) (-1.5081697463989256e-05, 5.228515625) (-2.2729501724243164e-05, 5.23046875) (-2.9991249084472654e-05, 5.232421875) (-3.685491561889648e-05, 5.234375) (-4.331087493896484e-05, 5.236328125) (-4.9351531982421875e-05, 5.23828125) (-5.497124481201171e-05, 5.240234375) (-6.016653442382812e-05, 5.2421875) (-6.49359130859375e-05, 5.244140625) (-6.927993774414062e-05, 5.24609375) (-7.320113372802734e-05, 5.248046875) (-7.670357513427733e-05, 5.25) (-7.979271697998047e-05, 5.251953125) (-8.247570037841797e-05, 5.25390625) (-8.476117706298828e-05, 5.255859375) (-8.665943908691406e-05, 5.2578125) (-8.818223571777343e-05, 5.259765625) (-8.934226989746093e-05, 5.26171875) (-9.015313720703125e-05, 5.263671875) (-9.062942504882813e-05, 5.265625) (-9.078654479980468e-05, 5.267578125) (-9.064086914062499e-05, 5.26953125) (-9.020957946777344e-05, 5.271484375) (-8.951002502441406e-05, 5.2734375) (-8.855975341796875e-05, 5.275390625) (-8.73770751953125e-05, 5.27734375) (-8.598059844970703e-05, 5.279296875) (-8.438938903808593e-05, 5.28125) (-8.262313079833984e-05, 5.283203125) (-8.070091247558593e-05, 5.28515625) (-7.864140319824219e-05, 5.287109375) (-7.646367645263672e-05, 5.2890625) (-7.418661499023437e-05, 5.291015625) (-7.182875061035156e-05, 5.29296875) (-6.94083251953125e-05, 5.294921875) (-6.694251251220703e-05, 5.296875) (-6.444746398925781e-05, 5.298828125) (-6.193927001953125e-05, 5.30078125) (-5.9433910369873045e-05, 5.302734375) (-5.694659042358398e-05, 5.3046875) (-5.449176788330078e-05, 5.306640625) (-5.20833625793457e-05, 5.30859375) (-4.973480224609375e-05, 5.310546875) (-4.746005630493164e-05, 5.3125) (-4.5273857116699215e-05, 5.314453125) (-4.319027328491211e-05, 5.31640625) (-4.122235107421875e-05, 5.318359375) (-3.938240051269531e-05, 5.3203125) (-3.7682106018066406e-05, 5.322265625) (-3.613273239135742e-05, 5.32421875) (-3.474501800537109e-05, 5.326171875) (-3.3527297973632814e-05, 5.328125) (-3.248508834838867e-05, 5.330078125) (-3.1623058319091796e-05, 5.33203125) (-3.094522476196289e-05, 5.333984375) (-3.0456554412841795e-05, 5.3359375) (-3.016313552856445e-05, 5.337890625) (-3.006857109069824e-05, 5.33984375) (-3.0174394607543943e-05, 5.341796875) (-3.0481647491455077e-05, 5.34375) (-3.09898509979248e-05, 5.345703125) (-3.169877243041992e-05, 5.34765625) (-3.2608661651611325e-05, 5.349609375) (-3.371311187744141e-05, 5.3515625) (-3.499965667724609e-05, 5.353515625) (-3.645880889892578e-05, 5.35546875) (-3.808174133300781e-05, 5.357421875) (-3.986564636230469e-05, 5.359375) (-4.181789779663086e-05, 5.361328125) (-4.39382209777832e-05, 5.36328125) (-4.621877288818359e-05, 5.365234375) (-4.8652667999267576e-05, 5.3671875) (-5.122767639160156e-05, 5.369140625) (-5.392779159545898e-05, 5.37109375) (-5.673647689819336e-05, 5.373046875) (-5.9620903015136714e-05, 5.375) (-6.253121948242188e-05, 5.376953125) (-6.542205810546874e-05, 5.37890625) (-6.824847412109375e-05, 5.380859375) (-7.097561645507812e-05, 5.3828125) (-7.358631896972656e-05, 5.384765625) (-7.60481185913086e-05, 5.38671875) (-7.83211441040039e-05, 5.388671875) (-8.036283874511718e-05, 5.390625) (-8.211417388916016e-05, 5.392578125) (-8.353704833984375e-05, 5.39453125) (-8.461331939697265e-05, 5.396484375) (-8.531460571289061e-05, 5.3984375) (-8.562559509277343e-05, 5.400390625) (-8.556124877929688e-05, 5.40234375) (-8.515119171142577e-05, 5.404296875) (-8.446622467041015e-05, 5.40625) (-8.36176986694336e-05, 5.408203125) (-8.269178771972656e-05, 5.41015625) (-8.177996063232422e-05, 5.412109375) (-8.098796081542969e-05, 5.4140625) (-8.039295196533203e-05, 5.416015625) (-8.008892822265625e-05, 5.41796875) (-8.015472412109374e-05, 5.419921875) (-8.065753173828125e-05, 5.421875) (-8.172676086425781e-05, 5.423828125) (-8.345858001708984e-05, 5.42578125) (-8.586124420166015e-05, 5.427734375) (-8.885391998291015e-05, 5.4296875) (-9.222130584716797e-05, 5.431640625) (-9.566799163818359e-05, 5.43359375) (-9.894264984130859e-05, 5.435546875) (-0.00010172097778320311, 5.4375) (-0.00010348616027832031, 5.439453125) (-0.00010379271697998046, 5.44140625) (-0.0001023615493774414, 5.443359375) (-9.926896667480468e-05, 5.4453125) (-9.503167724609375e-05, 5.447265625) (-9.019335174560547e-05, 5.44921875) (-8.534131622314452e-05, 5.451171875) (-8.119378662109375e-05, 5.453125) (-7.859093475341797e-05, 5.455078125) (-7.859425354003906e-05, 5.45703125) (-8.100701904296875e-05, 5.458984375) (-8.369829559326171e-05, 5.4609375) (-8.450437164306641e-05, 5.462890625) (-8.131069946289062e-05, 5.46484375) (-7.480500030517578e-05, 5.466796875) (-6.908659362792969e-05, 5.46875) (-6.467595672607422e-05, 5.470703125) (-5.841993713378906e-05, 5.47265625) (-4.220549392700195e-05, 5.474609375) (-3.5481047630310056e-06, 5.4765625) (6.267314910888671e-05, 5.478515625) (0.00015375059509277342, 5.48046875) (0.0002611548156738281, 5.482421875) (0.00037146618652343747, 5.484375) (0.0004766992492675781, 5.486328125) (0.0005733912963867187, 5.48828125) (0.0006566641235351562, 5.490234375) (0.0007205402221679687, 5.4921875) (0.0007538870849609374, 5.494140625) (0.000744113525390625, 5.49609375) (0.0006865209350585937, 5.498046875) (0.0005832877197265625, 5.5) (0.000444371337890625, 5.501953125) (0.0002861176452636719, 5.50390625) (0.00012427825927734375, 5.505859375) (-2.4629199981689453e-05, 5.5078125) (-0.00014539077758789063, 5.509765625) (-0.00022906857299804687, 5.51171875) (-0.00027366979980468747, 5.513671875) (-0.0002856625061035156, 5.515625) (-0.000277466064453125, 5.517578125) (-0.0002610561828613281, 5.51953125) (-0.00024284428405761717, 5.521484375) (-0.00022415136718749999, 5.5234375) (-0.00020300303649902342, 5.525390625) (-0.0001767527618408203, 5.52734375) (-0.00014688446044921875, 5.529296875) (-0.00011688007354736327, 5.53125) (-9.03564224243164e-05, 5.533203125) (-7.12938003540039e-05, 5.53515625) (-6.08554573059082e-05, 5.537109375) (-5.7939750671386714e-05, 5.5390625) (-6.118917083740234e-05, 5.541015625) (-6.86286163330078e-05, 5.54296875) (-7.817598724365234e-05, 5.544921875) (-8.8646728515625e-05, 5.546875) (-9.878228759765625e-05, 5.548828125) (-0.00010685073852539062, 5.55078125) (-0.00011201365661621093, 5.552734375) (-0.00011408514404296874, 5.5546875) (-0.00011308956146240234, 5.556640625) (-0.00010968209075927734, 5.55859375) (-0.00010472842407226562, 5.560546875) (-9.876068115234374e-05, 5.5625) (-9.252495574951172e-05, 5.564453125) (-8.705607604980468e-05, 5.56640625) (-8.286273956298828e-05, 5.568359375) (-8.0161376953125e-05, 5.5703125) (-7.90303955078125e-05, 5.572265625) (-7.914933013916015e-05, 5.57421875) (-8.018553161621094e-05, 5.576171875) (-8.190635681152343e-05, 5.578125) (-8.390861511230469e-05, 5.580078125) (-8.574990844726562e-05, 5.58203125) (-8.719657135009766e-05, 5.583984375) (-8.811183166503905e-05, 5.5859375) (-8.845928955078125e-05, 5.587890625) (-8.833193969726562e-05, 5.58984375) (-8.777092742919922e-05, 5.591796875) (-8.680009460449218e-05, 5.59375) (-8.549629211425781e-05, 5.595703125) (-8.392596435546875e-05, 5.59765625) (-8.214134216308594e-05, 5.599609375) (-8.018348693847656e-05, 5.6015625) (-7.806321716308594e-05, 5.603515625) (-7.579318237304688e-05, 5.60546875) (-7.34135971069336e-05, 5.607421875) (-7.098218536376953e-05, 5.609375) (-6.85655517578125e-05, 5.611328125) (-6.621292114257812e-05, 5.61328125) (-6.394522857666015e-05, 5.615234375) (-6.177251052856446e-05, 5.6171875) (-5.9695377349853516e-05, 5.619140625) (-5.7707206726074215e-05, 5.62109375) (-5.580154800415039e-05, 5.623046875) (-5.3957469940185546e-05, 5.625) (-5.2142971038818354e-05, 5.626953125) (-5.033591079711914e-05, 5.62890625) (-4.8518035888671875e-05, 5.630859375) (-4.6673637390136715e-05, 5.6328125) (-4.479120635986328e-05, 5.634765625) (-4.2850429534912106e-05, 5.63671875) (-4.0822200775146484e-05, 5.638671875) (-3.867635345458984e-05, 5.640625) (-3.638127899169922e-05, 5.642578125) (-3.3906742095947264e-05, 5.64453125) (-3.1227056503295896e-05, 5.646484375) (-2.8317184448242185e-05, 5.6484375) (-2.5152280807495115e-05, 5.650390625) (-2.1710962295532227e-05, 5.65234375) (-1.79783935546875e-05, 5.654296875) (-1.3947161674499511e-05, 5.65625) (-9.611557960510253e-06, 5.658203125) (-4.964696884155273e-06, 5.66015625) (4.731684923171997e-09, 5.662109375) (5.3115644454956055e-06, 5.6640625) (1.0960887908935546e-05, 5.666015625) (1.6947444915771484e-05, 5.66796875) (2.326224136352539e-05, 5.669921875) (2.989031219482422e-05, 5.671875) (3.681281661987305e-05, 5.673828125) (4.4008800506591796e-05, 5.67578125) (5.143947601318359e-05, 5.677734375) (5.905097198486328e-05, 5.6796875) (6.679226684570312e-05, 5.681640625) (7.461065673828125e-05, 5.68359375) (8.246812438964844e-05, 5.685546875) (9.034609985351563e-05, 5.6875) (9.821593475341796e-05, 5.689453125) (0.00010604490661621093, 5.69140625) (0.00011380213928222656, 5.693359375) (0.0001214487075805664, 5.6953125) (0.00012896597290039063, 5.697265625) (0.000136360107421875, 5.69921875) (0.0001436221008300781, 5.701171875) (0.00015073709106445311, 5.703125) (0.0001577005157470703, 5.705078125) (0.00016449983215332032, 5.70703125) (0.00017115461730957032, 5.708984375) (0.0001777169952392578, 5.7109375) (0.00018421232604980467, 5.712890625) (0.00019065670776367187, 5.71484375) (0.00019704476928710936, 5.716796875) (0.00020332855224609373, 5.71875) (0.00020946951293945312, 5.720703125) (0.0002154391174316406, 5.72265625) (0.0002211825714111328, 5.724609375) (0.00022664332580566406, 5.7265625) (0.0002317448272705078, 5.728515625) (0.00023636163330078124, 5.73046875) (0.00024039999389648437, 5.732421875) (0.00024379277038574218, 5.734375) (0.00024644493103027345, 5.736328125) (0.00024827288818359374, 5.73828125) (0.00024916055297851563, 5.740234375) (0.000248947021484375, 5.7421875) (0.0002475160522460937, 5.744140625) (0.00024477587890625, 5.74609375) (0.00024064242553710935, 5.748046875) (0.0002350777587890625, 5.75) (0.00022805474853515624, 5.751953125) (0.00021953710937499998, 5.75390625) (0.00020954310607910155, 5.755859375) (0.00019811508178710938, 5.7578125) (0.00018529974365234374, 5.759765625) (0.00017121215820312498, 5.76171875) (0.00015594998168945312, 5.763671875) (0.00013958363342285156, 5.765625) (0.00012223787689208984, 5.767578125) (0.00010404417419433594, 5.76953125) (8.515835571289062e-05, 5.771484375) (6.578793334960938e-05, 5.7734375) (4.612093353271484e-05, 5.775390625) (2.6328569412231443e-05, 5.77734375) (6.613018989562988e-06, 5.779296875) (-1.2831809997558594e-05, 5.78125) (-3.184211921691894e-05, 5.783203125) (-5.02449722290039e-05, 5.78515625) (-6.79154281616211e-05, 5.787109375) (-8.475763702392577e-05, 5.7890625) (-0.00010065155029296874, 5.791015625) (-0.000115531494140625, 5.79296875) (-0.00012934249877929687, 5.794921875) (-0.0001420166778564453, 5.796875) (-0.0001535391387939453, 5.798828125) (-0.00016391415405273436, 5.80078125) (-0.00017315159606933592, 5.802734375) (-0.00018129974365234375, 5.8046875) (-0.00018842712402343748, 5.806640625) (-0.00019460113525390625, 5.80859375) (-0.00019993798828125, 5.810546875) (-0.0002045811004638672, 5.8125) (-0.00020863446044921873, 5.814453125) (-0.00021220399475097655, 5.81640625) (-0.0002153758087158203, 5.818359375) (-0.00021821615600585935, 5.8203125) (-0.00022082431030273435, 5.822265625) (-0.0002232767639160156, 5.82421875) (-0.00022562316894531248, 5.826171875) (-0.00022791050720214842, 5.828125) (-0.00023016253662109373, 5.830078125) (-0.00023239157104492186, 5.83203125) (-0.00023461947631835936, 5.833984375) (-0.0002368558654785156, 5.8359375) (-0.0002390777130126953, 5.837890625) (-0.00024125891113281248, 5.83984375) (-0.0002433450469970703, 5.841796875) (-0.00024525642395019533, 5.84375) (-0.0002469494171142578, 5.845703125) (-0.0002483906555175781, 5.84765625) (-0.00024955088806152343, 5.849609375) (-0.00025041502380371094, 5.8515625) (-0.00025095495605468747, 5.853515625) (-0.00025114932250976563, 5.85546875) (-0.0002510030975341797, 5.857421875) (-0.0002505339660644531, 5.859375) (-0.00024976071166992185, 5.861328125) (-0.000248705078125, 5.86328125) (-0.0002473820953369141, 5.865234375) (-0.00024580621337890623, 5.8671875) (-0.0002440140686035156, 5.869140625) (-0.0002420460510253906, 5.87109375) (-0.00023994808959960936, 5.873046875) (-0.00023777598571777343, 5.875) (-0.00023556817626953124, 5.876953125) (-0.00023335406494140625, 5.87890625) (-0.0002311635284423828, 5.880859375) (-0.00022901907348632812, 5.8828125) (-0.00022694079589843748, 5.884765625) (-0.00022494683837890624, 5.88671875) (-0.00022304278564453124, 5.888671875) (-0.00022122477722167968, 5.890625) (-0.00021949310302734373, 5.892578125) (-0.00021784808349609375, 5.89453125) (-0.00021629042053222656, 5.896484375) (-0.00021482261657714843, 5.8984375) (-0.0002134394836425781, 5.900390625) (-0.00021213285827636718, 5.90234375) (-0.00021089579772949217, 5.904296875) (-0.0002097193603515625, 5.90625) (-0.00020859635925292967, 5.908203125) (-0.00020752191162109375, 5.91015625) (-0.00020648983764648437, 5.912109375) (-0.00020549453735351563, 5.9140625) (-0.00020453289794921875, 5.916015625) (-0.00020360125732421874, 5.91796875) (-0.00020269708251953125, 5.919921875) (-0.00020182015991210937, 5.921875) (-0.0002009684143066406, 5.923828125) (-0.00020013827514648436, 5.92578125) (-0.00019932620239257812, 5.927734375) (-0.0001985279541015625, 5.9296875) (-0.00019773995971679686, 5.931640625) (-0.00019696110534667968, 5.93359375) (-0.00019619105529785155, 5.935546875) (-0.0001954290771484375, 5.9375) (-0.00019467529296874998, 5.939453125) (-0.00019393058776855467, 5.94140625) (-0.00019319650268554686, 5.943359375) (-0.00019247608947753906, 5.9453125) (-0.0001917723388671875, 5.947265625) (-0.00019108621215820312, 5.94921875) (-0.00019041717529296874, 5.951171875) (-0.00018976530456542968, 5.953125) (-0.00018913156127929687, 5.955078125) (-0.00018851956176757812, 5.95703125) (-0.00018793508911132812, 5.958984375) (-0.00018738209533691405, 5.9609375) (-0.00018686334228515625, 5.962890625) (-0.0001863819580078125, 5.96484375) (-0.0001859403839111328, 5.966796875) (-0.00018554193115234374, 5.96875) (-0.0001851904296875, 5.970703125) (-0.000184883056640625, 5.97265625) (-0.00018461166381835936, 5.974609375) (-0.00018437152099609375, 5.9765625) (-0.000184159423828125, 5.978515625) (-0.00018397970581054686, 5.98046875) (-0.00018384725952148436, 5.982421875) (-0.00018376898193359374, 5.984375) (-0.00018374502563476563, 5.986328125) (-0.00018377626037597655, 5.98828125) (-0.00018385760498046874, 5.990234375) (-0.0001839818420410156, 5.9921875) (-0.00018414184570312499, 5.994140625) (-0.00018431385803222656, 5.99609375) (-0.00018445851135253906, 5.998046875) (-0.00018454179382324217, 6.0) (-0.00018452932739257812, 6.001953125) (-0.0001843968048095703, 6.00390625) (-0.00018413677978515623, 6.005859375) (-0.000183723388671875, 6.0078125) (-0.00018312278747558593, 6.009765625) (-0.00018229852294921874, 6.01171875) (-0.00018119578552246092, 6.013671875) (-0.00017977946472167968, 6.015625) (-0.0001780338897705078, 6.017578125) (-0.00017593418884277344, 6.01953125) (-0.00017347045898437498, 6.021484375) (-0.00017066278076171873, 6.0234375) (-0.00016754325866699218, 6.025390625) (-0.000164177001953125, 6.02734375) (-0.00016066339111328124, 6.029296875) (-0.00015708377075195312, 6.03125) (-0.0001535274963378906, 6.033203125) (-0.00015010255432128906, 6.03515625) (-0.00014690771484375, 6.037109375) (-0.000144057373046875, 6.0390625) (-0.00014163847351074217, 6.041015625) (-0.0001397413330078125, 6.04296875) (-0.00013852044677734374, 6.044921875) (-0.00013806221008300781, 6.046875) (-0.0001383701629638672, 6.048828125) (-0.00013933547973632812, 6.05078125) (-0.00014061920166015624, 6.052734375) (-0.00014183177185058592, 6.0546875) (-0.00014270851135253905, 6.056640625) (-0.00014291519165039062, 6.05859375) (-0.000141984375, 6.060546875) (-0.00013962416076660156, 6.0625) (-0.000135651123046875, 6.064453125) (-0.00013024896240234374, 6.06640625) (-0.00012432232666015623, 6.068359375) (-0.0001187379913330078, 6.0703125) (-0.00011399167633056641, 6.072265625) (-0.00011071226501464843, 6.07421875) (-0.00010957571411132812, 6.076171875) (-0.00011100366973876952, 6.078125) (-0.00011534397888183594, 6.080078125) (-0.00012114482116699218, 6.08203125) (-0.00012474860382080078, 6.083984375) (-0.0001232273406982422, 6.0859375) (-0.00011503652191162109, 6.087890625) (-0.00010137432861328125, 6.08984375) (-8.524649047851562e-05, 6.091796875) (-6.62729721069336e-05, 6.09375) (-3.9303649902343746e-05, 6.095703125) (4.04521369934082e-06, 6.09765625) (7.002336120605468e-05, 6.099609375) (0.00015828085327148438, 6.1015625) (0.00026088168334960935, 6.103515625) (0.00036605645751953123, 6.10546875) (0.0004677206420898437, 6.107421875) (0.0005635911254882812, 6.109375) (0.0006517847900390625, 6.111328125) (0.0007282626953125, 6.11328125) (0.0007767205200195312, 6.115234375) (0.0007785752563476562, 6.1171875) (0.0007240929565429687, 6.119140625) (0.0006116788940429687, 6.12109375) (0.0004573324584960937, 6.123046875) (0.0002851996154785156, 6.125) (0.00011346112060546874, 6.126953125) (-4.053076171875e-05, 6.12890625) (-0.00016846881103515623, 6.130859375) (-0.0002693262939453125, 6.1328125) (-0.00033838751220703124, 6.134765625) (-0.0003759598999023437, 6.13671875) (-0.0003826524047851562, 6.138671875) (-0.0003584772033691406, 6.140625) (-0.0003123358459472656, 6.142578125) (-0.00025442555236816403, 6.14453125) (-0.00019734954833984373, 6.146484375) (-0.00015350057983398437, 6.1484375) (-0.00012547604370117188, 6.150390625) (-0.00011008685302734375, 6.15234375) (-9.936013031005859e-05, 6.154296875) (-8.563711547851562e-05, 6.15625) (-6.792576599121093e-05, 6.158203125) (-4.9358444213867185e-05, 6.16015625) (-3.5424678802490235e-05, 6.162109375) (-2.973526382446289e-05, 6.1640625) (-3.187174034118652e-05, 6.166015625) (-3.9551849365234376e-05, 6.16796875) (-4.942187881469726e-05, 6.169921875) (-5.8970977783203125e-05, 6.171875) (-6.706905364990234e-05, 6.173828125) (-7.28624267578125e-05, 6.17578125) (-7.614982604980468e-05, 6.177734375) (-7.715371704101562e-05, 6.1796875) (-7.60622787475586e-05, 6.181640625) (-7.329730224609375e-05, 6.18359375) (-6.941556549072265e-05, 6.185546875) (-6.490335845947265e-05, 6.1875) (-6.0395126342773436e-05, 6.189453125) (-5.663945007324218e-05, 6.19140625) (-5.3988189697265626e-05, 6.193359375) (-5.246254730224609e-05, 6.1953125) (-5.1922615051269526e-05, 6.197265625) (-5.2017505645751954e-05, 6.19921875) (-5.245035552978515e-05, 6.201171875) (-5.30380744934082e-05, 6.203125) (-5.351000595092773e-05, 6.205078125) (-5.3569931030273434e-05, 6.20703125) (-5.306729507446289e-05, 6.208984375) (-5.192116546630859e-05, 6.2109375) (-5.014413070678711e-05, 6.212890625) (-4.78470458984375e-05, 6.21484375) (-4.508709716796875e-05, 6.216796875) (-4.192786407470703e-05, 6.21875) (-3.845718765258789e-05, 6.220703125) (-3.474090957641601e-05, 6.22265625) (-3.085373687744141e-05, 6.224609375) (-2.6861331939697265e-05, 6.2265625) (-2.280995178222656e-05, 6.228515625) (-1.875398826599121e-05, 6.23046875) (-1.4740509033203124e-05, 6.232421875) (-1.0784596443176268e-05, 6.234375) (-6.900988101959228e-06, 6.236328125) (-3.097755193710327e-06, 6.23828125) (6.328767538070679e-07, 6.240234375) (4.280395984649658e-06, 6.2421875) (7.846240997314453e-06, 6.244140625) (1.1347583770751953e-05, 6.24609375) (1.4787725448608397e-05, 6.248046875) (1.8183731079101562e-05, 6.25) (2.155403137207031e-05, 6.251953125) (2.490291404724121e-05, 6.25390625) (2.8246219635009765e-05, 6.255859375) (3.160820770263672e-05, 6.2578125) (3.501100921630859e-05, 6.259765625) (3.8484985351562496e-05, 6.26171875) (4.206061553955078e-05, 6.263671875) (4.575222015380859e-05, 6.265625) (4.957553100585937e-05, 6.267578125) (5.3548755645751954e-05, 6.26953125) (5.76822280883789e-05, 6.271484375) (6.199020385742188e-05, 6.2734375) (6.648213195800781e-05, 6.275390625) (7.115853881835937e-05, 6.27734375) (7.602659606933593e-05, 6.279296875) (8.109534454345703e-05, 6.28125) (8.637589263916015e-05, 6.283203125) (9.18852310180664e-05, 6.28515625) (9.76338882446289e-05, 6.287109375) (0.00010362297058105469, 6.2890625) (0.00010984849548339843, 6.291015625) (0.00011629936218261718, 6.29296875) (0.000122952392578125, 6.294921875) (0.0001297787322998047, 6.296875) (0.0001367444610595703, 6.298828125) (0.00014380947875976562, 6.30078125) (0.00015094235229492188, 6.302734375) (0.0001581188049316406, 6.3046875) (0.00016532574462890624, 6.306640625) (0.00017256344604492187, 6.30859375) (0.00017983227539062499, 6.310546875) (0.00018713348388671875, 6.3125) (0.00019445455932617188, 6.314453125) (0.000201767822265625, 6.31640625) (0.00020904730224609373, 6.318359375) (0.00021627029418945311, 6.3203125) (0.00022341940307617187, 6.322265625) (0.00023048260498046875, 6.32421875) (0.00023746459960937498, 6.326171875) (0.00024438249206542965, 6.328125) (0.00025126336669921873, 6.330078125) (0.00025814483642578126, 6.33203125) (0.00026504208374023437, 6.333984375) (0.0002719466857910156, 6.3359375) (0.00027881829833984373, 6.337890625) (0.0002855837707519531, 6.33984375) (0.00029215350341796874, 6.341796875) (0.00029842022705078126, 