(0.00024846276855468747, 0.0) (0.00034681332397460936, 0.001953125) (0.000405828125, 0.00390625) (0.00041456188964843747, 0.005859375) (0.00038004205322265624, 0.0078125) (0.00032103060913085934, 0.009765625) (0.00025723828125, 0.01171875) (0.00020267626953125, 0.013671875) (0.00016012283325195312, 0.015625) (0.00012311229705810547, 0.017578125) (8.50122299194336e-05, 0.01953125) (4.379971313476562e-05, 0.021484375) (4.8906531333923335e-06, 0.0234375) (-1.9074800491333007e-05, 0.025390625) (-1.7079402923583984e-05, 0.02734375) (1.4354655265808106e-05, 0.029296875) (7.144752502441406e-05, 0.03125) (0.00014296295166015625, 0.033203125) (0.00021704078674316405, 0.03515625) (0.00028787313842773435, 0.037109375) (0.0003531611328125, 0.0390625) (0.0004133961181640625, 0.041015625) (0.00046805322265625, 0.04296875) (0.0005116371154785156, 0.044921875) (0.0005365208740234375, 0.046875) (0.0005347694702148438, 0.048828125) (0.0005019161682128906, 0.05078125) (0.00043786572265624995, 0.052734375) (0.0003471643676757812, 0.0546875) (0.00023993682861328124, 0.056640625) (0.00012722784423828125, 0.05859375) (2.145783042907715e-05, 0.060546875) (-6.701759338378906e-05, 0.0625) (-0.00013571739196777344, 0.064453125) (-0.0001862213134765625, 0.06640625) (-0.00022464198303222656, 0.068359375) (-0.0002587538146972656, 0.0703125) (-0.00029096566772460935, 0.072265625) (-0.00032091693115234374, 0.07421875) (-0.000346364013671875, 0.076171875) (-0.0003637013244628906, 0.078125) (-0.00037249337768554685, 0.080078125) (-0.00037444665527343747, 0.08203125) (-0.000371531494140625, 0.083984375) (-0.00036629354858398435, 0.0859375) (-0.00036029055786132813, 0.087890625) (-0.00035379559326171873, 0.08984375) (-0.00034688214111328123, 0.091796875) (-0.0003397595825195312, 0.09375) (-0.00033279727172851563, 0.095703125) (-0.0003263987426757812, 0.09765625) (-0.0003210055236816406, 0.099609375) (-0.0003167157592773437, 0.1015625) (-0.00031326092529296876, 0.103515625) (-0.00031055853271484376, 0.10546875) (-0.0003085923156738281, 0.107421875) (-0.00030703179931640623, 0.109375) (-0.00030540414428710934, 0.111328125) (-0.0003032538452148437, 0.11328125) (-0.0003000450134277344, 0.115234375) (-0.00029554687499999997, 0.1171875) (-0.00028988574218749997, 0.119140625) (-0.00028319781494140625, 0.12109375) (-0.00027567636108398436, 0.123046875) (-0.00026768536376953124, 0.125) (-0.00025965621948242186, 0.126953125) (-0.000251981689453125, 0.12890625) (-0.0002450504150390625, 0.130859375) (-0.00023908486938476562, 0.1328125) (-0.00023413446044921873, 0.134765625) (-0.0002301750793457031, 0.13671875) (-0.00022707606506347654, 0.138671875) (-0.00022464013671875, 0.140625) (-0.00022264349365234374, 0.142578125) (-0.00022092214965820312, 0.14453125) (-0.00021935906982421875, 0.146484375) (-0.00021787074279785155, 0.1484375) (-0.0002163952178955078, 0.150390625) (-0.00021484564208984374, 0.15234375) (-0.00021316781616210936, 0.154296875) (-0.00021135003662109373, 0.15625) (-0.00020940562438964843, 0.158203125) (-0.00020732682800292968, 0.16015625) (-0.000205063232421875, 0.162109375) (-0.00020253805541992187, 0.1640625) (-0.00019965301513671875, 0.166015625) (-0.00019636187744140625, 0.16796875) (-0.00019266560363769532, 0.169921875) (-0.0001885632629394531, 0.171875) (-0.00018405426025390625, 0.173828125) (-0.00017912896728515624, 0.17578125) (-0.00017378514099121092, 0.177734375) (-0.000168049072265625, 0.1796875) (-0.00016198434448242186, 0.181640625) (-0.00015566288757324219, 0.18359375) (-0.00014912736511230469, 0.185546875) (-0.0001424022216796875, 0.1875) (-0.0001354971160888672, 0.189453125) (-0.00012842872619628907, 0.19140625) (-0.00012123731994628906, 0.193359375) (-0.00011397711181640624, 0.1953125) (-0.00010671113586425781, 0.197265625) (-9.948116302490234e-05, 0.19921875) (-9.230443572998046e-05, 0.201171875) (-8.519256591796874e-05, 0.203125) (-7.814805603027344e-05, 0.205078125) (-7.11627197265625e-05, 0.20703125) (-6.422238159179687e-05, 0.208984375) (-5.729186630249023e-05, 0.2109375) (-5.031320953369141e-05, 0.212890625) (-4.3243011474609375e-05, 0.21484375) (-3.605202865600586e-05, 0.216796875) (-2.8718145370483397e-05, 0.21875) (-2.1241134643554687e-05, 0.220703125) (-1.3614209175109863e-05, 0.22265625) (-5.8081407546997066e-06, 0.224609375) (2.213395595550537e-06, 0.2265625) (1.0508326530456543e-05, 0.228515625) (1.9138648986816404e-05, 0.23046875) (2.8125455856323242e-05, 0.232421875) (3.746961212158203e-05, 0.234375) (4.715277862548828e-05, 0.236328125) (5.711210632324219e-05, 0.23828125) (6.727590942382812e-05, 0.240234375) (7.754830932617186e-05, 0.2421875) (8.779557800292968e-05, 0.244140625) (9.791089630126952e-05, 0.24609375) (0.00010780255889892578, 0.248046875) (0.00011737874603271484, 0.25) (0.00012658018493652342, 0.251953125) (0.00013534568786621094, 0.25390625) (0.0001435821838378906, 0.255859375) (0.00015119342041015625, 0.2578125) (0.0001580568084716797, 0.259765625) (0.00016402540588378905, 0.26171875) (0.00016900592041015625, 0.263671875) (0.00017293655395507812, 0.265625) (0.00017577328491210937, 0.267578125) (0.00017753599548339842, 0.26953125) (0.00017826600646972656, 0.271484375) (0.00017803642272949219, 0.2734375) (0.00017698028564453125, 0.275390625) (0.0001752118682861328, 0.27734375) (0.00017281982421875, 0.279296875) (0.0001698916778564453, 0.28125) (0.00016648353576660156, 0.283203125) (0.00016264703369140625, 0.28515625) (0.00015846810913085937, 0.287109375) (0.00015403471374511718, 0.2890625) (0.00014944984436035156, 0.291015625) (0.00014484918212890623, 0.29296875) (0.00014033499145507813, 0.294921875) (0.00013598944091796874, 0.296875) (0.00013189418029785157, 0.298828125) (0.0001280843505859375, 0.30078125) (0.00012457296752929687, 0.302734375) (0.00012134965515136718, 0.3046875) (0.0001183546676635742, 0.306640625) (0.00011553767395019531, 0.30859375) (0.0001128783950805664, 0.310546875) (0.0001103637466430664, 0.3125) (0.00010800189208984374, 0.314453125) (0.00010581066131591797, 0.31640625) (0.00010378953552246094, 0.318359375) (0.00010194218444824218, 0.3203125) (0.0001002748031616211, 0.322265625) (9.877060699462891e-05, 0.32421875) (9.741883087158202e-05, 0.326171875) (9.621204376220703e-05, 0.328125) (9.513420867919922e-05, 0.330078125) (9.418910217285156e-05, 0.33203125) (9.339238739013671e-05, 0.333984375) (9.276591491699218e-05, 0.3359375) (9.234992980957031e-05, 0.337890625) (9.217873382568359e-05, 0.33984375) (9.226654052734375e-05, 0.341796875) (9.262142944335937e-05, 0.34375) (9.324083709716796e-05, 0.345703125) (9.410968017578125e-05, 0.34765625) (9.521227264404296e-05, 0.349609375) (9.652159118652343e-05, 0.3515625) (9.800193786621093e-05, 0.353515625) (9.963018035888671e-05, 0.35546875) (0.00010138610839843749, 0.357421875) (0.00010324659729003906, 0.359375) (0.0001051840362548828, 0.361328125) (0.0001071549072265625, 0.36328125) (0.00010911186218261718, 0.365234375) (0.00011101612854003905, 0.3671875) (0.00011283090209960937, 0.369140625) (0.00011451876831054687, 0.37109375) (0.00011604651641845702, 0.373046875) (0.00011738024139404297, 0.375) (0.00011849837493896483, 0.376953125) (0.00011940493774414062, 0.37890625) (0.00012011116027832031, 0.380859375) (0.00012063558959960937, 0.3828125) (0.0001209944839477539, 0.384765625) (0.00012118177795410156, 0.38671875) (0.00012118800354003906, 0.388671875) (0.00012101133728027344, 0.390625) (0.00012066545104980468, 0.392578125) (0.00012019180297851562, 0.39453125) (0.00011963716888427734, 0.396484375) (0.00011902142333984374, 0.3984375) (0.00011834085845947265, 0.400390625) (0.00011758946990966797, 0.40234375) (0.00011674453735351563, 0.404296875) (0.00011579646301269531, 0.40625) (0.0001147403793334961, 0.408203125) (0.00011347213745117186, 0.41015625) (0.00011180693054199218, 0.412109375) (0.00010951319885253906, 0.4140625) (0.00010636679077148438, 0.416015625) (0.00010226846313476562, 0.41796875) (9.726506805419921e-05, 0.419921875) (9.137915802001952e-05, 0.421875) (8.447199249267578e-05, 0.423828125) (7.646406555175781e-05, 0.42578125) (6.7466796875e-05, 0.427734375) (5.7878456115722656e-05, 0.4296875) (4.8327445983886716e-05, 0.431640625) (3.921844482421875e-05, 0.43359375) (3.0546772003173826e-05, 0.435546875) (2.222402763366699e-05, 0.4375) (1.4447390556335449e-05, 0.439453125) (7.47337818145752e-06, 0.44140625) (1.35873544216156e-06, 0.443359375) (-4.326493263244629e-06, 0.4453125) (-1.0598988533020019e-05, 0.447265625) (-1.840271186828613e-05, 0.44921875) (-2.8138694763183593e-05, 0.451171875) (-3.985540390014648e-05, 0.453125) (-5.373166275024414e-05, 0.455078125) (-6.945634460449218e-05, 0.45703125) (-8.609175872802735e-05, 0.458984375) (-0.00010252185058593749, 0.4609375) (-0.00011673101806640624, 0.462890625) (-0.00012764755249023438, 0.46484375) (-0.00013557669067382812, 0.466796875) (-0.00013966717529296876, 0.46875) (-0.00013849151611328124, 0.470703125) (-0.0001285123291015625, 0.47265625) (-0.00010445101928710936, 0.474609375) (-6.359612274169922e-05, 0.4765625) (-5.362914562225341e-06, 0.478515625) (6.731973266601562e-05, 0.48046875) (0.00014915496826171874, 0.482421875) (0.0002362528381347656, 0.484375) (0.00032411041259765625, 0.486328125) (0.00040915060424804683, 0.48828125) (0.00048682821655273437, 0.490234375) (0.0005491712646484375, 0.4921875) (0.0005897185668945312, 0.494140625) (0.0006020545043945312, 0.49609375) (0.0005823146362304687, 0.498046875) (0.0005327445678710937, 0.5) (0.0004562461547851562, 0.501953125) (0.00035918164062499996, 0.50390625) (0.00025150538635253906, 0.505859375) (0.00014195730590820313, 0.5078125) (4.1570209503173826e-05, 0.509765625) (-4.040339660644531e-05, 0.51171875) (-0.00010152743530273438, 0.513671875) (-0.00014285235595703125, 0.515625) (-0.0001701690216064453, 0.517578125) (-0.0001909799041748047, 0.51953125) (-0.00020815150451660154, 0.521484375) (-0.00022153994750976562, 0.5234375) (-0.00022892733764648437, 0.525390625) (-0.00022772300720214843, 0.52734375) (-0.00021863687133789062, 0.529296875) (-0.00020438262939453125, 0.53125) (-0.0001882090148925781, 0.533203125) (-0.0001731710205078125, 0.53515625) (-0.00016085202026367186, 0.537109375) (-0.00015229269409179687, 0.5390625) (-0.0001483609619140625, 0.541015625) (-0.0001491085205078125, 0.54296875) (-0.00015422706604003905, 0.544921875) (-0.00016300781249999999, 0.546875) (-0.00017422525024414061, 0.548828125) (-0.00018684300231933593, 0.55078125) (-0.00019990515136718748, 0.552734375) (-0.0002121224365234375, 0.5546875) (-0.00022231414794921875, 0.556640625) (-0.00022979234313964843, 0.55859375) (-0.00023424835205078124, 0.560546875) (-0.0002358053741455078, 0.5625) (-0.00023492074584960938, 0.564453125) (-0.00023201834106445312, 0.56640625) (-0.00022756462097167968, 0.568359375) (-0.00022227500915527343, 0.5703125) (-0.00021688734436035154, 0.572265625) (-0.00021187631225585936, 0.57421875) (-0.00020746916198730468, 0.576171875) (-0.00020368612670898436, 0.578125) (-0.0002004263458251953, 0.580078125) (-0.0001975980224609375, 0.58203125) (-0.00019510443115234373, 0.583984375) (-0.00019271888732910156, 0.5859375) (-0.0001901183319091797, 0.587890625) (-0.00018711781311035156, 0.58984375) (-0.00018367469787597656, 0.591796875) (-0.00017982241821289062, 0.59375) (-0.00017566680908203124, 0.595703125) (-0.00017130316162109374, 0.59765625) (-0.0001668076171875, 0.599609375) (-0.000162333984375, 0.6015625) (-0.00015809181213378905, 0.603515625) (-0.00015421432495117186, 0.60546875) (-0.00015077828979492188, 0.607421875) (-0.00014780551147460937, 0.609375) (-0.00014523269653320313, 0.611328125) (-0.0001430115966796875, 0.61328125) (-0.0001410956115722656, 0.615234375) (-0.00013939898681640626, 0.6171875) (-0.00013786671447753906, 0.619140625) (-0.00013645606994628905, 0.62109375) (-0.0001351030578613281, 0.623046875) (-0.00013377490234374998, 0.625) (-0.0001324716796875, 0.626953125) (-0.00013116755676269531, 0.62890625) (-0.00012983453369140623, 0.630859375) (-0.00012841693115234375, 0.6328125) (-0.0001267983627319336, 0.634765625) (-0.00012491519927978516, 0.63671875) (-0.0001227688980102539, 0.638671875) (-0.00012039169311523438, 0.640625) (-0.00011787267303466797, 0.642578125) (-0.00011531553649902343, 0.64453125) (-0.00011281521606445312, 0.646484375) (-0.00011053009033203124, 0.6484375) (-0.00010864176940917968, 0.650390625) (-0.00010722367858886719, 0.65234375) (-0.00010629219818115233, 0.654296875) (-0.00010577201080322265, 0.65625) (-0.00010542090606689453, 0.658203125) (-0.00010504608917236327, 0.66015625) (-0.00010451876831054687, 0.662109375) (-0.00010364879608154297, 0.6640625) (-0.0001023454360961914, 0.666015625) (-0.00010068887329101561, 0.66796875) (-9.880044555664062e-05, 0.669921875) (-9.698622894287109e-05, 0.671875) (-9.576206970214843e-05, 0.673828125) (-9.54328155517578e-05, 0.67578125) (-9.616256713867187e-05, 0.677734375) (-9.810382080078124e-05, 0.6796875) (-0.00010104013061523438, 0.681640625) (-0.00010444112396240234, 0.68359375) (-0.00010759449768066405, 0.685546875) (-0.00010934941101074218, 0.6875) (-0.00010836063385009765, 0.689453125) (-0.00010357579040527343, 0.69140625) (-9.402900695800781e-05, 0.693359375) (-7.888821411132812e-05, 0.6953125) (-5.7974205017089843e-05, 0.697265625) (-3.163175773620605e-05, 0.69921875) (-7.011642456054687e-07, 0.701171875) (3.318549728393555e-05, 0.703125) (6.811022186279297e-05, 0.705078125) (0.00010222702026367187, 0.70703125) (0.00013348455810546875, 0.708984375) (0.00015998898315429687, 0.7109375) (0.00018053428649902344, 0.712890625) (0.00019443829345703123, 0.71484375) (0.00020162835693359374, 0.716796875) (0.00020286459350585937, 0.71875) (0.0001992063446044922, 0.720703125) (0.00019188511657714842, 0.72265625) (0.00018254042053222655, 0.724609375) (0.00017263549804687498, 0.7265625) (0.00016311328124999998, 0.728515625) (0.0001546407012939453, 0.73046875) (0.00014747637939453124, 0.732421875) (0.00014142041015624999, 0.734375) (0.00013619639587402344, 0.736328125) (0.00013135670471191405, 0.73828125) (0.0001261725311279297, 0.740234375) (0.0001201570816040039, 0.7421875) (0.00011313783264160155, 0.744140625) (0.00010504067993164062, 0.74609375) (9.600186157226562e-05, 0.748046875) (8.624826049804687e-05, 0.75) (7.592920684814453e-05, 0.751953125) (6.528861236572265e-05, 0.75390625) (5.465541839599609e-05, 0.755859375) (4.422015380859375e-05, 0.7578125) (3.4095520019531245e-05, 0.759765625) (2.4353227615356446e-05, 0.76171875) (1.4976711273193359e-05, 0.763671875) (5.9939498901367186e-06, 0.765625) (-2.5116076469421385e-06, 0.767578125) (-1.0476032257080078e-05, 0.76953125) (-1.7819332122802733e-05, 0.771484375) (-2.446942901611328e-05, 0.7734375) (-3.0390163421630858e-05, 0.775390625) (-3.5532260894775386e-05, 0.77734375) (-3.984059906005859e-05, 0.779296875) (-4.3263427734375e-05, 0.78125) (-4.573983001708984e-05, 0.783203125) (-4.7226974487304684e-05, 0.78515625) (-4.770059585571289e-05, 0.787109375) (-4.7147865295410154e-05, 0.7890625) (-4.558039093017578e-05, 0.791015625) (-4.300588226318359e-05, 0.79296875) (-3.9425880432128905e-05, 0.794921875) (-3.4884281158447266e-05, 0.796875) (-2.9450618743896482e-05, 0.798828125) (-2.3216407775878906e-05, 0.80078125) (-1.6306304931640623e-05, 0.802734375) (-8.791059494018554e-06, 0.8046875) (-6.894242763519287e-07, 0.806640625) (7.959341526031493e-06, 0.80859375) (1.7113216400146483e-05, 0.810546875) (2.670674133300781e-05, 0.8125) (3.6642372131347654e-05, 0.814453125) (4.685934448242187e-05, 0.81640625) (5.732190704345703e-05, 0.818359375) (6.799697875976562e-05, 0.8203125) (7.88709259033203e-05, 0.822265625) (8.990667724609375e-05, 0.82421875) (0.00010104325866699218, 0.826171875) (0.0001122576904296875, 0.828125) (0.00012354965209960937, 0.830078125) (0.00013490646362304687, 0.83203125) (0.00014631112670898436, 0.833984375) (0.00015766412353515624, 0.8359375) (0.00016878102111816406, 0.837890625) (0.00017952879333496094, 0.83984375) (0.00018982571411132811, 0.841796875) (0.00019962812805175782, 0.84375) (0.00020893368530273436, 0.845703125) (0.00021770236206054686, 0.84765625) (0.00022586849975585936, 0.849609375) (0.00023336569213867187, 0.8515625) (0.0002401522521972656, 0.853515625) (0.0002462223815917969, 0.85546875) (0.00025150863647460935, 0.857421875) (0.00025586785888671875, 0.859375) (0.00025909637451171873, 0.861328125) (0.0002609501647949219, 0.86328125) (0.000261277099609375, 0.865234375) (0.0002601727294921875, 0.8671875) (0.00025780499267578124, 0.869140625) (0.0002542422943115234, 0.87109375) (0.0002497000732421875, 0.873046875) (0.0002444311981201172, 0.875) (0.00023882614135742187, 0.876953125) (0.00023372695922851562, 0.87890625) (0.0002298673095703125, 0.880859375) (0.00022752383422851562, 0.8828125) (0.00022690277099609373, 0.884765625) (0.00022810968017578125, 0.88671875) (0.0002308962707519531, 0.888671875) (0.00023512240600585937, 0.890625) (0.0002403740234375, 0.892578125) (0.00024525460815429687, 0.89453125) (0.00024840283203125, 0.896484375) (0.00024893005371093746, 0.8984375) (0.00024594227600097655, 0.900390625) (0.00023950350952148437, 0.90234375) (0.00023077084350585936, 0.904296875) (0.00022058464050292968, 0.90625) (0.00021026229858398437, 0.908203125) (0.00020115342712402344, 0.91015625) (0.00019328146362304686, 0.912109375) (0.00018729248046875, 0.9140625) (0.00018491221618652343, 0.916015625) (0.00018973486328125, 0.91796875) (0.00020775704956054687, 0.919921875) (0.000244466796875, 0.921875) (0.0003027383117675781, 0.923828125) (0.0003806023559570312, 0.92578125) (0.0004718014221191406, 0.927734375) (0.0005695154418945312, 0.9296875) (0.0006681889038085937, 0.931640625) (0.0007647565307617188, 0.93359375) (0.000857768310546875, 0.935546875) (0.0009433353271484375, 0.9375) (0.00101447802734375, 0.939453125) (0.0010638748779296875, 0.94140625) (0.0010842454833984376, 0.943359375) (0.00107215478515625, 0.9453125) (0.001029869384765625, 0.947265625) (0.0009607279663085937, 0.94921875) (0.0008714119262695312, 0.951171875) (0.00077146240234375, 0.953125) (0.000669697998046875, 0.955078125) (0.000577435302734375, 0.95703125) (0.0005038070678710937, 0.958984375) (0.0004511947326660156, 0.9609375) (0.00041805465698242187, 0.962890625) (0.0003976077880859375, 0.96484375) (0.0003818489990234375, 0.966796875) (0.00036756982421875, 0.96875) (0.00035470819091796874, 0.970703125) (0.0003458812255859375, 0.97265625) (0.000344077880859375, 0.974609375) (0.00034886300659179686, 0.9765625) (0.00035794976806640625, 0.978515625) (0.0003686008911132812, 0.98046875) (0.0003782911987304687, 0.982421875) (0.00038615332031249997, 0.984375) (0.00039192901611328124, 0.986328125) (0.00039508221435546876, 0.98828125) (0.00039564410400390624, 0.990234375) (0.00039396691894531247, 0.9921875) (0.0003905426330566406, 0.994140625) (0.000386211669921875, 0.99609375) (0.00038165792846679686, 0.998046875) (0.00037729833984374996, 1.0) (0.00037378524780273435, 1.001953125) (0.00037199932861328125, 1.00390625) (0.00037239300537109376, 1.005859375) (0.0003750118408203125, 1.0078125) (0.0003796808471679687, 1.009765625) (0.00038594274902343747, 1.01171875) (0.00039339010620117185, 1.013671875) (0.0004017447814941406, 1.015625) (0.000410492431640625, 1.017578125) (0.00041891851806640624, 1.01953125) (0.00042656640624999997, 1.021484375) (0.0004332161254882812, 1.0234375) (0.00043881121826171875, 1.025390625) (0.0004435122680664062, 1.02734375) (0.0004474461669921875, 1.029296875) (0.00045067114257812496, 1.03125) (0.00045339831542968745, 1.033203125) (0.0004559501953125, 1.03515625) (0.0004585814208984375, 1.037109375) (0.00046149633789062497, 1.0390625) (0.0004647960205078125, 1.041015625) (0.0004684585266113281, 1.04296875) (0.00047248251342773434, 1.044921875) (0.00047688452148437495, 1.046875) (0.00048164514160156245, 1.048828125) (0.00048672766113281245, 1.05078125) (0.0004920823974609374, 1.052734375) (0.000497644287109375, 1.0546875) (0.0005033696899414062, 1.056640625) (0.0005092359008789062, 1.05859375) (0.0005152112426757812, 1.060546875) (0.0005212607421875, 1.0625) (0.0005273321533203124, 1.064453125) (0.0005333576049804688, 1.06640625) (0.0005392691650390625, 1.068359375) (0.0005449964599609375, 1.0703125) (0.0005504849853515625, 1.072265625) (0.000555697509765625, 1.07421875) (0.0005606010742187499, 1.076171875) (0.0005651710205078125, 1.078125) (0.0005693909912109375, 1.080078125) (0.0005732504882812499, 1.08203125) (0.0005767503051757812, 1.083984375) (0.00057990283203125, 1.0859375) (0.0005827154541015625, 1.087890625) (0.0005851923217773437, 1.08984375) (0.0005873388061523437, 1.091796875) (0.0005891580200195312, 1.09375) (0.0005906586914062499, 1.095703125) (0.0005918539428710937, 1.09765625) (0.0005927560424804687, 1.099609375) (0.0005933778686523437, 1.1015625) (0.0005937312622070313, 1.103515625) (0.0005938253173828125, 1.10546875) (0.0005936701049804687, 1.107421875) (0.0005932752075195313, 1.109375) (0.0005926488647460937, 1.111328125) (0.0005917988281249999, 1.11328125) (0.0005907310791015625, 1.115234375) (0.0005894487915039063, 1.1171875) (0.0005879566650390625, 1.119140625) (0.00058626123046875, 1.12109375) (0.00058436865234375, 1.123046875) (0.000582285888671875, 1.125) (0.0005800186157226562, 1.126953125) (0.0005775711059570313, 1.12890625) (0.00057494775390625, 1.130859375) (0.000572152587890625, 1.1328125) (0.00056918896484375, 1.134765625) (0.000566058349609375, 1.13671875) (0.0005627615356445312, 1.138671875) (0.000559297607421875, 1.140625) (0.0005556651611328125, 1.142578125) (0.0005518624267578124, 1.14453125) (0.0005478872070312499, 1.146484375) (0.0005437369384765625, 1.1484375) (0.000539408935546875, 1.150390625) (0.000534899658203125, 1.15234375) (0.0005302056274414062, 1.154296875) (0.0005253231201171875, 1.15625) (0.0005202494506835937, 1.158203125) (0.0005149822387695313, 1.16015625) (0.0005095198974609374, 1.162109375) (0.0005038609008789063, 1.1640625) (0.0004980043945312499, 1.166015625) (0.00049195068359375, 1.16796875) (0.0004857012023925781, 1.169921875) (0.00047925836181640625, 1.171875) (0.00047262545776367187, 1.173828125) (0.00046580664062499997, 1.17578125) (0.0004588067016601562, 1.177734375) (0.0004516322326660156, 1.1796875) (0.00044429159545898434, 1.181640625) (0.0004367938842773437, 1.18359375) (0.0004291495361328125, 1.185546875) (0.000421370361328125, 1.1875) (0.0004134687805175781, 1.189453125) (0.0004054588623046875, 1.19140625) (0.0003973564758300781, 1.193359375) (0.00038917816162109374, 1.1953125) (0.0003809412231445312, 1.197265625) (0.00037266418457031247, 1.19921875) (0.0003643665161132812, 1.201171875) (0.0003560684814453125, 1.203125) (0.0003477914428710937, 1.205078125) (0.00033955609130859374, 1.20703125) (0.00033138159179687496, 1.208984375) (0.0003232867736816406, 1.2109375) (0.00031529000854492185, 1.212890625) (0.0003074091186523437, 1.21484375) (0.00029966137695312497, 1.216796875) (0.00029206292724609376, 1.21875) (0.0002846296081542969, 1.220703125) (0.0002773785400390625, 1.22265625) (0.00027032806396484375, 1.224609375) (0.00026349728393554686, 1.2265625) (0.00025690466308593747, 1.228515625) (0.00025056610107421874, 1.23046875) (0.0002444954833984375, 1.232421875) (0.00023870635986328125, 1.234375) (0.00023321018981933592, 1.236328125) (0.00022801811218261717, 1.23828125) (0.00022314134216308592, 1.240234375) (0.00021858895874023437, 1.2421875) (0.0002143704376220703, 1.244140625) (0.00021049937438964844, 1.24609375) (0.00020699273681640623, 1.248046875) (0.00020386419677734374, 1.25) (0.0002011212463378906, 1.251953125) (0.00019876065063476563, 1.25390625) (0.00019676657104492187, 1.255859375) (0.00019512384033203124, 1.2578125) (0.00019382081604003905, 1.259765625) (0.00019284393310546873, 1.26171875) (0.00019217762756347655, 1.263671875) (0.00019181056213378906, 1.265625) (0.00019173844909667968, 1.267578125) (0.00019196563720703125, 1.26953125) (0.00019251194763183593, 1.271484375) (0.000193388916015625, 1.2734375) (0.00019459013366699218, 1.275390625) (0.00019610552978515625, 1.27734375) (0.00019791575622558593, 1.279296875) (0.00020001365661621092, 1.28125) (0.00020241914367675782, 1.283203125) (0.00020516310119628905, 1.28515625) (0.00020828289794921873, 1.287109375) (0.0002118262481689453, 1.2890625) (0.00021583529663085936, 1.291015625) (0.0002203092041015625, 1.29296875) (0.0002252147979736328, 1.294921875) (0.0002304497375488281, 1.296875) (0.00023583509826660156, 1.298828125) (0.00024120785522460938, 1.30078125) (0.00024640147399902345, 1.302734375) (0.00025122286987304686, 1.3046875) (0.00025554208374023435, 1.306640625) (0.00025939218139648437, 1.30859375) (0.00026297198486328123, 1.310546875) (0.000266636962890625, 1.3125) (0.00027078460693359376, 1.314453125) (0.0002756322326660156, 1.31640625) (0.0002812980346679687, 1.318359375) (0.0002879963073730469, 1.3203125) (0.00029589215087890623, 1.322265625) (0.00030487414550781246, 1.32421875) (0.00031450140380859373, 1.326171875) (0.0003240279846191406, 1.328125) (0.000332736083984375, 1.330078125) (0.0003402354125976562, 1.33203125) (0.0003462711181640625, 1.333984375) (0.0003503899536132812, 1.3359375) (0.00035202893066406247, 1.337890625) (0.00035078619384765626, 1.33984375) (0.00034659869384765624, 1.341796875) (0.0003398709411621094, 1.34375) (0.00033106195068359376, 1.345703125) (0.0003209864501953125, 1.34765625) (0.0003110572814941406, 1.349609375) (0.0003027496948242187, 1.3515625) (0.0002975453491210937, 1.353515625) (0.00029558105468749997, 1.35546875) (0.00029595266723632813, 1.357421875) (0.0002992588500976562, 1.359375) (0.00030847589111328126, 1.361328125) (0.00032936740112304684, 1.36328125) (0.00036814068603515624, 1.365234375) (0.00042683184814453124, 1.3671875) (0.0005016937561035156, 1.369140625) (0.0005849580078125, 1.37109375) (0.0006685707397460938, 1.373046875) (0.0007482689208984374, 1.375) (0.0008246194458007812, 1.376953125) (0.00089948095703125, 1.37890625) (0.0009720372924804687, 1.380859375) (0.00103674853515625, 1.3828125) (0.00108437744140625, 1.384765625) (0.0011057011718749999, 1.38671875) (0.0010951922607421874, 1.388671875) (0.00105325634765625, 1.390625) (0.0009840855712890625, 1.392578125) (0.0008947411499023437, 1.39453125) (0.0007947111206054687, 1.396484375) (0.00069264990234375, 1.3984375) (0.0005983566284179687, 1.400390625) (0.0005207523803710938, 1.40234375) (0.000463016357421875, 1.404296875) (0.0004248412475585937, 1.40625) (0.0004011964416503906, 1.408203125) (0.00038444976806640624, 1.41015625) (0.000371005615234375, 1.412109375) (0.0003601915893554687, 1.4140625) (0.00035374426269531246, 1.416015625) (0.0003545185546875, 1.41796875) (0.0003621711120605469, 1.419921875) (0.00037433349609375, 1.421875) (0.000388281005859375, 1.423828125) (0.00040124127197265625, 1.42578125) (0.0004120336303710937, 1.427734375) (0.0004202468566894531, 1.4296875) (0.0004251485290527344, 1.431640625) (0.00042663891601562497, 1.43359375) (0.00042508465576171874, 1.435546875) (0.0004210367431640625, 1.4375) (0.0004154163818359375, 1.439453125) (0.00040898748779296876, 1.44140625) (0.0004021504516601562, 1.443359375) (0.00039551281738281247, 1.4453125) (0.0003900582275390625, 1.447265625) (0.0003863997802734375, 1.44921875) (0.0003847432556152344, 1.451171875) (0.000385053955078125, 1.453125) (0.0003869110717773437, 1.455078125) (0.00038990963745117184, 1.45703125) (0.0003938125305175781, 1.458984375) (0.0003981589660644531, 1.4609375) (0.00040227593994140624, 1.462890625) (0.00040574719238281246, 1.46484375) (0.00040836706542968747, 1.466796875) (0.0004100758361816406, 1.46875) (0.00041106710815429687, 1.470703125) (0.0004115232849121094, 1.47265625) (0.00041158856201171874, 1.474609375) (0.0004115653076171875, 1.4765625) (0.00041178875732421875, 1.478515625) (0.00041245980834960937, 1.48046875) (0.00041369601440429684, 1.482421875) (0.00041552120971679685, 1.484375) (0.00041787622070312496, 1.486328125) (0.00042073785400390624, 1.48828125) (0.00042408810424804686, 1.490234375) (0.00042785705566406246, 1.4921875) (0.0004319739074707031, 1.494140625) (0.0004363806457519531, 1.49609375) (0.00044102856445312497, 1.498046875) (0.00044589785766601563, 1.5) (0.0004509663391113281, 1.501953125) (0.0004561848754882812, 1.50390625) (0.0004614869995117187, 1.505859375) (0.000466794921875, 1.5078125) (0.00047204492187499997, 1.509765625) (0.0004771959838867187, 1.51171875) (0.00048221636962890625, 1.513671875) (0.0004870811157226562, 1.515625) (0.00049176904296875, 1.517578125) (0.000496260986328125, 1.51953125) (0.0005005510559082031, 1.521484375) (0.0005046465454101563, 1.5234375) (0.0005085490112304688, 1.525390625) (0.0005122557373046874, 1.52734375) (0.0005157626953125, 1.529296875) (0.000519061767578125, 1.53125) (0.0005221522216796875, 1.533203125) (0.0005250399169921875, 1.53515625) (0.000527731201171875, 1.537109375) (0.0005302331542968749, 1.5390625) (0.0005325516357421874, 1.541015625) (0.0005346904296875, 1.54296875) (0.000536653564453125, 1.544921875) (0.0005384464721679687, 1.546875) (0.0005400742797851562, 1.548828125) (0.000541541259765625, 1.55078125) (0.0005428494873046875, 1.552734375) (0.000544, 1.5546875) (0.0005449948120117187, 1.556640625) (0.0005458364868164063, 1.55859375) (0.000546527099609375, 1.560546875) (0.00054706689453125, 1.5625) (0.0005474522094726563, 1.564453125) (0.0005476777343749999, 1.56640625) (0.0005477388916015625, 1.568359375) (0.0005476317749023437, 1.5703125) (0.00054735107421875, 1.572265625) (0.0005468875732421875, 1.57421875) (0.0005462274169921875, 1.576171875) (0.0005453530883789062, 1.578125) (0.0005442464599609375, 1.580078125) (0.0005428875122070313, 1.58203125) (0.0005412557983398437, 1.583984375) (0.0005393262329101562, 1.5859375) (0.000537071533203125, 1.587890625) (0.0005344708251953125, 1.58984375) (0.000531509521484375, 1.591796875) (0.00052818115234375, 1.59375) (0.0005244871826171875, 1.595703125) (0.0005204266357421875, 1.59765625) (0.0005159885864257812, 1.599609375) (0.0005111590881347656, 1.6015625) (0.0005059276733398437, 1.603515625) (0.0005002819213867188, 1.60546875) (0.0004942159423828125, 1.607421875) (0.0004877247619628906, 1.609375) (0.0004807845764160156, 1.611328125) (0.00047336691284179686, 1.61328125) (0.0004654465637207031, 1.615234375) (0.00045699606323242183, 1.6171875) (0.0004479862365722656, 1.619140625) (0.0004383843688964844, 1.62109375) (0.00042811431884765623, 1.623046875) (0.00041705831909179687, 1.625) (0.0004051528015136719, 1.626953125) (0.0003923966979980469, 1.62890625) (0.0003788572998046875, 1.630859375) (0.00036468246459960934, 1.6328125) (0.00034998443603515624, 1.634765625) (0.0003348072509765625, 1.63671875) (0.00031925927734375, 1.638671875) (0.00030350885009765624, 1.640625) (0.00028754965209960934, 1.642578125) (0.00027119812011718747, 1.64453125) (0.00025406320190429684, 1.646484375) (0.00023551156616210937, 1.6484375) (0.00021507292175292967, 1.650390625) (0.00019254653930664061, 1.65234375) (0.00016768936157226562, 1.654296875) (0.00014028665161132812, 1.65625) (0.00011051634979248046, 1.658203125) (7.888285064697266e-05, 1.66015625) (4.6333339691162106e-05, 1.662109375) (1.4293605804443358e-05, 1.6640625) (-1.6066066741943357e-05, 1.666015625) (-4.3916069030761716e-05, 1.66796875) (-6.82614517211914e-05, 1.669921875) (-8.821369171142577e-05, 1.671875) (-0.00010339712524414062, 1.673828125) (-0.00011372686767578124, 1.67578125) (-0.00011991495513916015, 1.677734375) (-0.00012344161224365233, 1.6796875) (-0.00012545995330810546, 1.681640625) (-0.00012769346618652342, 1.68359375) (-0.00013239178466796874, 1.685546875) (-0.00014096298217773436, 1.6875) (-0.00015515884399414063, 1.689453125) (-0.00017564698791503906, 1.69140625) (-0.00020193460083007812, 1.693359375) (-0.0002357831115722656, 1.6953125) (-0.0002782035522460937, 1.697265625) (-0.00032973739624023434, 1.69921875) (-0.00039145947265625, 1.701171875) (-0.00046047528076171874, 1.703125) (-0.0005341307983398437, 1.705078125) (-0.0006110988769531249, 1.70703125) (-0.0006873628540039062, 1.708984375) (-0.0007597469482421875, 1.7109375) (-0.0008247431640625, 1.712890625) (-0.0008771750488281249, 1.71484375) (-0.0009161665649414062, 1.716796875) (-0.0009438818359374999, 1.71875) (-0.0009623369140625, 1.720703125) (-0.00097494287109375, 1.72265625) (-0.0009828642578125, 1.724609375) (-0.000984435302734375, 1.7265625) (-0.0009793587646484375, 1.728515625) (-0.0009675079345703125, 1.73046875) (-0.0009491946411132812, 1.732421875) (-0.0009262260131835937, 1.734375) (-0.0008996719970703125, 1.736328125) (-0.0008699269409179687, 1.73828125) (-0.0008374234619140625, 1.740234375) (-0.0008023512573242188, 1.7421875) (-0.0007651721191406249, 1.744140625) (-0.0007269834594726563, 1.74609375) (-0.0006889943237304687, 1.748046875) (-0.0006521361083984375, 1.75) (-0.0006171752319335937, 1.751953125) (-0.0005846592407226562, 1.75390625) (-0.0005552137451171875, 1.755859375) (-0.0005295572509765625, 1.7578125) (-0.0005079498901367187, 1.759765625) (-0.0004900635375976563, 1.76171875) (-0.000475144287109375, 1.763671875) (-0.0004623226928710937, 1.765625) (-0.0004510755920410156, 1.767578125) (-0.0004411944885253906, 1.76953125) (-0.00043213970947265625, 1.771484375) (-0.0004232333374023437, 1.7734375) (-0.00041343896484375, 1.775390625) (-0.0004013521728515625, 1.77734375) (-0.00038692355346679687, 1.779296875) (-0.0003705450744628906, 1.78125) (-0.00035353192138671874, 1.783203125) (-0.0003389451904296875, 1.78515625) (-0.000326709716796875, 1.787109375) (-0.00031441180419921873, 1.7890625) (-0.00029737835693359374, 1.791015625) (-0.00026695996093749997, 1.79296875) (-0.00021957237243652343, 1.794921875) (-0.00015760369873046875, 1.796875) (-8.818820190429687e-05, 1.798828125) (-2.4978830337524412e-05, 1.80078125) (2.2528778076171874e-05, 1.802734375) (5.220376586914062e-05, 1.8046875) (6.848494720458985e-05, 1.806640625) (8.407864379882812e-05, 1.80859375) (0.00011150947570800781, 1.810546875) (0.000159341796875, 1.8125) (0.00023178247070312498, 1.814453125) (0.0003262991333007812, 1.81640625) (0.0004371971740722656, 1.818359375) (0.00055672314453125, 1.8203125) (0.0006743193359375, 1.822265625) (0.0007781598510742188, 1.82421875) (0.000855290283203125, 1.826171875) (0.0008936548461914062, 1.828125) (0.0008849080200195312, 1.830078125) (0.0008261234130859374, 1.83203125) (0.0007205534057617187, 1.833984375) (0.0005766567993164062, 1.8359375) (0.0004070416259765625, 1.837890625) (0.00022637821960449218, 1.83984375) (4.8569068908691404e-05, 1.841796875) (-0.00011522772216796875, 1.84375) (-0.00025901202392578126, 1.845703125) (-0.00038353802490234375, 1.84765625) (-0.0004937475280761719, 1.849609375) (-0.0005959925537109375, 1.8515625) (-0.0006954810791015625, 1.853515625) (-0.0007925141601562499, 1.85546875) (-0.0008841036376953125, 1.857421875) (-0.000966420654296875, 1.859375) (-0.0010358298339843749, 1.861328125) (-0.0010916993408203125, 1.86328125) (-0.0011357412109375, 1.865234375) (-0.0011704554443359376, 1.8671875) (-0.0011985509033203125, 1.869140625) (-0.0012218253173828125, 1.87109375) (-0.0012414510498046875, 1.873046875) (-0.0012586497802734374, 1.875) (-0.0012750244140625, 1.876953125) (-0.001292517822265625, 1.87890625) (-0.0013123897705078125, 1.880859375) (-0.001334610107421875, 1.8828125) (-0.001358787353515625, 1.884765625) (-0.0013848931884765624, 1.88671875) (-0.0014143598632812499, 1.888671875) (-0.001449552001953125, 1.890625) (-0.0014908341064453123, 1.892578125) (-0.001535456787109375, 1.89453125) (-0.001577154052734375, 1.896484375) (-0.001608574462890625, 1.8984375) (-0.0016256744384765625, 1.900390625) (-0.0016283239746093749, 1.90234375) (-0.00162065185546875, 1.904296875) (-0.0016090408935546874, 1.90625) (-0.001597169921875, 1.908203125) (-0.0015867391357421874, 1.91015625) (-0.0015772364501953123, 1.912109375) (-0.0015653168945312498, 1.9140625) (-0.001549689697265625, 1.916015625) (-0.001530112060546875, 1.91796875) (-0.0015065465087890624, 1.919921875) (-0.0014813863525390625, 1.921875) (-0.0014559738769531249, 1.923828125) (-0.0014303680419921875, 1.92578125) (-0.001405016845703125, 1.927734375) (-0.001379364013671875, 1.9296875) (-0.0013527427978515625, 1.931640625) (-0.0013252130126953125, 1.93359375) (-0.0012967508544921875, 1.935546875) (-0.001267171630859375, 1.9375) (-0.0012369707031249998, 1.939453125) (-0.001207181884765625, 1.94140625) (-0.0011776995849609375, 1.943359375) (-0.0011479310302734374, 1.9453125) (-0.0011167337646484374, 1.947265625) (-0.0010818264160156249, 1.94921875) (-0.0010440120849609374, 1.951171875) (-0.0010061259765625, 1.953125) (-0.00097037353515625, 1.955078125) (-0.0009401191406249999, 1.95703125) (-0.0009157626342773437, 1.958984375) (-0.0008960147094726562, 1.9609375) (-0.0008820575561523437, 1.962890625) (-0.0008733619384765624, 1.96484375) (-0.0008680155029296875, 1.966796875) (-0.0008621842041015625, 1.96875) (-0.0008483780517578124, 1.970703125) (-0.000821388427734375, 1.97265625) (-0.000782001220703125, 1.974609375) (-0.000737060302734375, 1.9765625) (-0.0006969647827148437, 1.978515625) (-0.000669902587890625, 1.98046875) (-0.0006577444458007812, 1.982421875) (-0.0006553063354492187, 1.984375) (-0.0006544276123046875, 1.986328125) (-0.0006488499755859375, 1.98828125) (-0.0006359759521484375, 1.990234375) (-0.0006177459716796875, 1.9921875) (-0.000598276611328125, 1.994140625) (-0.0005800759887695312, 1.99609375) (-0.0005640499877929687, 1.998046875) (-0.0005497539672851562, 2.0) (-0.0005357235107421875, 2.001953125) (-0.0005214419555664063, 2.00390625) (-0.0005071746215820312, 2.005859375) (-0.000493051513671875, 2.0078125) (-0.00047927905273437496, 2.009765625) (-0.00046583087158203124, 2.01171875) (-0.00045239770507812495, 2.013671875) (-0.0004387721557617187, 2.015625) (-0.00042478411865234375, 2.017578125) (-0.0004103865966796875, 2.01953125) (-0.00039566574096679683, 2.021484375) (-0.000380616455078125, 2.0234375) (-0.000365451171875, 2.025390625) (-0.0003501112060546875, 2.02734375) (-0.00033386373901367187, 2.029296875) (-0.00031696075439453125, 2.03125) (-0.0003003706359863281, 2.033203125) (-0.0002852978515625, 2.03515625) (-0.0002743905334472656, 2.037109375) (-0.00026838867187499996, 2.0390625) (-0.0002646228637695312, 2.041015625) (-0.0002597781066894531, 2.04296875) (-0.0002490847625732422, 2.044921875) (-0.00022923948669433593, 2.046875) (-0.00020291319274902343, 2.048828125) (-0.00017526210021972656, 2.05078125) (-0.00015242825317382812, 2.052734375) (-0.00014101287841796875, 2.0546875) (-0.00014178567504882813, 2.056640625) (-0.0001505809783935547, 2.05859375) (-0.0001619555969238281, 2.060546875) (-0.00016814933776855467, 2.0625) (-0.00016466082763671875, 2.064453125) (-0.00015258099365234373, 2.06640625) (-0.00013515307617187499, 2.068359375) (-0.00011831246948242187, 2.0703125) (-0.00010688629150390625, 2.072265625) (-0.00010178453826904296, 2.07421875) (-0.00010140880584716797, 2.076171875) (-0.00010213172149658203, 2.078125) (-0.00010151469421386718, 2.080078125) (-9.952324676513671e-05, 2.08203125) (-9.86542510986328e-05, 2.083984375) (-0.00010301765441894531, 2.0859375) (-0.00011393742370605469, 2.087890625) (-0.00012999047851562499, 2.08984375) (-0.00014704515075683594, 2.091796875) (-0.00015913298034667968, 2.09375) (-0.00016425558471679688, 2.095703125) (-0.00016377093505859374, 2.09765625) (-0.00016147201538085936, 2.099609375) (-0.0001635145263671875, 2.1015625) (-0.00017244332885742186, 2.103515625) (-0.00018829257202148436, 2.10546875) (-0.00020982272338867188, 2.107421875) (-0.00023296446228027342, 2.109375) (-0.0002557168731689453, 2.111328125) (-0.0002772410888671875, 2.11328125) (-0.000296555419921875, 2.115234375) (-0.0003151337890625, 2.1171875) (-0.00033382354736328124, 2.119140625) (-0.0003524800109863281, 2.12109375) (-0.00037147872924804683, 2.123046875) (-0.0003899967956542969, 2.125) (-0.00040709762573242186, 2.126953125) (-0.000422864013671875, 2.12890625) (-0.00043723858642578126, 2.130859375) (-0.0004501739807128906, 2.1328125) (-0.000461804443359375, 2.134765625) (-0.0004719547119140625, 2.13671875) (-0.0004803941040039062, 2.138671875) (-0.0004871489868164062, 2.140625) (-0.000492232421875, 2.142578125) (-0.0004954736022949218, 2.14453125) (-0.000496778564453125, 2.146484375) (-0.00049608447265625, 2.1484375) (-0.0004933223266601562, 2.150390625) (-0.0004886452331542969, 2.15234375) (-0.00048227853393554686, 2.154296875) (-0.0004744407958984375, 2.15625) (-0.00046545159912109375, 2.158203125) (-0.00045558673095703124, 2.16015625) (-0.00044504830932617185, 2.162109375) (-0.0004340635375976562, 2.1640625) (-0.0004228343505859375, 2.166015625) (-0.0004115383911132812, 2.16796875) (-0.00040039208984374996, 2.169921875) (-0.0003895853271484375, 2.171875) (-0.0003793040771484375, 2.173828125) (-0.00036980560302734373, 2.17578125) (-0.0003613324279785156, 2.177734375) (-0.000354114501953125, 2.1796875) (-0.0003483528137207031, 2.181640625) (-0.00034411987304687496, 2.18359375) (-0.00034141183471679684, 2.185546875) (-0.0003401559753417969, 2.1875) (-0.00034018896484375, 2.189453125) (-0.0003413732299804687, 2.19140625) (-0.00034361199951171874, 2.193359375) (-0.0003467854309082031, 2.1953125) (-0.00035079150390625, 2.197265625) (-0.0003555487060546875, 2.19921875) (-0.00036094384765625, 2.201171875) (-0.00036690667724609375, 2.203125) (-0.0003733859252929687, 2.205078125) (-0.0003802363586425781, 2.20703125) (-0.0003872906494140625, 2.208984375) (-0.00039437805175781247, 2.2109375) (-0.00040133404541015626, 2.212890625) (-0.0004080935668945312, 2.21484375) (-0.00041466168212890624, 2.216796875) (-0.00042105511474609374, 2.21875) (-0.000427357421875, 2.220703125) (-0.00043369439697265623, 2.22265625) (-0.00044012774658203123, 2.224609375) (-0.00044668243408203123, 2.2265625) (-0.0004532744140625, 2.228515625) (-0.00045963940429687497, 2.23046875) (-0.0004654986877441406, 2.232421875) (-0.0004705727844238281, 2.234375) (-0.00047448910522460933, 2.236328125) (-0.00047688238525390623, 2.23828125) (-0.00047750634765624997, 2.240234375) (-0.00047627194213867183, 2.2421875) (-0.00047345504760742187, 2.244140625) (-0.0004696636352539062, 2.24609375) (-0.0004654783020019531, 2.248046875) (-0.00046148553466796873, 2.25) (-0.00045827645874023436, 2.251953125) (-0.0004563106079101562, 2.25390625) (-0.00045601986694335933, 2.255859375) (-0.00045707885742187496, 2.2578125) (-0.0004579003295898437, 2.259765625) (-0.00045664385986328123, 2.26171875) (-0.00045135876464843746, 2.263671875) (-0.00044099719238281247, 2.265625) (-0.00042630343627929687, 2.267578125) (-0.00040699734497070313, 2.26953125) (-0.00038122457885742184, 2.271484375) (-0.0003461672668457031, 2.2734375) (-0.00029737832641601563, 2.275390625) (-0.000232257080078125, 2.27734375) (-0.00015228837585449219, 2.279296875) (-6.045050048828125e-05, 2.28125) (3.837641143798828e-05, 2.283203125) (0.00013753561401367187, 2.28515625) (0.00023229183959960938, 2.287109375) (0.0003164470825195312, 2.2890625) (0.00038200030517578125, 2.291015625) (0.00042424102783203123, 2.29296875) (0.00043831781005859374, 2.294921875) (0.000422085205078125, 2.296875) (0.0003787989196777344, 2.298828125) (0.0003109639587402344, 2.30078125) (0.00022443527221679686, 2.302734375) (0.00012902139282226563, 2.3046875) (3.451786804199218e-05, 2.306640625) (-4.627936553955078e-05, 2.30859375) (-0.0001037132568359375, 2.310546875) (-0.00013612091064453124, 2.3125) (-0.0001470854949951172, 2.314453125) (-0.00014595140075683593, 2.31640625) (-0.00014182351684570313, 2.318359375) (-0.0001381777648925781, 2.3203125) (-0.00013473513793945313, 2.322265625) (-0.00012790187835693358, 2.32421875) (-0.00011420689392089843, 2.326171875) (-9.36902847290039e-05, 2.328125) (-6.822190856933593e-05, 2.330078125) (-4.042705154418945e-05, 2.33203125) (-1.26326847076416e-05, 2.333984375) (1.458176326751709e-05, 2.3359375) (4.126610565185547e-05, 2.337890625) (6.713711547851562e-05, 2.33984375) (9.172480773925781e-05, 2.341796875) (0.00011429715728759765, 2.34375) (0.00013442057800292968, 2.345703125) (0.00015212547302246093, 2.34765625) (0.00016746173095703125, 2.349609375) (0.00018049026489257812, 2.3515625) (0.00019134878540039062, 2.353515625) (0.00020043341064453123, 2.35546875) (0.00020861209106445313, 2.357421875) (0.00021678436279296874, 2.359375) (0.00022543800354003906, 2.361328125) (0.00023477049255371093, 2.36328125) (0.0002447774963378906, 2.365234375) (0.0002553324890136719, 2.3671875) (0.000266359130859375, 2.369140625) (0.0002776109619140625, 2.37109375) (0.00028852938842773436, 2.373046875) (0.00029866073608398436, 2.375) (0.0003077880249023437, 2.376953125) (0.0003158665771484375, 2.37890625) (0.0003230831298828125, 2.380859375) (0.00032964913940429686, 2.3828125) (0.00033568298339843746, 2.384765625) (0.0003413692626953125, 2.38671875) (0.00034695947265625, 2.388671875) (0.00035262069702148436, 2.390625) (0.0003584554443359375, 2.392578125) (0.0003644894409179687, 2.39453125) (0.00037063714599609374, 2.396484375) (0.0003768265380859375, 2.3984375) (0.0003830163879394531, 2.400390625) (0.0003891488647460937, 2.40234375) (0.0003951757202148437, 2.404296875) (0.00040105258178710937, 2.40625) (0.00040672821044921873, 2.408203125) (0.0004121600952148437, 2.41015625) (0.00041731237792968747, 2.412109375) (0.0004221547241210937, 2.4140625) (0.00042666961669921873, 2.416015625) (0.0004308452758789062, 2.41796875) (0.0004346742248535156, 2.419921875) (0.0004381610107421875, 2.421875) (0.0004413137512207031, 2.423828125) (0.0004441492004394531, 2.42578125) (0.00044669683837890624, 2.427734375) (0.00044897894287109375, 2.4296875) (0.000451011474609375, 2.431640625) (0.00045280859375, 2.43359375) (0.00045437744140625, 2.435546875) (0.00045572705078125, 2.4375) (0.00045687322998046875, 2.439453125) (0.0004578312377929687, 2.44140625) (0.0004586156005859375, 2.443359375) (0.00045924005126953124, 2.4453125) (0.00045971459960937497, 2.447265625) (0.00046004846191406246, 2.44921875) (0.00046025192260742184, 2.451171875) (0.0004603309631347656, 2.453125) (0.00046028735351562496, 2.455078125) (0.0004601199951171875, 2.45703125) (0.0004598238830566406, 2.458984375) (0.00045939572143554686, 2.4609375) (0.0004588342590332031, 2.462890625) (0.00045813790893554685, 2.46484375) (0.00045730456542968746, 2.466796875) (0.0004563316040039062, 2.46875) (0.00045521533203124996, 2.470703125) (0.00045395166015625, 2.47265625) (0.000452536865234375, 2.474609375) (0.00045096533203125, 2.4765625) (0.0004492298583984375, 2.478515625) (0.000447322509765625, 2.48046875) (0.00044523458862304687, 2.482421875) (0.0004429573974609375, 2.484375) (0.00044048287963867187, 2.486328125) (0.0004378031311035156, 2.48828125) (0.0004349102172851562, 2.490234375) (0.0004317967529296875, 2.4921875) (0.00042845596313476563, 2.494140625) (0.00042488140869140624, 2.49609375) (0.000421067626953125, 2.498046875) (0.0004170101623535156, 2.5) (0.0004127049865722656, 2.501953125) (0.00040814920043945313, 2.50390625) (0.0004033414306640625, 2.505859375) (0.00039828143310546876, 2.5078125) (0.0003929707336425781, 2.509765625) (0.00038741259765624997, 2.51171875) (0.00038161163330078124, 2.513671875) (0.00037557431030273435, 2.515625) (0.000369308837890625, 2.517578125) (0.0003628248901367187, 2.51953125) (0.00035613385009765624, 2.521484375) (0.0003492488098144531, 2.5234375) (0.00034218420410156246, 2.525390625) (0.0003349561767578125, 2.52734375) (0.00032758255004882814, 2.529296875) (0.0003200820617675781, 2.53125) (0.0003124745483398437, 2.533203125) (0.0003047813720703125, 2.53515625) (0.0002970246887207031, 2.537109375) (0.0002892275695800781, 2.5390625) (0.000281413818359375, 2.541015625) (0.0002736073608398437, 2.54296875) (0.000265832275390625, 2.544921875) (0.00025811349487304687, 2.546875) (0.00025047595214843746, 2.548828125) (0.00024294422912597656, 2.55078125) (0.00023554299926757812, 2.552734375) (0.00022829620361328125, 2.5546875) (0.00022122702026367187, 2.556640625) (0.00021435848999023436, 2.55859375) (0.00020771221923828124, 2.560546875) (0.0002013085021972656, 2.5625) (0.0001951665802001953, 2.564453125) (0.00018930392456054687, 2.56640625) (0.00018373519897460936, 2.568359375) (0.00017847332763671874, 2.5703125) (0.00017352838134765625, 2.572265625) (0.00016890731811523436, 2.57421875) (0.00016461585998535155, 2.576171875) (0.00016065692138671875, 2.578125) (0.000157029541015625, 2.580078125) (0.0001537304992675781, 2.58203125) (0.00015075418090820312, 2.583984375) (0.00014809217834472655, 2.5859375) (0.00014573649597167968, 2.587890625) (0.00014367857360839844, 2.58984375) (0.0001419065704345703, 2.591796875) (0.0001404075469970703, 2.59375) (0.0001391663360595703, 2.595703125) (0.00013816525268554687, 2.59765625) (0.0001373878173828125, 2.599609375) (0.00013681762695312498, 2.6015625) (0.00013643577575683593, 2.603515625) (0.00013622152709960936, 2.60546875) (0.00013615199279785157, 2.607421875) (0.00013620274353027344, 2.609375) (0.00013635560607910154, 2.611328125) (0.00013659878540039062, 2.61328125) (0.00013691909790039062, 2.615234375) (0.00013730104064941406, 2.6171875) (0.00013772007751464843, 2.619140625) (0.0001381422424316406, 2.62109375) (0.00013853842163085936, 2.623046875) (0.00013888737487792967, 2.625) (0.00013917015075683593, 2.626953125) (0.0001393668518066406, 2.62890625) (0.0001394581604003906, 2.630859375) (0.00013942767333984375, 2.6328125) (0.0001392749328613281, 2.634765625) (0.00013902459716796874, 2.63671875) (0.00013870965576171873, 2.638671875) (0.00013835836791992187, 2.640625) (0.0001379859924316406, 2.642578125) (0.00013758596801757812, 2.64453125) (0.000137145263671875, 2.646484375) (0.00013667343139648437, 2.6484375) (0.00013620964050292968, 2.650390625) (0.00013580902099609375, 2.65234375) (0.00013553179931640624, 2.654296875) (0.00013541056823730468, 2.65625) (0.00013543775939941406, 2.658203125) (0.00013563647460937498, 2.66015625) (0.00013605026245117188, 2.662109375) (0.00013665919494628906, 2.6640625) (0.00013738897705078124, 2.666015625) (0.00013806430053710936, 2.66796875) (0.00013838528442382811, 2.669921875) (0.00013811468505859375, 2.671875) (0.00013718434143066406, 2.673828125) (0.0001355584716796875, 2.67578125) (0.0001332462158203125, 2.677734375) (0.00013036001586914063, 2.6796875) (0.0001269267120361328, 2.681640625) (0.00012309298706054687, 2.68359375) (0.00011933382415771484, 2.685546875) (0.00011611518859863281, 2.6875) (0.00011372160339355468, 2.689453125) (0.00011230999755859374, 2.69140625) (0.00011177105712890624, 2.693359375) (0.00011180804443359375, 2.6953125) (0.0001124040298461914, 2.697265625) (0.00011346495819091796, 2.69921875) (0.00011442572784423828, 2.701171875) (0.00011461036682128906, 2.703125) (0.00011330738830566406, 2.705078125) (0.00010986100006103515, 2.70703125) (0.00010405303192138672, 2.708984375) (9.59939956665039e-05, 2.7109375) (8.557308959960938e-05, 2.712890625) (7.338114929199219e-05, 2.71484375) (6.1024841308593745e-05, 2.716796875) (5.006466674804687e-05, 2.71875) (4.208079528808593e-05, 2.720703125) (3.733846282958984e-05, 2.72265625) (3.5008232116699214e-05, 2.724609375) (3.601800537109375e-05, 2.7265625) (4.369094085693359e-05, 2.728515625) (6.391410064697265e-05, 2.73046875) (0.00010241789245605469, 2.732421875) (0.00016045269775390625, 2.734375) (0.00023430377197265623, 2.736328125) (0.0003163388977050781, 2.73828125) (0.0003996304931640625, 2.740234375) (0.00048157455444335936, 2.7421875) (0.0005621905517578125, 2.744140625) (0.0006426243286132812, 2.74609375) (0.0007202039794921874, 2.748046875) (0.0007865595703125, 2.75) (0.0008324078369140624, 2.751953125) (0.0008485103149414062, 2.75390625) (0.0008301456298828125, 2.755859375) (0.000779703125, 2.7578125) (0.000701445556640625, 2.759765625) (0.0006033299560546875, 2.76171875) (0.0004959302978515624, 2.763671875) (0.0003884306945800781, 2.765625) (0.0002919114074707031, 2.767578125) (0.00021492140197753906, 2.76953125) (0.0001593068389892578, 2.771484375) (0.00012327159118652342, 2.7734375) (0.00010007723236083984, 2.775390625) (8.20060577392578e-05, 2.77734375) (6.611068725585937e-05, 2.779296875) (5.238296127319336e-05, 2.78125) (4.324677658081055e-05, 2.783203125) (4.130617141723633e-05, 2.78515625) (4.577987670898437e-05, 2.787109375) (5.420323944091797e-05, 2.7890625) (6.387004852294922e-05, 2.791015625) (7.235894775390625e-05, 2.79296875) (7.885577392578125e-05, 2.794921875) (8.313973999023438e-05, 2.796875) (8.463697052001953e-05, 2.798828125) (8.330253601074219e-05, 2.80078125) (7.950677490234374e-05, 2.802734375) (7.373829650878906e-05, 2.8046875) (6.67288360595703e-05, 2.806640625) (5.909652709960937e-05, 2.80859375) (5.115727233886719e-05, 2.810546875) (4.3459403991699216e-05, 2.8125) (3.702880477905273e-05, 2.814453125) (3.254434967041015e-05, 2.81640625) (3.0246574401855468e-05, 2.818359375) (3.0239847183227538e-05, 2.8203125) (3.2237548828125e-05, 2.822265625) (3.582401657104492e-05, 2.82421875) (4.078792190551758e-05, 2.826171875) (4.6550460815429685e-05, 2.828125) (5.209841537475586e-05, 2.830078125) (5.677188491821289e-05, 2.83203125) (5.999639129638672e-05, 2.833984375) (6.164393615722656e-05, 2.8359375) (6.272473907470702e-05, 2.837890625) (6.435760498046875e-05, 2.83984375) (6.741111755371093e-05, 2.841796875) (7.135757446289062e-05, 2.84375) (7.382003784179687e-05, 2.845703125) (7.292868041992187e-05, 2.84765625) (6.846208190917968e-05, 2.849609375) (6.491152954101563e-05, 2.8515625) (7.060472869873047e-05, 2.853515625) (9.243647766113281e-05, 2.85546875) (0.0001347074737548828, 2.857421875) (0.0001938051300048828, 2.859375) (0.00025902902221679685, 2.861328125) (0.00031938952636718747, 2.86328125) (0.0003642159729003906, 2.865234375) (0.00038969442749023435, 2.8671875) (0.00039967239379882813, 2.869140625) (0.000400125, 2.87109375) (0.0003989156799316406, 2.873046875) (0.00040047207641601563, 2.875) (0.00040466070556640624, 2.876953125) (0.0004101072998046875, 2.87890625) (0.00041432232666015624, 2.880859375) (0.00041646456909179687, 2.8828125) (0.00041743261718749997, 2.884765625) (0.00041821221923828123, 2.88671875) (0.0004199018859863281, 2.888671875) (0.00042266479492187497, 2.890625) (0.00042601043701171875, 2.892578125) (0.000429493408203125, 2.89453125) (0.00043255175781249997, 2.896484375) (0.0004348892211914062, 2.8984375) (0.00043650338745117187, 2.900390625) (0.0004373948059082031, 2.90234375) (0.0004376675415039062, 2.904296875) (0.00043751962280273434, 2.90625) (0.0004370842895507812, 2.908203125) (0.0004365159912109375, 2.91015625) (0.00043601144409179685, 2.912109375) (0.000435652587890625, 2.9140625) (0.00043545367431640624, 2.916015625) (0.00043541375732421874, 2.91796875) (0.00043547589111328126, 2.919921875) (0.0004355685119628906, 2.921875) (0.00043562591552734375, 2.923828125) (0.0004355408325195312, 2.92578125) (0.0004351679992675781, 2.927734375) (0.0004344023742675781, 2.9296875) (0.00043318005371093747, 2.931640625) (0.00043146331787109374, 2.93359375) (0.00042925317382812495, 2.935546875) (0.00042655126953124997, 2.9375) (0.0004233563537597656, 2.939453125) (0.00041968988037109373, 2.94140625) (0.00041559136962890624, 2.943359375) (0.0004111066284179687, 2.9453125) (0.00040628082275390626, 2.947265625) (0.000401148193359375, 2.94921875) (0.00039573086547851563, 2.951171875) (0.00039005834960937496, 2.953125) (0.00038416986083984376, 2.955078125) (0.00037811239624023436, 2.95703125) (0.0003719433898925781, 2.958984375) (0.00036570751953125, 2.9609375) (0.0003594348754882812, 2.962890625) (0.0003531516723632812, 2.96484375) (0.0003468780822753906, 2.966796875) (0.00034063223266601563, 2.96875) (0.00033443048095703124, 2.970703125) (0.0003282796936035156, 2.97265625) (0.00032217559814453126, 2.974609375) (0.00031611480712890623, 2.9765625) (0.00031009796142578123, 2.978515625) (0.00030412805175781247, 2.98046875) (0.0002982117919921875, 2.982421875) (0.0002923523559570312, 2.984375) (0.00028654882812499997, 2.986328125) (0.0002807999877929687, 2.98828125) (0.00027510528564453124, 2.990234375) (0.00026946673583984375, 2.9921875) (0.0002638883666992187, 2.994140625) (0.0002583731689453125, 2.99609375) (0.00025292391967773436, 2.998046875) (0.0002475440673828125, 3.0) (0.00024223825073242187, 3.001953125) (0.00023701266479492187, 3.00390625) (0.00023187533569335935, 3.005859375) (0.00022683187866210936, 3.0078125) (0.00022188516235351562, 3.009765625) (0.00021703726196289062, 3.01171875) (0.00021228871154785155, 3.013671875) (0.0002076393280029297, 3.015625) (0.00020308978271484375, 3.017578125) (0.00019863900756835937, 3.01953125) (0.00019428277587890623, 3.021484375) (0.00019001681518554688, 3.0234375) (0.0001858368225097656, 3.025390625) (0.00018173751831054686, 3.02734375) (0.00017771527099609373, 3.029296875) (0.00017376669311523437, 3.03125) (0.00016988597106933594, 3.033203125) (0.0001660674285888672, 3.03515625) (0.00016230482482910156, 3.037109375) (0.0001585906982421875, 3.0390625) (0.00015491879272460938, 3.041015625) (0.00015128363037109375, 3.04296875) (0.00014767831420898437, 3.044921875) (0.0001440948791503906, 3.046875) (0.00014052294921874998, 3.048828125) (0.00013695123291015623, 3.05078125) (0.00013337432861328124, 3.052734375) (0.00012979240417480467, 3.0546875) (0.0001262068176269531, 3.056640625) (0.00012261720275878906, 3.05859375) (0.00011901306915283203, 3.060546875) (0.00011537574005126953, 3.0625) (0.00011169168853759765, 3.064453125) (0.00010795368194580077, 3.06640625) (0.00010415727233886718, 3.068359375) (0.00010029698181152343, 3.0703125) (9.636344909667968e-05, 3.072265625) (9.234968566894531e-05, 3.07421875) (8.826409912109375e-05, 3.076171875) (8.413706970214843e-05, 3.078125) (8.000894165039062e-05, 3.080078125) (7.59145278930664e-05, 3.08203125) (7.187249755859375e-05, 3.083984375) (6.788048553466797e-05, 3.0859375) (6.392806243896483e-05, 3.087890625) (6.002576065063476e-05, 3.08984375) (5.6218570709228515e-05, 3.091796875) (5.256593322753906e-05, 3.09375) (4.9125335693359376e-05, 3.095703125) (4.5930301666259764e-05, 3.09765625) (4.297096252441406e-05, 3.099609375) (4.026603698730469e-05, 3.1015625) (3.787034225463867e-05, 3.103515625) (3.576979064941406e-05, 3.10546875) (3.3886154174804685e-05, 3.107421875) (3.2047756195068355e-05, 3.109375) (2.9957162857055662e-05, 3.111328125) (2.7381265640258787e-05, 3.11328125) (2.4272100448608396e-05, 3.115234375) (2.0605186462402342e-05, 3.1171875) (1.6387414932250977e-05, 3.119140625) (1.1749161720275879e-05, 3.12109375) (6.728676319122314e-06, 3.123046875) (1.473996639251709e-06, 3.125) (-3.5334930419921875e-06, 3.126953125) (-7.85386037826538e-06, 3.12890625) (-1.1231196403503417e-05, 3.130859375) (-1.3517690658569335e-05, 3.1328125) (-1.4869413375854491e-05, 3.134765625) (-1.5662601470947263e-05, 3.13671875) (-1.597923183441162e-05, 3.138671875) (-1.5950257301330566e-05, 3.140625) (-1.610623550415039e-05, 3.142578125) (-1.703541946411133e-05, 3.14453125) (-1.9420814514160157e-05, 3.146484375) (-2.388682746887207e-05, 3.1484375) (-3.055873107910156e-05, 3.150390625) (-3.917530059814453e-05, 3.15234375) (-4.972687911987305e-05, 3.154296875) (-6.177597427368164e-05, 3.15625) (-7.400054931640624e-05, 3.158203125) (-8.505181884765625e-05, 3.16015625) (-9.31060333251953e-05, 3.162109375) (-9.717870330810546e-05, 3.1640625) (-9.836798095703125e-05, 3.166015625) (-9.705031585693359e-05, 3.16796875) (-9.177256774902343e-05, 3.169921875) (-7.898271179199218e-05, 3.171875) (-5.1792526245117186e-05, 3.173828125) (-5.037939071655274e-06, 3.17578125) (6.0596191406249995e-05, 3.177734375) (0.00014110569763183594, 3.1796875) (0.00022852453613281248, 3.181640625) (0.00031538031005859374, 3.18359375) (0.0004003647766113281, 3.185546875) (0.00048291717529296875, 3.1875) (0.0005614679565429687, 3.189453125) (0.000631915771484375, 3.19140625) (0.000684461669921875, 3.193359375) (0.0007089011230468749, 3.1953125) (0.0006992752685546875, 3.197265625) (0.0006550966186523437, 3.19921875) (0.0005809029541015625, 3.201171875) (0.00048544842529296873, 3.203125) (0.00037934521484375, 3.205078125) (0.00027228472900390626, 3.20703125) (0.00017517631530761718, 3.208984375) (9.689321899414062e-05, 3.2109375) (4.012162399291992e-05, 3.212890625) (3.8503279685974115e-06, 3.21484375) (-1.8278186798095702e-05, 3.216796875) (-3.501094818115234e-05, 3.21875) (-5.052607345581054e-05, 3.220703125) (-6.588060760498046e-05, 3.22265625) (-7.945223999023437e-05, 3.224609375) (-8.819166564941406e-05, 3.2265625) (-9.218724822998047e-05, 3.228515625) (-9.362242126464843e-05, 3.23046875) (-9.501815795898437e-05, 3.232421875) (-9.864481353759765e-05, 3.234375) (-0.00010493199157714844, 3.236328125) (-0.00011309613037109374, 3.23828125) (-0.00012221679687499998, 3.240234375) (-0.0001312843017578125, 3.2421875) (-0.00013948838806152343, 3.244140625) (-0.00014612902832031248, 3.24609375) (-0.0001505411682128906, 3.248046875) (-0.00015246359252929688, 3.25) (-0.00015204132080078123, 3.251953125) (-0.00014969613647460936, 3.25390625) (-0.00014600787353515624, 3.255859375) (-0.00014155456542968748, 3.2578125) (-0.00013687684631347657, 3.259765625) (-0.00013247955322265623, 3.26171875) (-0.00012880111694335938, 3.263671875) (-0.00012609095764160155, 3.265625) (-0.00012441417694091796, 3.267578125) (-0.000123732666015625, 3.26953125) (-0.0001239388427734375, 3.271484375) (-0.00012491236877441405, 3.2734375) (-0.00012654008483886718, 3.275390625) (-0.00012869343566894532, 3.27734375) (-0.0001312237854003906, 3.279296875) (-0.0001340235595703125, 3.28125) (-0.00013700921630859373, 3.283203125) (-0.00014006645202636718, 3.28515625) (-0.00014308364868164061, 3.287109375) (-0.00014592845153808592, 3.2890625) (-0.00014844619750976562, 3.291015625) (-0.00015053666687011718, 3.29296875) (-0.00015214215087890623, 3.294921875) (-0.00015321728515625, 3.296875) (-0.00015374914550781249, 3.298828125) (-0.0001537459259033203, 3.30078125) (-0.0001532210235595703, 3.302734375) (-0.00015221534729003904, 3.3046875) (-0.00015078826904296874, 3.306640625) (-0.00014898852539062498, 3.30859375) (-0.0001468661193847656, 3.310546875) (-0.0001444678039550781, 3.3125) (-0.0001418319091796875, 3.314453125) (-0.00013901286315917967, 3.31640625) (-0.00013607203674316406, 3.318359375) (-0.00013307212829589843, 3.3203125) (-0.00013008134460449218, 3.322265625) (-0.00012714952850341796, 3.32421875) (-0.00012430754089355468, 3.326171875) (-0.00012158074188232421, 3.328125) (-0.00011898385620117187, 3.330078125) (-0.00011652201080322265, 3.33203125) (-0.00011419776153564453, 3.333984375) (-0.00011200392150878905, 3.3359375) (-0.00010992440032958984, 3.337890625) (-0.00010795044708251953, 3.33984375) (-0.00010607786560058593, 3.341796875) (-0.00010430345916748047, 3.34375) (-0.00010262872314453124, 3.345703125) (-0.00010105225372314453, 3.34765625) (-9.956922149658203e-05, 3.349609375) (-9.817567443847656e-05, 3.3515625) (-9.686752319335937e-05, 3.353515625) (-9.564247131347656e-05, 3.35546875) (-9.45010986328125e-05, 3.357421875) (-9.344479370117187e-05, 3.359375) (-9.247542572021484e-05, 3.361328125) (-9.159652709960937e-05, 3.36328125) (-9.081285095214844e-05, 3.365234375) (-9.013128662109374e-05, 3.3671875) (-8.956081390380858e-05, 3.369140625) (-8.910850524902343e-05, 3.37109375) (-8.877961730957031e-05, 3.373046875) (-8.857889556884766e-05, 3.375) (-8.851032257080078e-05, 3.376953125) (-8.857858276367186e-05, 3.37890625) (-8.878897094726563e-05, 3.380859375) (-8.914599609374999e-05, 3.3828125) (-8.96534423828125e-05, 3.384765625) (-9.031583404541015e-05, 3.38671875) (-9.113834381103515e-05, 3.388671875) (-9.212625122070313e-05, 3.390625) (-9.328494262695312e-05, 3.392578125) (-9.461900329589844e-05, 3.39453125) (-9.613212585449219e-05, 3.396484375) (-9.782760620117187e-05, 3.3984375) (-9.970850372314452e-05, 3.400390625) (-0.00010177725219726562, 3.40234375) (-0.00010403517913818359, 3.404296875) (-0.00010648279571533203, 3.40625) (-0.00010911949920654296, 3.408203125) (-0.00011194337463378906, 3.41015625) (-0.00011495207977294921, 3.412109375) (-0.00011814236450195312, 3.4140625) (-0.0001215094985961914, 3.416015625) (-0.00012504757690429686, 3.41796875) (-0.0001287498779296875, 3.419921875) (-0.00013260873413085936, 3.421875) (-0.00013661599731445311, 3.423828125) (-0.00014076336669921875, 3.42578125) (-0.00014504092407226563, 3.427734375) (-0.0001494375762939453, 3.4296875) (-0.00015394175720214842, 3.431640625) (-0.00015854135131835936, 3.43359375) (-0.00016322396850585938, 3.435546875) (-0.00016797671508789061, 3.4375) (-0.00017278573608398438, 3.439453125) (-0.0001776361389160156, 3.44140625) (-0.00018251278686523436, 3.443359375) (-0.00018740081787109374, 3.4453125) (-0.00019228565979003906, 3.447265625) (-0.00019715277099609374, 3.44921875) (-0.00020198771667480467, 3.451171875) (-0.00020677655029296873, 3.453125) (-0.00021150628662109375, 3.455078125) (-0.00021616600036621092, 3.45703125) (-0.0002207467041015625, 3.458984375) (-0.0002252405548095703, 3.4609375) (-0.00022964086914062498, 3.462890625) (-0.00023394183349609375, 3.46484375) (-0.00023813783264160155, 3.466796875) (-0.00024222349548339844, 3.46875) (-0.00024619366455078123, 3.470703125) (-0.0002500424194335937, 3.47265625) (-0.0002537643280029297, 3.474609375) (-0.0002573555908203125, 3.4765625) (-0.0002608131408691406, 3.478515625) (-0.00026413574218749997, 3.48046875) (-0.0002673229370117187, 3.482421875) (-0.000270375, 3.484375) (-0.00027329534912109375, 3.486328125) (-0.00027608819580078126, 3.48828125) (-0.00027875695800781247, 3.490234375) (-0.00028130352783203123, 3.4921875) (-0.00028372406005859374, 3.494140625) (-0.00028601132202148437, 3.49609375) (-0.000288166015625, 3.498046875) (-0.0002901949157714844, 3.5) (-0.00029211178588867186, 3.501953125) (-0.0002939412231445312, 3.50390625) (-0.0002957020568847656, 3.505859375) (-0.00029740487670898435, 3.5078125) (-0.0002990667724609375, 3.509765625) (-0.0003007041015625, 3.51171875) (-0.00030232495117187496, 3.513671875) (-0.0003039314270019531, 3.515625) (-0.0003055001525878906, 3.517578125) (-0.0003069828186035156, 3.51953125) (-0.0003083418579101562, 3.521484375) (-0.00030955026245117187, 3.5234375) (-0.000310601806640625, 3.525390625) (-0.00031150946044921875, 3.52734375) (-0.0003122520751953125, 3.529296875) (-0.0003127779846191406, 3.53125) (-0.0003130238342285156, 3.533203125) (-0.0003129141845703125, 3.53515625) (-0.0003124163208007812, 3.537109375) (-0.00031154815673828124, 3.5390625) (-0.00031028570556640623, 3.541015625) (-0.00030857333374023437, 3.54296875) (-0.00030641772460937496, 3.544921875) (-0.00030389190673828123, 3.546875) (-0.0003012114868164062, 3.548828125) (-0.0002986878662109375, 3.55078125) (-0.0002964992980957031, 3.552734375) (-0.00029467205810546873, 3.5546875) (-0.00029319598388671873, 3.556640625) (-0.00029209970092773435, 3.55859375) (-0.00029146923828124997, 3.560546875) (-0.0002913756408691406, 3.5625) (-0.00029164685058593746, 3.564453125) (-0.0002919718017578125, 3.56640625) (-0.0002921461181640625, 3.568359375) (-0.000292130615234375, 3.5703125) (-0.00029211141967773436, 3.572265625) (-0.00029221917724609375, 3.57421875) (-0.0002923639526367187, 3.576171875) (-0.00029239862060546874, 3.578125) (-0.0002923993835449219, 3.580078125) (-0.0002926593322753906, 3.58203125) (-0.0002935616455078125, 3.583984375) (-0.00029542721557617184, 3.5859375) (-0.0002983302001953125, 3.587890625) (-0.0003024246215820312, 3.58984375) (-0.0003080067443847656, 3.591796875) (-0.0003154504699707031, 3.59375) (-0.00032438385009765625, 3.595703125) (-0.0003333670959472656, 3.59765625) (-0.000340814208984375, 3.599609375) (-0.0003449491271972656, 3.6015625) (-0.0003454071960449219, 3.603515625) (-0.0003433428955078125, 3.60546875) (-0.00033863189697265624, 3.607421875) (-0.00032985382080078125, 3.609375) (-0.0003128367309570312, 3.611328125) (-0.0002813310546875, 3.61328125) (-0.00023154722595214843, 3.615234375) (-0.00016242692565917967, 3.6171875) (-7.730736541748046e-05, 3.619140625) (1.7682260513305665e-05, 3.62109375) (0.00011765241241455077, 3.623046875) (0.00021751197814941404, 3.625) (0.00031330377197265623, 3.626953125) (0.00039947164916992185, 3.62890625) (0.00046711187744140624, 3.630859375) (0.0005078241577148437, 3.6328125) (0.0005141435546874999, 3.634765625) (0.0004838008422851562, 3.63671875) (0.0004203978576660156, 3.638671875) (0.000330970703125, 3.640625) (0.00022590830993652342, 3.642578125) (0.00011552897644042969, 3.64453125) (1.0008258819580078e-05, 3.646484375) (-8.092147064208984e-05, 3.6484375) (-0.0001510389404296875, 3.650390625) (-0.00019755860900878906, 3.65234375) (-0.0002221426086425781, 3.654296875) (-0.0002320046691894531, 3.65625) (-0.00023517416381835937, 3.658203125) (-0.00023859490966796873, 3.66015625) (-0.0002478511352539062, 3.662109375) (-0.00026268017578125, 3.6640625) (-0.00028048864746093747, 3.666015625) (-0.00029852133178710934, 3.66796875) (-0.0003123419189453125, 3.669921875) (-0.00032105548095703125, 3.671875) (-0.00032602850341796873, 3.673828125) (-0.0003285518798828125, 3.67578125) (-0.00033145797729492186, 3.677734375) (-0.00033587982177734374, 3.6796875) (-0.000340961181640625, 3.681640625) (-0.000345792724609375, 3.68359375) (-0.0003489126281738281, 3.685546875) (-0.00034936968994140623, 3.6875) (-0.00034729254150390624, 3.689453125) (-0.00034302127075195313, 3.69140625) (-0.00033703060913085935, 3.693359375) (-0.00032985409545898433, 3.6953125) (-0.0003219340209960937, 3.697265625) (-0.0003137350769042969, 3.69921875) (-0.0003057272033691406, 3.701171875) (-0.00029831445312499997, 3.703125) (-0.0002917169189453125, 3.705078125) (-0.0002859997253417969, 3.70703125) (-0.0002811634826660156, 3.708984375) (-0.00027713711547851564, 3.7109375) (-0.0002738271484375, 3.712890625) (-0.000271138671875, 3.71484375) (-0.0002689512023925781, 3.716796875) (-0.00026712899780273437, 3.71875) (-0.00026557562255859375, 3.720703125) (-0.00026421115112304684, 3.72265625) (-0.0002629176940917969, 3.724609375) (-0.00026158029174804686, 3.7265625) (-0.0002600677490234375, 3.728515625) (-0.00025822509765625, 3.73046875) (-0.00025595445251464844, 3.732421875) (-0.00025320199584960936, 3.734375) (-0.00024992620849609374, 3.736328125) (-0.0002461217346191406, 3.73828125) (-0.00024180763244628905, 3.740234375) (-0.000237008544921875, 3.7421875) (-0.000231775634765625, 3.744140625) (-0.0002261804962158203, 3.74609375) (-0.00022028309631347655, 3.748046875) (-0.00021414347839355467, 3.75) (-0.00020781893920898437, 3.751953125) (-0.00020135635375976562, 3.75390625) (-0.00019481814575195313, 3.755859375) (-0.00018827365112304687, 3.7578125) (-0.0001817929229736328, 3.759765625) (-0.00017545172119140623, 3.76171875) (-0.00016930606079101562, 3.763671875) (-0.00016339132690429688, 3.765625) (-0.00015773648071289062, 3.767578125) (-0.00015235804748535157, 3.76953125) (-0.00014726153564453124, 3.771484375) (-0.00014244894409179686, 3.7734375) (-0.00013791128540039063, 3.775390625) (-0.00013362899780273437, 3.77734375) (-0.0001295896301269531, 3.779296875) (-0.0001257847137451172, 3.78125) (-0.00012220619964599608, 3.783203125) (-0.00011885075378417968, 3.78515625) (-0.00011571138763427734, 3.787109375) (-0.00011277678680419922, 3.7890625) (-0.00011003603363037109, 3.791015625) (-0.0001074774169921875, 3.79296875) (-0.00010509046936035155, 3.794921875) (-0.00010286731719970703, 3.796875) (-0.00010080035400390625, 3.798828125) (-9.888211059570312e-05, 3.80078125) (-9.710692596435546e-05, 3.802734375) (-9.547022247314453e-05, 3.8046875) (-9.396949768066406e-05, 3.806640625) (-9.260436248779297e-05, 3.80859375) (-9.13725128173828e-05, 3.810546875) (-9.026982879638672e-05, 3.8125) (-8.929202270507812e-05, 3.814453125) (-8.843427276611327e-05, 3.81640625) (-8.769244384765625e-05, 3.818359375) (-8.706329345703125e-05, 3.8203125) (-8.654318237304687e-05, 3.822265625) (-8.612825012207031e-05, 3.82421875) (-8.581597137451171e-05, 3.826171875) (-8.560490417480468e-05, 3.828125) (-8.549422454833983e-05, 3.830078125) (-8.548374938964843e-05, 3.83203125) (-8.557335662841796e-05, 3.833984375) (-8.576290893554687e-05, 3.8359375) (-8.60527114868164e-05, 3.837890625) (-8.644343566894531e-05, 3.83984375) (-8.69354248046875e-05, 3.841796875) (-8.752873229980468e-05, 3.84375) (-8.822323608398436e-05, 3.845703125) (-8.901828002929688e-05, 3.84765625) (-8.991293334960937e-05, 3.849609375) (-9.09061279296875e-05, 3.8515625) (-9.199595642089843e-05, 3.853515625) (-9.317982482910156e-05, 3.85546875) (-9.445498657226561e-05, 3.857421875) (-9.581825256347656e-05, 3.859375) (-9.726614379882812e-05, 3.861328125) (-9.879536437988281e-05, 3.86328125) (-0.00010040180206298828, 3.865234375) (-0.00010208049774169921, 3.8671875) (-0.00010382622528076172, 3.869140625) (-0.00010563325500488281, 3.87109375) (-0.00010749525451660156, 3.873046875) (-0.00010940560150146483, 3.875) (-0.00011135690307617188, 3.876953125) (-0.00011334080505371093, 3.87890625) (-0.00011534884643554686, 3.880859375) (-0.0001173726806640625, 3.8828125) (-0.00011940382385253905, 3.884765625) (-0.00012143402099609374, 3.88671875) (-0.00012345541381835937, 3.888671875) (-0.00012546027374267578, 3.890625) (-0.00012744182586669922, 3.892578125) (-0.00012939443969726562, 3.89453125) (-0.0001313125, 3.896484375) (-0.00013319061279296876, 3.8984375) (-0.00013502436828613282, 3.900390625) (-0.00013681021118164063, 3.90234375) (-0.0001385455322265625, 3.904296875) (-0.0001402281494140625, 3.90625) (-0.00014185481262207032, 3.908203125) (-0.0001434210510253906, 3.91015625) (-0.00014492355346679687, 3.912109375) (-0.00014636021423339844, 3.9140625) (-0.00014773049926757812, 3.916015625) (-0.00014903460693359375, 3.91796875) (-0.00015027015686035157, 3.919921875) (-0.0001514343566894531, 3.921875) (-0.00015252601623535155, 3.923828125) (-0.00015354545593261718, 3.92578125) (-0.0001544958801269531, 3.927734375) (-0.00015538035583496094, 3.9296875) (-0.00015619485473632812, 3.931640625) (-0.00015692965698242188, 3.93359375) (-0.00015757916259765624, 3.935546875) (-0.0001581412353515625, 3.9375) (-0.00015862220764160156, 3.939453125) (-0.00015903923034667967, 3.94140625) (-0.00015940103149414062, 3.943359375) (-0.0001597083740234375, 3.9453125) (-0.00015996481323242188, 3.947265625) (-0.00016017462158203125, 3.94921875) (-0.00016034188842773436, 3.951171875) (-0.00016046774291992186, 3.953125) (-0.0001605354766845703, 3.955078125) (-0.00016050328063964842, 3.95703125) (-0.00016032716369628907, 3.958984375) (-0.0001599713134765625, 3.9609375) (-0.00015941554260253906, 3.962890625) (-0.00015866407775878906, 3.96484375) (-0.00015771560668945313, 3.966796875) (-0.00015654995727539062, 3.96875) (-0.00015512707519531248, 3.970703125) (-0.00015338688659667968, 3.97265625) (-0.00015128547668457031, 3.974609375) (-0.00014880657958984375, 3.9765625) (-0.00014594720458984374, 3.978515625) (-0.00014268722534179686, 3.98046875) (-0.00013899520874023437, 3.982421875) (-0.0001348927001953125, 3.984375) (-0.0001304833526611328, 3.986328125) (-0.00012598080444335938, 3.98828125) (-0.00012168013000488281, 3.990234375) (-0.00011782527923583985, 3.9921875) (-0.00011450145721435547, 3.994140625) (-0.00011172309875488281, 3.99609375) (-0.00010952532958984375, 3.998046875) (-0.00010785521697998047, 4.0) (-0.00010663053131103515, 4.001953125) (-0.0001056603012084961, 4.00390625) (-0.00010438214111328125, 4.005859375) (-0.00010219813537597656, 4.0078125) (-9.886734008789062e-05, 4.009765625) (-9.432272338867188e-05, 4.01171875) (-8.862923431396485e-05, 4.013671875) (-8.206203460693359e-05, 4.015625) (-7.47402572631836e-05, 4.017578125) (-6.682949829101562e-05, 4.01953125) (-5.92172622680664e-05, 4.021484375) (-5.3006629943847655e-05, 4.0234375) (-4.8873165130615234e-05, 4.025390625) (-4.739710235595703e-05, 4.02734375) (-4.873686599731445e-05, 4.029296875) (-5.255245971679687e-05, 4.03125) (-5.890195846557617e-05, 4.033203125) (-6.709893798828124e-05, 4.03515625) (-7.489518737792968e-05, 4.037109375) (-8.005989074707031e-05, 4.0390625) (-8.045896911621094e-05, 4.041015625) (-7.546681213378906e-05, 4.04296875) (-6.674201202392578e-05, 4.044921875) (-5.4173507690429686e-05, 4.046875) (-3.558835983276367e-05, 4.048828125) (-6.347394943237304e-06, 4.05078125) (4.005302047729492e-05, 4.052734375) (0.00010525311279296875, 4.0546875) (0.0001866167755126953, 4.056640625) (0.0002785538024902344, 4.05859375) (0.000373180908203125, 4.060546875) (0.00046608251953125, 4.0625) (0.000554986328125, 4.064453125) (0.0006362855224609375, 4.06640625) (0.0007051243896484374, 4.068359375) (0.0007548414916992187, 4.0703125) (0.0007774182128906249, 4.072265625) (0.0007682207641601562, 4.07421875) (0.0007277180786132812, 4.076171875) (0.0006583469848632812, 4.078125) (0.0005673485107421874, 4.080078125) (0.00046515698242187496, 4.08203125) (0.0003615311584472656, 4.083984375) (0.00026840716552734375, 4.0859375) (0.00019446499633789062, 4.087890625) (0.00014132066345214843, 4.08984375) (0.00010672450256347656, 4.091796875) (8.336015319824218e-05, 4.09375) (6.353457260131836e-05, 4.095703125) (4.469900131225586e-05, 4.09765625) (2.735424041748047e-05, 4.099609375) (1.4644006729125977e-05, 4.1015625) (9.881370544433593e-06, 4.103515625) (1.270461082458496e-05, 4.10546875) (2.090470504760742e-05, 4.107421875) (3.176973915100097e-05, 4.109375) (4.241451644897461e-05, 4.111328125) (5.1597904205322264e-05, 4.11328125) (5.8878326416015624e-05, 4.115234375) (6.347956085205078e-05, 4.1171875) (6.516363525390625e-05, 4.119140625) (6.413165283203124e-05, 4.12109375) (6.063313674926758e-05, 4.123046875) (5.532685852050781e-05, 4.125) (4.9166774749755855e-05, 4.126953125) (4.2788482666015626e-05, 4.12890625) (3.6910446166992184e-05, 4.130859375) (3.2562545776367186e-05, 4.1328125) (3.024485397338867e-05, 4.134765625) (3.0069026947021484e-05, 4.13671875) (3.2051731109619136e-05, 4.138671875) (3.5837299346923825e-05, 4.140625) (4.092568969726562e-05, 4.142578125) (4.6953067779541016e-05, 4.14453125) (5.336039733886718e-05, 4.146484375) (5.940009307861328e-05, 4.1484375) (6.467092895507812e-05, 4.150390625) (6.898544311523437e-05, 4.15234375) (7.226417541503906e-05, 4.154296875) (7.466815185546875e-05, 4.15625) (7.635348510742188e-05, 4.158203125) (7.74453125e-05, 4.16015625) (7.822026824951172e-05, 4.162109375) (7.903035736083983e-05, 4.1640625) (8.012757873535155e-05, 4.166015625) (8.166800689697265e-05, 4.16796875) (8.371104431152343e-05, 4.169921875) (8.621810913085937e-05, 4.171875) (8.917183685302734e-05, 4.173828125) (9.25733413696289e-05, 4.17578125) (9.638455200195312e-05, 4.177734375) (0.00010054847717285155, 4.1796875) (0.00010499989318847655, 4.181640625) (0.00010968019104003906, 4.18359375) (0.00011455269622802734, 4.185546875) (0.00011959504699707031, 4.1875) (0.0001247782211303711, 4.189453125) (0.0001300502166748047, 4.19140625) (0.00013534564208984374, 4.193359375) (0.0001405906982421875, 4.1953125) (0.0001457110595703125, 4.197265625) (0.0001506524200439453, 4.19921875) (0.0001553768768310547, 4.201171875) (0.00015985322570800781, 4.203125) (0.00016405635070800782, 4.205078125) (0.00016796856689453124, 4.20703125) (0.00017157887268066406, 4.208984375) (0.00017488612365722657, 4.2109375) (0.0001779002990722656, 4.212890625) (0.0001806276397705078, 4.21484375) (0.00018307009887695311, 4.216796875) (0.00018522985839843748, 4.21875) (0.00018710821533203124, 4.220703125) (0.00018871179199218748, 4.22265625) (0.00019005201721191407, 4.224609375) (0.00019114163208007812, 4.2265625) (0.00019199349975585937, 4.228515625) (0.00019261834716796875, 4.23046875) (0.00019302496337890624, 4.232421875) (0.0001932218780517578, 4.234375) (0.00019321781921386718, 4.236328125) (0.0001930201416015625, 4.23828125) (0.0001926356964111328, 4.240234375) (0.00019206973266601562, 4.2421875) (0.0001913250732421875, 4.244140625) (0.00019040643310546873, 4.24609375) (0.00018932029724121093, 4.248046875) (0.00018807351684570312, 4.25) (0.00018667347717285154, 4.251953125) (0.00018512701416015625, 4.25390625) (0.0001834394836425781, 4.255859375) (0.0001816162109375, 4.2578125) (0.00017966285705566404, 4.259765625) (0.00017758409118652342, 4.26171875) (0.00017538356018066405, 4.263671875) (0.00017306420898437498, 4.265625) (0.0001706278076171875, 4.267578125) (0.0001680758056640625, 4.26953125) (0.00016540960693359373, 4.271484375) (0.0001626306610107422, 4.2734375) (0.000159740234375, 4.275390625) (0.00015673944091796875, 4.27734375) (0.00015362905883789063, 4.279296875) (0.0001504095001220703, 4.28125) (0.00014708151245117188, 4.283203125) (0.00014364620971679687, 4.28515625) (0.00014010537719726562, 4.287109375) (0.00013646115112304688, 4.2890625) (0.00013271566772460937, 4.291015625) (0.00012887132263183593, 4.29296875) (0.00012493132019042967, 4.294921875) (0.00012090005493164061, 4.296875) (0.00011678248596191406, 4.298828125) (0.0001125840835571289, 4.30078125) (0.00010831042480468749, 4.302734375) (0.00010396721649169922, 4.3046875) (9.956127929687499e-05, 4.306640625) (9.510071563720703e-05, 4.30859375) (9.059402465820313e-05, 4.310546875) (8.604995727539062e-05, 4.3125) (8.147772216796874e-05, 4.314453125) (7.688659667968749e-05, 4.31640625) (7.228665924072266e-05, 4.318359375) (6.768925476074219e-05, 4.3203125) (6.310582733154297e-05, 4.322265625) (5.854775238037109e-05, 4.32421875) (5.402646255493164e-05, 4.326171875) (4.955307006835937e-05, 4.328125) (4.51386489868164e-05, 4.330078125) (4.0794391632080074e-05, 4.33203125) (3.6530712127685547e-05, 4.333984375) (3.2356693267822266e-05, 4.3359375) (2.8280174255371092e-05, 4.337890625) (2.43076171875e-05, 4.33984375) (2.0444572448730467e-05, 4.341796875) (1.6695690155029296e-05, 4.34375) (1.306458282470703e-05, 4.345703125) (9.554525375366211e-06, 4.34765625) (6.16874361038208e-06, 4.349609375) (2.9109954833984375e-06, 4.3515625) (-2.1506780385971068e-07, 4.353515625) (-3.206881523132324e-06, 4.35546875) (-6.062856674194336e-06, 4.357421875) (-8.78233528137207e-06, 4.359375) (-1.1364942550659179e-05, 4.361328125) (-1.3810595512390136e-05, 4.36328125) (-1.6121212005615232e-05, 4.365234375) (-1.8302125930786132e-05, 4.3671875) (-2.0359153747558592e-05, 4.369140625) (-2.229697799682617e-05, 4.37109375) (-2.4116418838500975e-05, 4.373046875) (-2.5811149597167967e-05, 4.375) (-2.7378206253051755e-05, 4.376953125) (-2.882261276245117e-05, 4.37890625) (-3.0155529022216796e-05, 4.380859375) (-3.139663505554199e-05, 4.3828125) (-3.256238555908203e-05, 4.384765625) (-3.366000366210937e-05, 4.38671875) (-3.470055389404297e-05, 4.388671875) (-3.5701915740966796e-05, 4.390625) (-3.667755889892578e-05, 4.392578125) (-3.7636920928955074e-05, 4.39453125) (-3.8571422576904296e-05, 4.396484375) (-3.944306945800781e-05, 4.3984375) (-4.022034835815429e-05, 4.400390625) (-4.088551330566406e-05, 4.40234375) (-4.143499755859375e-05, 4.404296875) (-4.1893707275390626e-05, 4.40625) (-4.2266445159912104e-05, 4.408203125) (-4.2519367218017574e-05, 4.41015625) (-4.260959625244141e-05, 4.412109375) (-4.247890472412109e-05, 4.4140625) (-4.2085372924804685e-05, 4.416015625) (-4.144525909423828e-05, 4.41796875) (-4.0546710968017573e-05, 4.419921875) (-3.932481002807617e-05, 4.421875) (-3.778742980957031e-05, 4.423828125) (-3.599147796630859e-05, 4.42578125) (-3.407543182373047e-05, 4.427734375) (-3.234919738769531e-05, 4.4296875) (-3.106785774230957e-05, 4.431640625) (-3.0303647994995116e-05, 4.43359375) (-3.0115722656249998e-05, 4.435546875) (-3.050373077392578e-05, 4.4375) (-3.133932495117187e-05, 4.439453125) (-3.258663940429687e-05, 4.44140625) (-3.410128784179687e-05, 4.443359375) (-3.5432323455810546e-05, 4.4453125) (-3.6168083190917964e-05, 4.447265625) (-3.6049888610839845e-05, 4.44921875) (-3.493270874023437e-05, 4.451171875) (-3.301182174682617e-05, 4.453125) (-3.070446968078613e-05, 4.455078125) (-2.8184408187866208e-05, 4.45703125) (-2.569122314453125e-05, 4.458984375) (-2.373440361022949e-05, 4.4609375) (-2.288992691040039e-05, 4.462890625) (-2.391688537597656e-05, 4.46484375) (-2.7391498565673828e-05, 4.466796875) (-3.329970932006836e-05, 4.46875) (-4.131157302856445e-05, 4.470703125) (-5.118926239013672e-05, 4.47265625) (-6.259730148315429e-05, 4.474609375) (-7.503816223144531e-05, 4.4765625) (-8.725944519042969e-05, 4.478515625) (-9.685209655761718e-05, 4.48046875) (-0.00010163836669921875, 4.482421875) (-0.00010023608398437499, 4.484375) (-9.281697845458984e-05, 4.486328125) (-8.051349639892578e-05, 4.48828125) (-6.298246383666992e-05, 4.490234375) (-3.773361206054687e-05, 4.4921875) (-4.5746803283691407e-07, 4.494140625) (5.1905651092529296e-05, 4.49609375) (0.00011889259338378906, 4.498046875) (0.00019625146484375, 4.5) (0.00027737710571289063, 4.501953125) (0.00035774581909179685, 4.50390625) (0.00043532135009765623, 4.505859375) (0.000508941162109375, 4.5078125) (0.0005760740966796875, 4.509765625) (0.0006303721923828125, 4.51171875) (0.0006627650146484375, 4.513671875) (0.0006648988647460938, 4.515625) (0.0006333062133789063, 4.517578125) (0.0005695130004882812, 4.51953125) (0.00048026348876953123, 4.521484375) (0.00037628085327148433, 4.5234375) (0.0002679679565429687, 4.525390625) (0.00016610168457031248, 4.52734375) (7.98937759399414e-05, 4.529296875) (1.3912473678588867e-05, 4.53125) (-3.117390823364258e-05, 4.533203125) (-5.930664825439453e-05, 4.53515625) (-7.754780578613281e-05, 4.537109375) (-9.192185974121094e-05, 4.5390625) (-0.00010507074737548827, 4.541015625) (-0.00011648898315429687, 4.54296875) (-0.00012358070373535155, 4.544921875) (-0.0001241575012207031, 4.546875) (-0.00011886453247070311, 4.548828125) (-0.00011001967620849609, 4.55078125) (-0.00010012930297851562, 4.552734375) (-9.109150695800781e-05, 4.5546875) (-8.337165832519531e-05, 4.556640625) (-7.686794281005859e-05, 4.55859375) (-7.191586303710937e-05, 4.560546875) (-6.890011596679687e-05, 4.5625) (-6.786070251464843e-05, 4.564453125) (-6.856078338623047e-05, 4.56640625) (-7.052099609375e-05, 4.568359375) (-7.337847137451172e-05, 4.5703125) (-7.705503082275391e-05, 4.572265625) (-8.130323791503906e-05, 4.57421875) (-8.544365692138672e-05, 4.576171875) (-8.874053955078124e-05, 4.578125) (-9.077320098876953e-05, 4.580078125) (-9.144770050048827e-05, 4.58203125) (-9.094511413574219e-05, 4.583984375) (-8.951425933837891e-05, 4.5859375) (-8.729494476318359e-05, 4.587890625) (-8.453205871582032e-05, 4.58984375) (-8.171006774902343e-05, 4.591796875) (-7.926573944091797e-05, 4.59375) (-7.744198608398437e-05, 4.595703125) (-7.631021118164062e-05, 4.59765625) (-7.574893188476562e-05, 4.599609375) (-7.554127502441406e-05, 4.6015625) (-7.548631286621094e-05, 4.603515625) (-7.536141967773438e-05, 4.60546875) (-7.489129638671874e-05, 4.607421875) (-7.389001464843749e-05, 4.609375) (-7.227497863769532e-05, 4.611328125) (-7.000823974609374e-05, 4.61328125) (-6.71253433227539e-05, 4.615234375) (-6.36887321472168e-05, 4.6171875) (-5.9754215240478514e-05, 4.619140625) (-5.539534759521484e-05, 4.62109375) (-5.069644165039062e-05, 4.623046875) (-4.571178436279297e-05, 4.625) (-4.0477653503417964e-05, 4.626953125) (-3.503730773925781e-05, 4.62890625) (-2.9429218292236327e-05, 4.630859375) (-2.371360397338867e-05, 4.6328125) (-1.7970567703247068e-05, 4.634765625) (-1.2258825302124023e-05, 4.63671875) (-6.622196674346924e-06, 4.638671875) (-1.095279574394226e-06, 4.640625) (4.3007755279541015e-06, 4.642578125) (9.546101570129394e-06, 4.64453125) (1.4622230529785155e-05, 4.646484375) (1.952647018432617e-05, 4.6484375) (2.426842498779297e-05, 4.650390625) (2.885197830200195e-05, 4.65234375) (3.3276401519775386e-05, 4.654296875) (3.753631591796875e-05, 4.65625) (4.162231826782226e-05, 4.658203125) (4.553339004516601e-05, 4.66015625) (4.927497100830078e-05, 4.662109375) (5.285365295410156e-05, 4.6640625) (5.627667236328125e-05, 4.666015625) (5.9549789428710934e-05, 4.66796875) (6.267782592773438e-05, 4.669921875) (6.566594696044921e-05, 4.671875) (6.851894378662109e-05, 4.673828125) (7.123893737792968e-05, 4.67578125) (7.382591247558594e-05, 4.677734375) (7.627797698974609e-05, 4.6796875) (7.859208679199218e-05, 4.681640625) (8.076771545410156e-05, 4.68359375) (8.280630493164063e-05, 4.685546875) (8.470954895019531e-05, 4.6875) (8.647979736328125e-05, 4.689453125) (8.811906433105469e-05, 4.69140625) (8.962882995605468e-05, 4.693359375) (9.101097869873047e-05, 4.6953125) (9.226741027832031e-05, 4.697265625) (9.33985366821289e-05, 4.69921875) (9.440349578857421e-05, 4.701171875) (9.528099060058593e-05, 4.703125) (9.602903747558593e-05, 4.705078125) (9.664563751220703e-05, 4.70703125) (9.712896728515625e-05, 4.708984375) (9.747666931152343e-05, 4.7109375) (9.768591308593749e-05, 4.712890625) (9.775410461425781e-05, 4.71484375) (9.767874908447266e-05, 4.716796875) (9.745748901367187e-05, 4.71875) (9.708815765380859e-05, 4.720703125) (9.6568603515625e-05, 4.72265625) (9.589646911621093e-05, 4.724609375) (9.506997680664063e-05, 4.7265625) (9.408795928955077e-05, 4.728515625) (9.294943237304686e-05, 4.73046875) (9.165396881103515e-05, 4.732421875) (9.020175170898436e-05, 4.734375) (8.859361267089843e-05, 4.736328125) (8.683148193359375e-05, 4.73828125) (8.491838073730468e-05, 4.740234375) (8.285797882080078e-05, 4.7421875) (8.065481567382813e-05, 4.744140625) (7.831457519531249e-05, 4.74609375) (7.58437042236328e-05, 4.748046875) (7.324954223632812e-05, 4.75) (7.054026794433593e-05, 4.751953125) (6.772439575195312e-05, 4.75390625) (6.481103515625e-05, 4.755859375) (6.18104248046875e-05, 4.7578125) (5.87332763671875e-05, 4.759765625) (5.559098815917969e-05, 4.76171875) (5.239604187011719e-05, 4.763671875) (4.916130065917969e-05, 4.765625) (4.5900123596191405e-05, 4.767578125) (4.262676620483398e-05, 4.76953125) (3.935549163818359e-05, 4.771484375) (3.6100463867187496e-05, 4.7734375) (3.287616348266601e-05, 4.775390625) (2.9696596145629882e-05, 4.77734375) (2.657476997375488e-05, 4.779296875) (2.35229434967041e-05, 4.78125) (2.0551788330078124e-05, 4.783203125) (1.7670522689819336e-05, 4.78515625) (1.4888139724731445e-05, 4.787109375) (1.2212778091430663e-05, 4.7890625) (9.651474952697754e-06, 4.791015625) (7.209951400756835e-06, 4.79296875) (4.892332077026367e-06, 4.794921875) (2.7021114826202393e-06, 4.796875) (6.433625817298889e-07, 4.798828125) (-1.2796082496643065e-06, 4.80078125) (-3.0639104843139645e-06, 4.802734375) (-4.7085900306701654e-06, 4.8046875) (-6.215378761291504e-06, 4.806640625) (-7.587790012359619e-06, 4.80859375) (-8.829022407531739e-06, 4.810546875) (-9.941479682922362e-06, 4.8125) (-1.0927999496459961e-05, 4.814453125) (-1.1793864250183104e-05, 4.81640625) (-1.25462007522583e-05, 4.818359375) (-1.3193994522094727e-05, 4.8203125) (-1.3744478225708007e-05, 4.822265625) (-1.419842529296875e-05, 4.82421875) (-1.45569429397583e-05, 4.826171875) (-1.4827278137207031e-05, 4.828125) (-1.5024785041809082e-05, 4.830078125) (-1.5172967910766601e-05, 4.83203125) (-1.529391288757324e-05, 4.833984375) (-1.540003776550293e-05, 4.8359375) (-1.5498826980590818e-05, 4.837890625) (-1.5600467681884766e-05, 4.83984375) (-1.571326446533203e-05, 4.841796875) (-1.584373664855957e-05, 4.84375) (-1.598902702331543e-05, 4.845703125) (-1.6124576568603516e-05, 4.84765625) (-1.622163391113281e-05, 4.849609375) (-1.625369644165039e-05, 4.8515625) (-1.619785690307617e-05, 4.853515625) (-1.60523624420166e-05, 4.85546875) (-1.5818516731262207e-05, 4.857421875) (-1.5479936599731445e-05, 4.859375) (-1.5011733055114746e-05, 4.861328125) (-1.4368337631225585e-05, 4.86328125) (-1.3493273735046385e-05, 4.865234375) (-1.2370569229125977e-05, 4.8671875) (-1.1004763603210448e-05, 4.869140625) (-9.38978099822998e-06, 4.87109375) (-7.55320405960083e-06, 4.873046875) (-5.50818395614624e-06, 4.875) (-3.242342710494995e-06, 4.876953125) (-8.806340098381042e-07, 4.87890625) (1.3686792850494384e-06, 4.880859375) (3.3334035873413082e-06, 4.8828125) (4.81605863571167e-06, 4.884765625) (5.7403020858764645e-06, 4.88671875) (6.208676815032959e-06, 4.888671875) (6.151671409606934e-06, 4.890625) (5.3190126419067384e-06, 4.892578125) (3.6818768978118893e-06, 4.89453125) (1.3643299341201783e-06, 4.896484375) (-1.3572051525115966e-06, 4.8984375) (-3.924826145172119e-06, 4.900390625) (-6.136365890502929e-06, 4.90234375) (-8.209360122680664e-06, 4.904296875) (-1.0042181015014648e-05, 4.90625) (-1.1256416320800781e-05, 4.908203125) (-1.166122531890869e-05, 4.91015625) (-1.1197803497314453e-05, 4.912109375) (-1.0262201309204101e-05, 4.9140625) (-9.876941680908203e-06, 4.916015625) (-1.0622673034667968e-05, 4.91796875) (-1.2585281372070312e-05, 4.919921875) (-1.6074180603027344e-05, 4.921875) (-2.1461898803710935e-05, 4.923828125) (-2.8501623153686523e-05, 4.92578125) (-3.63688850402832e-05, 4.927734375) (-4.3862106323242184e-05, 4.9296875) (-4.927528762817383e-05, 4.931640625) (-5.2583412170410156e-05, 4.93359375) (-5.48478775024414e-05, 4.935546875) (-5.50411376953125e-05, 4.9375) (-5.007070159912109e-05, 4.939453125) (-3.415595245361328e-05, 4.94140625) (-8.563268184661864e-07, 4.943359375) (5.153364181518554e-05, 4.9453125) (0.00011911571502685546, 4.947265625) (0.00019481393432617186, 4.94921875) (0.0002711539916992187, 4.951171875) (0.0003445167236328125, 4.953125) (0.0004160342102050781, 4.955078125) (0.00048710437011718747, 4.95703125) (0.0005564129638671875, 4.958984375) (0.0006182979736328125, 4.9609375) (0.0006635682373046874, 4.962890625) (0.0006834445190429687, 4.96484375) (0.0006726488037109375, 4.966796875) (0.0006311840209960938, 4.96875) (0.000562224853515625, 4.970703125) (0.000471929443359375, 4.97265625) (0.00036952685546875, 4.974609375) (0.00026415057373046873, 4.9765625) (0.00016685174560546873, 4.978515625) (8.745929718017578e-05, 4.98046875) (2.907866096496582e-05, 4.982421875) (-9.301209449768066e-06, 4.984375) (-3.386289978027344e-05, 4.986328125) (-5.325291442871094e-05, 4.98828125) (-7.147615814208984e-05, 4.990234375) (-8.918929290771484e-05, 4.9921875) (-0.00010427943420410156, 4.994140625) (-0.00011288134002685546, 4.99609375) (-0.00011411685180664062, 4.998046875) (-0.00010953050994873046, 5.0) (-0.00010153395080566405, 5.001953125) (-9.288851928710938e-05, 5.00390625) (-8.462996673583984e-05, 5.005859375) (-7.671177673339843e-05, 5.0078125) (-6.922428894042969e-05, 5.009765625) (-6.250893402099609e-05, 5.01171875) (-5.744475173950195e-05, 5.013671875) (-5.465207290649414e-05, 5.015625) (-5.4027336120605466e-05, 5.017578125) (-5.5280204772949214e-05, 5.01953125) (-5.83082160949707e-05, 5.021484375) (-6.300255584716797e-05, 5.0234375) (-6.916232299804687e-05, 5.025390625) (-7.615990447998047e-05, 5.02734375) (-8.279301452636719e-05, 5.029296875) (-8.822057342529296e-05, 5.03125) (-9.217876434326171e-05, 5.033203125) (-9.461577606201172e-05, 5.03515625) (-9.563737487792969e-05, 5.037109375) (-9.538978576660156e-05, 5.0390625) (-9.396650695800781e-05, 5.041015625) (-9.17403564453125e-05, 5.04296875) (-8.944410705566406e-05, 5.044921875) (-8.755269622802734e-05, 5.046875) (-8.624230957031249e-05, 5.048828125) (-8.553962707519531e-05, 5.05078125) (-8.522671508789062e-05, 5.052734375) (-8.507894134521485e-05, 5.0546875) (-8.49832305908203e-05, 5.056640625) (-8.473745727539062e-05, 5.05859375) (-8.406257629394531e-05, 5.060546875) (-8.280795288085938e-05, 5.0625) (-8.089453124999999e-05, 5.064453125) (-7.830619812011719e-05, 5.06640625) (-7.5149658203125e-05, 5.068359375) (-7.151499938964844e-05, 5.0703125) (-6.74520492553711e-05, 5.072265625) (-6.303359985351562e-05, 5.07421875) (-5.832011032104492e-05, 5.076171875) (-5.3352577209472656e-05, 5.078125) (-4.818590545654297e-05, 5.080078125) (-4.286855316162109e-05, 5.08203125) (-3.7443557739257814e-05, 5.083984375) (-3.197323799133301e-05, 5.0859375) (-2.6508651733398438e-05, 5.087890625) (-2.1086627960205076e-05, 5.08984375) (-1.5744020462036132e-05, 5.091796875) (-1.0504085540771484e-05, 5.09375) (-5.384216785430908e-06, 5.095703125) (-4.003239870071411e-07, 5.09765625) (4.447309494018555e-06, 5.099609375) (9.16602897644043e-06, 5.1015625) (1.3756278991699218e-05, 5.103515625) (1.821505355834961e-05, 5.10546875) (2.2534088134765624e-05, 5.107421875) (2.6702241897583008e-05, 5.109375) (3.071678924560547e-05, 5.111328125) (3.457930374145508e-05, 5.11328125) (3.829157257080078e-05, 5.115234375) (4.1857711791992185e-05, 5.1171875) (4.528012084960937e-05, 5.119140625) (4.856048583984375e-05, 5.12109375) (5.1703041076660156e-05, 5.123046875) (5.471041107177734e-05, 5.125) (5.7582111358642575e-05, 5.126953125) (6.031640625e-05, 5.12890625) (6.290877532958984e-05, 5.130859375) (6.535360717773437e-05, 5.1328125) (6.764823913574219e-05, 5.134765625) (6.979115295410156e-05, 5.13671875) (7.178130340576172e-05, 5.138671875) (7.36185531616211e-05, 5.140625) (7.530228424072265e-05, 5.142578125) (7.68316192626953e-05, 5.14453125) (7.820643615722656e-05, 5.146484375) (7.942639160156249e-05, 5.1484375) (8.048993682861328e-05, 5.150390625) (8.139488220214844e-05, 5.15234375) (8.213827514648438e-05, 5.154296875) (8.271678924560546e-05, 5.15625) (8.31274642944336e-05, 5.158203125) (8.336722564697265e-05, 5.16015625) (8.343276214599609e-05, 5.162109375) (8.332089996337891e-05, 5.1640625) (8.302872467041015e-05, 5.166015625) (8.255364990234374e-05, 5.16796875) (8.189360046386718e-05, 5.169921875) (8.10468292236328e-05, 5.171875) (8.001185607910156e-05, 5.173828125) (7.87879638671875e-05, 5.17578125) (7.737520599365234e-05, 5.177734375) (7.57743911743164e-05, 5.1796875) (7.398700714111328e-05, 5.181640625) (7.20150146484375e-05, 5.18359375) (6.986112213134765e-05, 5.185546875) (6.7529296875e-05, 5.1875) (6.502474212646485e-05, 5.189453125) (6.235387420654296e-05, 5.19140625) (5.9524230957031245e-05, 5.193359375) (5.654402160644531e-05, 5.1953125) (5.342250823974609e-05, 5.197265625) (5.017047119140625e-05, 5.19921875) (4.679955291748047e-05, 5.201171875) (4.332208633422851e-05, 5.203125) (3.9750892639160156e-05, 5.205078125) (3.6098861694335934e-05, 5.20703125) (3.23793716430664e-05, 5.208984375) (2.8606790542602538e-05, 5.2109375) (2.4796043395996094e-05, 5.212890625) (2.0962184906005858e-05, 5.21484375) (1.7120792388916013e-05, 5.216796875) (1.3287536621093749e-05, 5.21875) (9.47819709777832e-06, 5.220703125) (5.70917797088623e-06, 5.22265625) (1.9965763092041015e-06, 5.224609375) (-1.644148826599121e-06, 5.2265625) (-5.198131561279296e-06, 5.228515625) (-8.651618957519531e-06, 5.23046875) (-1.1992291450500488e-05, 5.232421875) (-1.5208927154541015e-05, 5.234375) (-1.8291900634765623e-05, 5.236328125) (-2.1233839035034177e-05, 5.23828125) (-2.402878189086914e-05, 5.240234375) (-2.6672510147094725e-05, 5.2421875) (-2.9163036346435544e-05, 5.244140625) (-3.149978256225586e-05, 5.24609375) (-3.368350219726562e-05, 5.248046875) (-3.571670150756836e-05, 5.25) (-3.7602043151855465e-05, 5.251953125) (-3.93417854309082e-05, 5.25390625) (-4.093997573852539e-05, 5.255859375) (-4.240201950073242e-05, 5.2578125) (-4.37340087890625e-05, 5.259765625) (-4.4944076538085936e-05, 5.26171875) (-4.604080200195312e-05, 5.263671875) (-4.703172302246094e-05, 5.265625) (-4.7927108764648435e-05, 5.267578125) (-4.873971176147461e-05, 5.26953125) (-4.9480899810791016e-05, 5.271484375) (-5.016284942626953e-05, 5.2734375) (-5.079319381713867e-05, 5.275390625) (-5.137164306640625e-05, 5.27734375) (-5.190119171142578e-05, 5.279296875) (-5.238893890380859e-05, 5.28125) (-5.284746551513672e-05, 5.283203125) (-5.329984283447265e-05, 5.28515625) (-5.376631164550781e-05, 5.287109375) (-5.425737380981445e-05, 5.2890625) (-5.478651809692382e-05, 5.291015625) (-5.5370101928710935e-05, 5.29296875) (-5.601742172241211e-05, 5.294921875) (-5.673671340942383e-05, 5.296875) (-5.751691055297851e-05, 5.298828125) (-5.831819534301757e-05, 5.30078125) (-5.910688018798828e-05, 5.302734375) (-5.9854942321777344e-05, 5.3046875) (-6.054779052734375e-05, 5.306640625) (-6.119901275634765e-05, 5.30859375) (-6.180912399291993e-05, 5.310546875) (-6.235270309448242e-05, 5.3125) (-6.279219818115235e-05, 5.314453125) (-6.307023239135742e-05, 5.31640625) (-6.313349914550781e-05, 5.318359375) (-6.297280883789062e-05, 5.3203125) (-6.256320190429687e-05, 5.322265625) (-6.1840576171875e-05, 5.32421875) (-6.08044319152832e-05, 5.326171875) (-5.950303649902344e-05, 5.328125) (-5.8066310882568355e-05, 5.330078125) (-5.675738525390625e-05, 5.33203125) (-5.581729507446289e-05, 5.333984375) (-5.539148712158203e-05, 5.3359375) (-5.558229064941406e-05, 5.337890625) (-5.6434658050537105e-05, 5.33984375) (-5.785590362548828e-05, 5.341796875) (-5.970448303222656e-05, 5.34375) (-6.175208282470703e-05, 5.345703125) (-6.360363006591797e-05, 5.34765625) (-6.486684417724609e-05, 5.349609375) (-6.517764282226562e-05, 5.3515625) (-6.430498504638672e-05, 5.353515625) (-6.22434959411621e-05, 5.35546875) (-5.9234645843505855e-05, 5.357421875) (-5.5654037475585934e-05, 5.359375) (-5.1880458831787104e-05, 5.361328125) (-4.837405776977539e-05, 5.36328125) (-4.573275756835937e-05, 5.365234375) (-4.4697631835937495e-05, 5.3671875) (-4.583137130737305e-05, 5.369140625) (-4.9509582519531245e-05, 5.37109375) (-5.577161407470703e-05, 5.373046875) (-6.423820495605468e-05, 5.375) (-7.468862152099609e-05, 5.376953125) (-8.633790588378905e-05, 5.37890625) (-9.730921936035155e-05, 5.380859375) (-0.00010564544677734374, 5.3828125) (-0.00010941697692871094, 5.384765625) (-0.00010776033782958984, 5.38671875) (-0.00010199655151367187, 5.388671875) (-9.271142578125e-05, 5.390625) (-7.840425872802734e-05, 5.392578125) (-5.5430995941162104e-05, 5.39453125) (-1.7744680404663084e-05, 5.396484375) (3.840332794189453e-05, 5.3984375) (0.000112292724609375, 5.400390625) (0.00019967568969726562, 5.40234375) (0.0002936764221191406, 5.404296875) (0.00038864892578124996, 5.40625) (0.0004809278564453125, 5.408203125) (0.000567, 5.41015625) (0.0006418472290039062, 5.412109375) (0.0006981597290039062, 5.4140625) (0.0007280063476562499, 5.416015625) (0.0007256741943359375, 5.41796875) (0.000690552978515625, 5.419921875) (0.0006262870483398437, 5.421875) (0.0005402191162109375, 5.423828125) (0.00044212277221679683, 5.42578125) (0.00034113317871093746, 5.427734375) (0.00024699522399902345, 5.4296875) (0.00016741342163085937, 5.431640625) (0.0001051510772705078, 5.43359375) (5.999477005004883e-05, 5.435546875) (2.7098436355590818e-05, 5.4375) (-9.243249893188476e-08, 5.439453125) (-2.4221134185791016e-05, 5.44140625) (-4.574307250976562e-05, 5.443359375) (-6.26447982788086e-05, 5.4453125) (-7.150993347167968e-05, 5.447265625) (-7.248880767822266e-05, 5.44921875) (-6.780155944824218e-05, 5.451171875) (-6.014983367919922e-05, 5.453125) (-5.271905517578125e-05, 5.455078125) (-4.705423355102539e-05, 5.45703125) (-4.345117950439453e-05, 5.458984375) (-4.2229545593261716e-05, 5.4609375) (-4.3601757049560544e-05, 5.462890625) (-4.743387222290039e-05, 5.46484375) (-5.339241027832031e-05, 5.466796875) (-6.072394561767578e-05, 5.46875) (-6.835305023193359e-05, 5.470703125) (-7.542888641357421e-05, 5.47265625) (-8.128047180175781e-05, 5.474609375) (-8.548008728027344e-05, 5.4765625) (-8.778046417236328e-05, 5.478515625) (-8.808634948730468e-05, 5.48046875) (-8.652436065673828e-05, 5.482421875) (-8.344225311279296e-05, 5.484375) (-7.936837768554688e-05, 5.486328125) (-7.489901733398438e-05, 5.48828125) (-7.06510009765625e-05, 5.490234375) (-6.702662658691406e-05, 5.4921875) (-6.42531280517578e-05, 5.494140625) (-6.245246505737304e-05, 5.49609375) (-6.157667922973632e-05, 5.498046875) (-6.152024841308594e-05, 5.5) (-6.213945770263672e-05, 5.501953125) (-6.318013000488281e-05, 5.50390625) (-6.431973266601562e-05, 5.505859375) (-6.528462982177734e-05, 5.5078125) (-6.585156249999999e-05, 5.509765625) (-6.589021301269531e-05, 5.51171875) (-6.537629699707031e-05, 5.513671875) (-6.429293823242188e-05, 5.515625) (-6.262664031982422e-05, 5.517578125) (-6.038936614990234e-05, 5.51953125) (-5.760956573486328e-05, 5.521484375) (-5.4338180541992184e-05, 5.5234375) (-5.064021682739258e-05, 5.525390625) (-4.6561485290527344e-05, 5.52734375) (-4.213302230834961e-05, 5.529296875) (-3.738799285888672e-05, 5.53125) (-3.2361850738525387e-05, 5.533203125) (-2.71120491027832e-05, 5.53515625) (-2.171222686767578e-05, 5.537109375) (-1.623820114135742e-05, 5.5390625) (-1.0767108917236328e-05, 5.541015625) (-5.357051372528076e-06, 5.54296875) (-4.744720458984375e-08, 5.544921875) (5.126541137695312e-06, 5.546875) (1.0136152267456054e-05, 5.548828125) (1.4959941864013672e-05, 5.55078125) (1.9582534790039062e-05, 5.552734375) (2.400325012207031e-05, 5.5546875) (2.8231613159179688e-05, 5.556640625) (3.227027893066406e-05, 5.55859375) (3.61177978515625e-05, 5.560546875) (3.9771881103515625e-05, 5.5625) (4.3228961944580076e-05, 5.564453125) (4.6493152618408203e-05, 5.56640625) (4.957324981689453e-05, 5.568359375) (5.247543334960937e-05, 5.5703125) (5.520581817626953e-05, 5.572265625) (5.776890182495117e-05, 5.57421875) (6.016659545898437e-05, 5.576171875) (6.240220642089843e-05, 5.578125) (6.447915649414062e-05, 5.580078125) (6.639814758300781e-05, 5.58203125) (6.815914916992187e-05, 5.583984375) (6.976082611083985e-05, 5.5859375) (7.119985961914062e-05, 5.587890625) (7.24752426147461e-05, 5.58984375) (7.358816528320313e-05, 5.591796875) (7.453981018066407e-05, 5.59375) (7.53321762084961e-05, 5.595703125) (7.596697998046875e-05, 5.59765625) (7.644491577148438e-05, 5.599609375) (7.676736450195312e-05, 5.6015625) (7.693637084960937e-05, 5.603515625) (7.695288848876953e-05, 5.60546875) (7.681707763671874e-05, 5.607421875) (7.652875518798827e-05, 5.609375) (7.60869903564453e-05, 5.611328125) (7.549125671386719e-05, 5.61328125) (7.474153900146483e-05, 5.615234375) (7.38375244140625e-05, 5.6171875) (7.277919006347656e-05, 5.619140625) (7.156703186035156e-05, 5.62109375) (7.020160675048827e-05, 5.623046875) (6.868379974365234e-05, 5.625) (6.701506042480468e-05, 5.626953125) (6.519715118408202e-05, 5.62890625) (6.323261260986328e-05, 5.630859375) (6.112501144409179e-05, 5.6328125) (5.887815856933593e-05, 5.634765625) (5.649638366699219e-05, 5.63671875) (5.398511505126953e-05, 5.638671875) (5.1350555419921875e-05, 5.640625) (4.8599601745605465e-05, 5.642578125) (4.5739818572998044e-05, 5.64453125) (4.277895736694336e-05, 5.646484375) (3.972529220581054e-05, 5.6484375) (3.658821487426758e-05, 5.650390625) (3.3377689361572264e-05, 5.65234375) (3.0103824615478514e-05, 5.654296875) (2.6777009963989257e-05, 5.65625) (2.340791320800781e-05, 5.658203125) (2.0007673263549803e-05, 5.66015625) (1.6588260650634764e-05, 5.662109375) (1.3161834716796874e-05, 5.6640625) (9.740433692932129e-06, 5.666015625) (6.336684226989746e-06, 5.66796875) (2.963324308395386e-06, 5.669921875) (-3.674728870391846e-07, 5.671875) (-3.6438646316528317e-06, 5.673828125) (-6.855341911315917e-06, 5.67578125) (-9.99319553375244e-06, 5.677734375) (-1.3049305915832518e-05, 5.6796875) (-1.601658248901367e-05, 5.681640625) (-1.888966369628906e-05, 5.68359375) (-2.1663774490356443e-05, 5.685546875) (-2.433449363708496e-05, 5.6875) (-2.6898481369018555e-05, 5.689453125) (-2.93519172668457e-05, 5.69140625) (-3.169064712524414e-05, 5.693359375) (-3.391207885742187e-05, 5.6953125) (-3.6014713287353517e-05, 5.697265625) (-3.7998897552490235e-05, 5.69921875) (-3.986793899536133e-05, 5.701171875) (-4.16263427734375e-05, 5.703125) (-4.327815246582031e-05, 5.705078125) (-4.482798385620117e-05, 5.70703125) (-4.628101348876953e-05, 5.708984375) (-4.764321517944336e-05, 5.7109375) (-4.8922843933105463e-05, 5.712890625) (-5.0126068115234374e-05, 5.71484375) (-5.125472259521484e-05, 5.716796875) (-5.231203842163086e-05, 5.71875) (-5.330563354492187e-05, 5.720703125) (-5.4251857757568355e-05, 5.72265625) (-5.5176517486572265e-05, 5.724609375) (-5.610301971435547e-05, 5.7265625) (-5.704637908935546e-05, 5.728515625) (-5.801744842529297e-05, 5.73046875) (-5.902581024169922e-05, 5.732421875) (-6.0079345703125e-05, 5.734375) (-6.118395233154297e-05, 5.736328125) (-6.233256530761719e-05, 5.73828125) (-6.349951553344727e-05, 5.740234375) (-6.465608978271484e-05, 5.7421875) (-6.577455902099609e-05, 5.744140625) (-6.683438110351563e-05, 5.74609375) (-6.782864379882812e-05, 5.748046875) (-6.874370574951172e-05, 5.75) (-6.954747009277344e-05, 5.751953125) (-7.019098663330078e-05, 5.75390625) (-7.061259460449218e-05, 5.755859375) (-7.07613067626953e-05, 5.7578125) (-7.061858367919922e-05, 5.759765625) (-7.018536376953124e-05, 5.76171875) (-6.9455810546875e-05, 5.763671875) (-6.843032836914062e-05, 5.765625) (-6.712577056884765e-05, 5.767578125) (-6.558853912353516e-05, 5.76953125) (-6.392604827880859e-05, 5.771484375) (-6.22654800415039e-05, 5.7734375) (-6.0716697692871094e-05, 5.775390625) (-5.937720489501953e-05, 5.77734375) (-5.832969284057617e-05, 5.779296875) (-5.7655517578124995e-05, 5.78125) (-5.7489391326904296e-05, 5.783203125) (-5.803351593017578e-05, 5.78515625) (-5.945088195800781e-05, 5.787109375) (-6.181956481933594e-05, 5.7890625) (-6.50716323852539e-05, 5.791015625) (-6.895651245117188e-05, 5.79296875) (-7.32238311767578e-05, 5.794921875) (-7.768755340576172e-05, 5.796875) (-8.207836151123047e-05, 5.798828125) (-8.59976577758789e-05, 5.80078125) (-8.904997253417969e-05, 5.802734375) (-9.09471435546875e-05, 5.8046875) (-9.179925537109374e-05, 5.806640625) (-9.223428344726562e-05, 5.80859375) (-9.291529846191405e-05, 5.810546875) (-9.441165161132812e-05, 5.8125) (-9.725914764404296e-05, 5.814453125) (-0.0001018524169921875, 5.81640625) (-0.00010853791809082031, 5.818359375) (-0.00011697312927246093, 5.8203125) (-0.0001256533508300781, 5.822265625) (-0.000132593994140625, 5.82421875) (-0.00013552645874023437, 5.826171875) (-0.00013365446472167968, 5.828125) (-0.00012779953002929687, 5.830078125) (-0.00011711944580078125, 5.83203125) (-9.982857513427734e-05, 5.833984375) (-7.14771728515625e-05, 5.8359375) (-2.5777856826782225e-05, 5.837890625) (3.8026512145996095e-05, 5.83984375) (0.00011731993103027343, 5.841796875) (0.00020601458740234375, 5.84375) (0.00029529104614257814, 5.845703125) (0.00038192877197265623, 5.84765625) (0.0004646580810546875, 5.849609375) (0.0005412708740234374, 5.8515625) (0.0006086753540039062, 5.853515625) (0.0006586053466796875, 5.85546875) (0.0006813611450195312, 5.857421875) (0.0006710482177734375, 5.859375) (0.0006267489624023437, 5.861328125) (0.0005525466308593749, 5.86328125) (0.0004573919982910156, 5.865234375) (0.0003524356994628906, 5.8671875) (0.0002480303344726562, 5.869140625) (0.00015529881286621092, 5.87109375) (8.225468444824219e-05, 5.873046875) (3.0453468322753903e-05, 5.875) (-2.140839099884033e-06, 5.876953125) (-2.2465930938720703e-05, 5.87890625) (-3.864204406738281e-05, 5.880859375) (-5.3889923095703126e-05, 5.8828125) (-6.855237579345703e-05, 5.884765625) (-8.051042175292969e-05, 5.88671875) (-8.669847106933594e-05, 5.888671875) (-8.730602264404297e-05, 5.890625) (-8.45937728881836e-05, 5.892578125) (-8.109329223632812e-05, 5.89453125) (-7.912258148193359e-05, 5.896484375) (-7.952772521972656e-05, 5.8984375) (-8.197045898437499e-05, 5.900390625) (-8.603816986083984e-05, 5.90234375) (-9.146585845947265e-05, 5.904296875) (-9.78971939086914e-05, 5.90625) (-0.00010470013427734374, 5.908203125) (-0.00011115785217285155, 5.91015625) (-0.00011660037231445311, 5.912109375) (-0.00012042553710937499, 5.9140625) (-0.00012252306365966796, 5.916015625) (-0.00012296238708496093, 5.91796875) (-0.00012163758850097656, 5.919921875) (-0.0001186984405517578, 5.921875) (-0.00011450786590576172, 5.923828125) (-0.00010945352172851563, 5.92578125) (-0.00010408872222900391, 5.927734375) (-9.899953460693358e-05, 5.9296875) (-9.445823669433593e-05, 5.931640625) (-9.061971282958984e-05, 5.93359375) (-8.767327880859375e-05, 5.935546875) (-8.563423919677734e-05, 5.9375) (-8.444944763183594e-05, 5.939453125) (-8.403384399414062e-05, 5.94140625) (-8.415995025634765e-05, 5.943359375) (-8.455821228027344e-05, 5.9453125) (-8.503884124755859e-05, 5.947265625) (-8.544862365722656e-05, 5.94921875) (-8.563872528076171e-05, 5.951171875) (-8.550328063964844e-05, 5.953125) (-8.496148681640624e-05, 5.955078125) (-8.395584106445313e-05, 5.95703125) (-8.248138427734375e-05, 5.958984375) (-8.05650405883789e-05, 5.9609375) (-7.823294830322266e-05, 5.962890625) (-7.550885009765625e-05, 5.96484375) (-7.242299652099608e-05, 5.966796875) (-6.901251220703125e-05, 5.96875) (-6.532000732421875e-05, 5.970703125) (-6.13980827331543e-05, 5.97265625) (-5.729843521118164e-05, 5.974609375) (-5.306824493408203e-05, 5.9765625) (-4.876581573486328e-05, 5.978515625) (-4.445339965820312e-05, 5.98046875) (-4.019654083251953e-05, 5.982421875) (-3.6067687988281246e-05, 5.984375) (-3.212261199951172e-05, 5.986328125) (-2.8398735046386718e-05, 5.98828125) (-2.492725944519043e-05, 5.990234375) (-2.1729293823242187e-05, 5.9921875) (-1.8816490173339842e-05, 5.994140625) (-1.6198200225830077e-05, 5.99609375) (-1.3874767303466797e-05, 5.998046875) (-1.1835294723510741e-05, 6.0) (-1.007308292388916e-05, 6.001953125) (-8.58391284942627e-06, 6.00390625) (-7.36173677444458e-06, 6.005859375) (-6.403487205505371e-06, 6.0078125) (-5.703569889068603e-06, 6.009765625) (-5.252435207366943e-06, 6.01171875) (-5.040523529052734e-06, 6.013671875) (-5.057684421539307e-06, 6.015625) (-5.294160366058349e-06, 6.017578125) (-5.7419915199279785e-06, 6.01953125) (-6.393571853637695e-06, 6.021484375) (-7.2408747673034665e-06, 6.0234375) (-8.276803970336914e-06, 6.025390625) (-9.494812965393066e-06, 6.02734375) (-1.0889595985412597e-05, 6.029296875) (-1.2457742691040039e-05, 6.03125) (-1.4194087982177733e-05, 6.033203125) (-1.609151077270508e-05, 6.03515625) (-1.8142482757568357e-05, 6.037109375) (-2.033878135681152e-05, 6.0390625) (-2.2672332763671875e-05, 6.041015625) (-2.5135616302490232e-05, 6.04296875) (-2.772053337097168e-05, 6.044921875) (-3.041830825805664e-05, 6.046875) (-3.3221038818359374e-05, 6.048828125) (-3.612184906005859e-05, 6.05078125) (-3.9114227294921876e-05, 6.052734375) (-4.2192199707031245e-05, 6.0546875) (-4.535001754760742e-05, 6.056640625) (-4.85817642211914e-05, 6.05859375) (-5.188182830810547e-05, 6.060546875) (-5.5245246887207025e-05, 6.0625) (-5.866706466674804e-05, 6.064453125) (-6.214203643798828e-05, 6.06640625) (-6.566505432128906e-05, 6.068359375) (-6.923074340820312e-05, 6.0703125) (-7.283340454101562e-05, 6.072265625) (-7.646768188476562e-05, 6.07421875) (-8.012808227539062e-05, 6.076171875) (-8.380838012695312e-05, 6.078125) (-8.750234222412109e-05, 6.080078125) (-9.120379638671875e-05, 6.08203125) (-9.490635681152343e-05, 6.083984375) (-9.860408020019531e-05, 6.0859375) (-0.00010229112243652343, 6.087890625) (-0.00010596098327636718, 6.08984375) (-0.00010960707092285156, 6.091796875) (-0.00011322303771972656, 6.09375) (-0.00011680225372314453, 6.095703125) (-0.00012033818054199218, 6.09765625) (-0.00012382455444335936, 6.099609375) (-0.00012725441741943358, 6.1015625) (-0.0001306211395263672, 6.103515625) (-0.00013391864013671874, 6.10546875) (-0.00013714076232910157, 6.107421875) (-0.00014028195190429686, 6.109375) (-0.00014333786010742186, 6.111328125) (-0.00014630422973632812, 6.11328125) (-0.00014917787170410155, 6.115234375) (-0.00015195713806152343, 6.1171875) (-0.00015464004516601562, 6.119140625) (-0.00015722560119628905, 6.12109375) (-0.00015971469116210938, 6.123046875) (-0.0001621085205078125, 6.125) (-0.00016440931701660155, 6.126953125) (-0.00016662057495117188, 6.12890625) (-0.00016874411010742187, 6.130859375) (-0.00017078079223632812, 6.1328125) (-0.00017273324584960936, 6.134765625) (-0.00017460398864746092, 6.13671875) (-0.00017639675903320312, 6.138671875) (-0.0001781170196533203, 6.140625) (-0.000179767822265625, 6.142578125) (-0.00018135107421875, 6.14453125) (-0.00018287054443359374, 6.146484375) (-0.00018433143615722655, 6.1484375) (-0.00018574061584472655, 6.150390625) (-0.00018710604858398436, 6.15234375) (-0.00018842904663085938, 6.154296875) (-0.00018970367431640623, 6.15625) (-0.00019092559814453124, 6.158203125) (-0.00019209310913085936, 6.16015625) (-0.00019321310424804688, 6.162109375) (-0.00019430181884765623, 6.1640625) (-0.00019537112426757812, 6.166015625) (-0.0001964252014160156, 6.16796875) (-0.0001974667053222656, 6.169921875) (-0.00019850099182128905, 6.171875) (-0.0001995335693359375, 6.173828125) (-0.0002005677795410156, 6.17578125) (-0.00020159255981445313, 6.177734375) (-0.00020257174682617186, 6.1796875) (-0.00020346159362792969, 6.181640625) (-0.0002042245635986328, 6.18359375) (-0.00020483749389648437, 6.185546875) (-0.00020530035400390624, 6.1875) (-0.0002056202697753906, 6.189453125) (-0.0002057826690673828, 6.19140625) (-0.00020574443054199217, 6.193359375) (-0.0002054500732421875, 6.1953125) (-0.0002048410949707031, 6.197265625) (-0.00020388546752929686, 6.19921875) (-0.0002025901184082031, 6.201171875) (-0.00020092971801757812, 6.203125) (-0.00019886026000976562, 6.205078125) (-0.00019640460205078123, 6.20703125) (-0.0001936428985595703, 6.208984375) (-0.0001907552032470703, 6.2109375) (-0.00018804563903808592, 6.212890625) (-0.00018576420593261717, 6.21484375) (-0.0001839953918457031, 6.216796875) (-0.00018279116821289063, 6.21875) (-0.00018215480041503906, 6.220703125) (-0.00018197166442871093, 6.22265625) (-0.00018220048522949218, 6.224609375) (-0.00018268717956542967, 6.2265625) (-0.00018294906616210936, 6.228515625) (-0.0001824932861328125, 6.23046875) (-0.00018102136230468749, 6.232421875) (-0.00017837570190429688, 6.234375) (-0.0001746831817626953, 6.236328125) (-0.00017030828857421873, 6.23828125) (-0.0001653531494140625, 6.240234375) (-0.00015995709228515626, 6.2421875) (-0.0001547218322753906, 6.244140625) (-0.0001504386291503906, 6.24609375) (-0.00014792520141601562, 6.248046875) (-0.00014781741333007813, 6.25) (-0.00015026808166503905, 6.251953125) (-0.00015502145385742187, 6.25390625) (-0.0001619466857910156, 6.255859375) (-0.00017092236328125, 6.2578125) (-0.00018086114501953123, 6.259765625) (-0.00018960317993164063, 6.26171875) (-0.00019485751342773438, 6.263671875) (-0.00019433914184570312, 6.265625) (-0.00018715507507324218, 6.267578125) (-0.00017452989196777344, 6.26953125) (-0.00015654029846191405, 6.271484375) (-0.000131673583984375, 6.2734375) (-9.73032455444336e-05, 6.275390625) (-4.891853332519531e-05, 6.27734375) (1.596255874633789e-05, 6.279296875) (9.568574523925781e-05, 6.28125) (0.00018703402709960938, 6.283203125) (0.00028475582885742186, 6.28515625) (0.000382673095703125, 6.287109375) (0.0004765511474609375, 6.2890625) (0.0005601937255859374, 6.291015625) (0.0006257331542968749, 6.29296875) (0.0006659798583984374, 6.294921875) (0.0006733734130859374, 6.296875) (0.000645117431640625, 6.298828125) (0.0005837298583984375, 6.30078125) (0.0004955950317382812, 6.302734375) (0.00039146957397460935, 6.3046875) (0.0002826106262207031, 6.306640625) (0.00018027496337890623, 6.30859375) (9.399014282226562e-05, 6.310546875) (2.8813724517822263e-05, 6.3125) (-1.4755255699157714e-05, 6.314453125) (-4.142686080932617e-05, 6.31640625) (-5.8773632049560545e-05, 6.318359375) (-7.328326416015624e-05, 6.3203125) (-8.786947631835937e-05, 6.322265625) (-0.00010170713806152343, 6.32421875) (-0.00011188446044921874, 6.326171875) (-0.00011615530395507812, 6.328125) (-0.0001150397491455078, 6.330078125) (-0.00011089541625976562, 6.33203125) (-0.00010639224243164062, 6.333984375) (-0.00010347257995605469, 6.3359375) (-0.00010262688446044922, 6.337890625) (-0.00010349021911621093, 6.33984375) (-0.00010576101684570312, 6.341796875) (-0.00010926729583740234, 6.34375) (-0.00011375723266601562, 6.345703125) (-0.00011870875549316406, 6.34765625) (-0.00012340570068359374, 6.349609375) (-0.00012722032165527343, 6.3515625) (-0.00012966380310058592, 6.353515625) (-0.00013066000366210938, 6.35546875) (-0.00013029220581054686, 6.357421875) (-0.00012846444702148437, 6.359375) (-0.00012524261474609376, 6.361328125) (-0.00012090716552734374, 6.36328125) (-0.00011581257629394531, 6.365234375) (-0.00011046347045898437, 6.3671875) (-0.00010542396545410156, 6.369140625) (-0.00010095410919189452, 