(0.0008105611572265625, 0.0) (0.00103473095703125, 0.001953125) (0.0011600155029296874, 0.00390625) (0.0011849322509765625, 0.005859375) (0.0011407371826171874, 0.0078125) (0.0010668218994140625, 0.009765625) (0.0009942020263671875, 0.01171875) (0.00093231494140625, 0.013671875) (0.0008774387207031249, 0.015625) (0.0008268995971679687, 0.017578125) (0.0007771942138671875, 0.01953125) (0.000730521240234375, 0.021484375) (0.0006888353881835937, 0.0234375) (0.0006466838378906249, 0.025390625) (0.000601856201171875, 0.02734375) (0.0005532313232421875, 0.029296875) (0.0005013451538085937, 0.03125) (0.00045198242187499996, 0.033203125) (0.0004074677734375, 0.03515625) (0.0003673300476074219, 0.037109375) (0.00033086669921875, 0.0390625) (0.00029517138671875, 0.041015625) (0.00025880722045898435, 0.04296875) (0.000222238037109375, 0.044921875) (0.00018557757568359373, 0.046875) (0.00014949560546874998, 0.048828125) (0.00011482763671875, 0.05078125) (8.14410400390625e-05, 0.052734375) (4.910578155517578e-05, 0.0546875) (1.7722408294677735e-05, 0.056640625) (-1.3245615005493163e-05, 0.05859375) (-4.4270416259765624e-05, 0.060546875) (-7.552497100830077e-05, 0.0625) (-0.00010758262634277344, 0.064453125) (-0.00014117794799804688, 0.06640625) (-0.00017635592651367186, 0.068359375) (-0.00021295379638671874, 0.0703125) (-0.0002505570373535156, 0.072265625) (-0.00028824200439453126, 0.07421875) (-0.0003254143371582031, 0.076171875) (-0.000361794677734375, 0.078125) (-0.0003968299560546875, 0.080078125) (-0.0004299158935546875, 0.08203125) (-0.00046080871582031247, 0.083984375) (-0.0004893765869140625, 0.0859375) (-0.000515801513671875, 0.087890625) (-0.0005406688232421874, 0.08984375) (-0.0005642680053710937, 0.091796875) (-0.0005866719360351563, 0.09375) (-0.0006080360107421875, 0.095703125) (-0.0006284682617187499, 0.09765625) (-0.0006480128173828125, 0.099609375) (-0.0006667086181640625, 0.1015625) (-0.0006844456787109375, 0.103515625) (-0.0007009671630859375, 0.10546875) (-0.0007161549682617187, 0.107421875) (-0.0007299956665039062, 0.109375) (-0.0007424996337890624, 0.111328125) (-0.0007537537231445313, 0.11328125) (-0.0007638609008789062, 0.115234375) (-0.00077294140625, 0.1171875) (-0.0007811710205078125, 0.119140625) (-0.0007887430419921875, 0.12109375) (-0.0007958128662109374, 0.123046875) (-0.00080249951171875, 0.125) (-0.0008089102172851563, 0.126953125) (-0.0008151330566406249, 0.12890625) (-0.0008212359619140624, 0.130859375) (-0.0008272629394531249, 0.1328125) (-0.0008332052001953124, 0.134765625) (-0.00083901220703125, 0.13671875) (-0.0008446353759765624, 0.138671875) (-0.000850029052734375, 0.140625) (-0.000855132080078125, 0.142578125) (-0.00085985791015625, 0.14453125) (-0.0008640698852539062, 0.146484375) (-0.0008675834350585938, 0.1484375) (-0.0008702175292968749, 0.150390625) (-0.0008718085327148437, 0.15234375) (-0.0008721896362304687, 0.154296875) (-0.0008711903076171875, 0.15625) (-0.0008686207885742187, 0.158203125) (-0.0008642908935546875, 0.16015625) (-0.0008580531005859375, 0.162109375) (-0.0008498050537109374, 0.1640625) (-0.0008394872436523437, 0.166015625) (-0.0008270694580078125, 0.16796875) (-0.0008125247802734375, 0.169921875) (-0.00079583642578125, 0.171875) (-0.0007770181274414063, 0.173828125) (-0.0007561175537109375, 0.17578125) (-0.00073323095703125, 0.177734375) (-0.0007084957275390625, 0.1796875) (-0.0006820516357421874, 0.181640625) (-0.0006540486450195312, 0.18359375) (-0.0006246641845703125, 0.185546875) (-0.0005941040039062499, 0.1875) (-0.0005626057739257812, 0.189453125) (-0.0005304061889648437, 0.19140625) (-0.0004977149047851562, 0.193359375) (-0.0004647200012207031, 0.1953125) (-0.00043159567260742186, 0.197265625) (-0.00039851171875, 0.19921875) (-0.00036563137817382813, 0.201171875) (-0.00033309710693359373, 0.203125) (-0.0003010261840820312, 0.205078125) (-0.00026952178955078125, 0.20703125) (-0.00023866317749023436, 0.208984375) (-0.0002085074768066406, 0.2109375) (-0.0001791039276123047, 0.212890625) (-0.00015047706604003907, 0.21484375) (-0.00012262527465820312, 0.216796875) (-9.552680206298827e-05, 0.21875) (-6.914170837402343e-05, 0.220703125) (-4.34306640625e-05, 0.22265625) (-1.8357330322265625e-05, 0.224609375) (6.11949872970581e-06, 0.2265625) (3.0051322937011717e-05, 0.228515625) (5.349605560302734e-05, 0.23046875) (7.650001525878905e-05, 0.232421875) (9.908879089355468e-05, 0.234375) (0.00012128046417236327, 0.236328125) (0.00014310635375976562, 0.23828125) (0.00016459939575195313, 0.240234375) (0.00018578643798828124, 0.2421875) (0.00020668606567382812, 0.244140625) (0.0002273003234863281, 0.24609375) (0.00024763224792480467, 0.248046875) (0.0002676986389160156, 0.25) (0.00028752145385742186, 0.251953125) (0.0003071146240234375, 0.25390625) (0.00032647723388671873, 0.255859375) (0.0003455899658203125, 0.2578125) (0.00036442111206054685, 0.259765625) (0.0003829410400390625, 0.26171875) (0.00040112606811523434, 0.263671875) (0.000418955078125, 0.265625) (0.00043638964843749996, 0.267578125) (0.000453359130859375, 0.26953125) (0.0004697819213867187, 0.271484375) (0.0004855771789550781, 0.2734375) (0.0005006651000976563, 0.275390625) (0.0005149652709960938, 0.27734375) (0.0005283680419921875, 0.279296875) (0.0005407222290039062, 0.28125) (0.0005518696899414063, 0.283203125) (0.0005616773681640625, 0.28515625) (0.0005700336303710937, 0.287109375) (0.0005768499755859375, 0.2890625) (0.0005820411376953124, 0.291015625) (0.000585508544921875, 0.29296875) (0.0005871777954101562, 0.294921875) (0.000587010498046875, 0.296875) (0.0005850128173828125, 0.298828125) (0.0005812427978515624, 0.30078125) (0.0005757752075195312, 0.302734375) (0.000568693115234375, 0.3046875) (0.0005601035766601562, 0.306640625) (0.0005501405029296874, 0.30859375) (0.000538986572265625, 0.310546875) (0.0005268799438476562, 0.3125) (0.0005140603637695312, 0.314453125) (0.0005007410278320312, 0.31640625) (0.000487134765625, 0.318359375) (0.0004734469604492187, 0.3203125) (0.00045990133666992184, 0.322265625) (0.00044675326538085936, 0.32421875) (0.00043421557617187497, 0.326171875) (0.00042244622802734374, 0.328125) (0.00041156100463867184, 0.330078125) (0.00040162716674804684, 0.33203125) (0.00039270016479492185, 0.333984375) (0.0003848289184570312, 0.3359375) (0.00037802511596679686, 0.337890625) (0.00037226242065429687, 0.33984375) (0.0003674764709472656, 0.341796875) (0.00036356243896484375, 0.34375) (0.00036042187499999996, 0.345703125) (0.00035797723388671874, 0.34765625) (0.0003561319580078125, 0.349609375) (0.0003547799072265625, 0.3515625) (0.0003537872314453125, 0.353515625) (0.00035298376464843747, 0.35546875) (0.0003522383117675781, 0.357421875) (0.0003514641723632812, 0.359375) (0.00035059396362304687, 0.361328125) (0.0003495874633789062, 0.36328125) (0.00034840753173828124, 0.365234375) (0.00034701571655273435, 0.3671875) (0.0003454039916992187, 0.369140625) (0.0003435924987792969, 0.37109375) (0.0003416110229492187, 0.373046875) (0.00033949984741210934, 0.375) (0.00033728634643554687, 0.376953125) (0.00033498052978515625, 0.37890625) (0.000332608154296875, 0.380859375) (0.0003302042236328125, 0.3828125) (0.00032781661987304686, 0.384765625) (0.0003255111083984375, 0.38671875) (0.0003233255920410156, 0.388671875) (0.00032127230834960935, 0.390625) (0.0003193590393066406, 0.392578125) (0.000317580078125, 0.39453125) (0.00031592541503906247, 0.396484375) (0.000314382568359375, 0.3984375) (0.0003129164123535156, 0.400390625) (0.0003114784240722656, 0.40234375) (0.00031002770996093747, 0.404296875) (0.000308526123046875, 0.40625) (0.00030694323730468746, 0.408203125) (0.00030525921630859376, 0.41015625) (0.0003034459228515625, 0.412109375) (0.0003014765625, 0.4140625) (0.00029933074951171874, 0.416015625) (0.0002969826049804687, 0.41796875) (0.00029441607666015623, 0.419921875) (0.00029162011718749997, 0.421875) (0.00028857672119140626, 0.423828125) (0.0002852777099609375, 0.42578125) (0.000281722900390625, 0.427734375) (0.0002779163818359375, 0.4296875) (0.00027387506103515623, 0.431640625) (0.00026960968017578123, 0.43359375) (0.00026511035156249997, 0.435546875) (0.00026036553955078126, 0.4375) (0.0002553616943359375, 0.439453125) (0.0002500739440917969, 0.44140625) (0.00024447903442382813, 0.443359375) (0.00023853504943847654, 0.4453125) (0.00023217352294921875, 0.447265625) (0.00022534051513671874, 0.44921875) (0.00021799403381347654, 0.451171875) (0.00021010002136230468, 0.453125) (0.0002016432189941406, 0.455078125) (0.0001925959777832031, 0.45703125) (0.00018291705322265623, 0.458984375) (0.00017257443237304686, 0.4609375) (0.0001615428466796875, 0.462890625) (0.0001498236846923828, 0.46484375) (0.00013745687866210937, 0.466796875) (0.00012448873901367186, 0.46875) (0.00011097171783447265, 0.470703125) (9.698905944824219e-05, 0.47265625) (8.263923645019531e-05, 0.474609375) (6.805996704101562e-05, 0.4765625) (5.3437492370605466e-05, 0.478515625) (3.893151092529297e-05, 0.48046875) (2.4675527572631835e-05, 0.482421875) (1.0801319122314452e-05, 0.484375) (-2.5771479606628416e-06, 0.486328125) (-1.532560157775879e-05, 0.48828125) (-2.7283147811889647e-05, 0.490234375) (-3.831314086914062e-05, 0.4921875) (-4.830747604370117e-05, 0.494140625) (-5.718872833251953e-05, 0.49609375) (-6.492831420898438e-05, 0.498046875) (-7.151876831054687e-05, 0.5) (-7.696954345703125e-05, 0.501953125) (-8.134556579589843e-05, 0.50390625) (-8.475191497802733e-05, 0.505859375) (-8.73428726196289e-05, 0.5078125) (-8.933120727539062e-05, 0.509765625) (-9.090927124023437e-05, 0.51171875) (-9.224636840820312e-05, 0.513671875) (-9.352739715576172e-05, 0.515625) (-9.493564605712891e-05, 0.517578125) (-9.668144226074218e-05, 0.51953125) (-9.90132598876953e-05, 0.521484375) (-0.00010215577697753906, 0.5234375) (-0.00010629840087890625, 0.525390625) (-0.00011161001586914062, 0.52734375) (-0.00011821490478515624, 0.529296875) (-0.00012620169067382813, 0.53125) (-0.00013563160705566405, 0.533203125) (-0.00014650180053710937, 0.53515625) (-0.00015875442504882813, 0.537109375) (-0.00017228662109374998, 0.5390625) (-0.00018694467163085936, 0.541015625) (-0.00020257443237304686, 0.54296875) (-0.00021902700805664062, 0.544921875) (-0.0002361293487548828, 0.546875) (-0.000253696044921875, 0.548828125) (-0.00027151373291015626, 0.55078125) (-0.0002893336181640625, 0.552734375) (-0.00030692095947265624, 0.5546875) (-0.000324066650390625, 0.556640625) (-0.00034058285522460936, 0.55859375) (-0.0003563279113769531, 0.560546875) (-0.00037119702148437497, 0.5625) (-0.00038512115478515625, 0.564453125) (-0.00039808447265624996, 0.56640625) (-0.0004101085205078125, 0.568359375) (-0.00042126049804687497, 0.5703125) (-0.00043165316772460937, 0.572265625) (-0.00044140484619140623, 0.57421875) (-0.0004506514587402344, 0.576171875) (-0.00045954833984375, 0.578125) (-0.0004682257385253906, 0.580078125) (-0.00047684954833984375, 0.58203125) (-0.00048563491821289063, 0.583984375) (-0.0004947050170898438, 0.5859375) (-0.000504111328125, 0.587890625) (-0.0005138016967773438, 0.58984375) (-0.0005234946899414062, 0.591796875) (-0.0005328396606445312, 0.59375) (-0.000541510986328125, 0.595703125) (-0.0005490579833984375, 0.59765625) (-0.0005549622192382813, 0.599609375) (-0.0005588465576171874, 0.6015625) (-0.0005604006958007812, 0.603515625) (-0.0005595712890625, 0.60546875) (-0.0005568455200195313, 0.607421875) (-0.0005528680419921875, 0.609375) (-0.0005482407836914062, 0.611328125) (-0.0005436170654296875, 0.61328125) (-0.0005396640625, 0.615234375) (-0.0005368887329101562, 0.6171875) (-0.0005356602783203125, 0.619140625) (-0.0005361039428710937, 0.62109375) (-0.000536525634765625, 0.623046875) (-0.000533328125, 0.625) (-0.0005229647216796875, 0.626953125) (-0.0005018703002929687, 0.62890625) (-0.00046924743652343746, 0.630859375) (-0.0004296456909179687, 0.6328125) (-0.0003867319946289062, 0.634765625) (-0.00034149053955078124, 0.63671875) (-0.00029128683471679685, 0.638671875) (-0.000224318603515625, 0.640625) (-0.00012935015869140623, 0.642578125) (-2.3276443481445312e-06, 0.64453125) (0.00015534709167480467, 0.646484375) (0.0003298473205566406, 0.6484375) (0.0005009921264648437, 0.650390625) (0.000650053466796875, 0.65234375) (0.0007579406127929687, 0.654296875) (0.000809698486328125, 0.65625) (0.0007969337768554687, 0.658203125) (0.0007174239501953124, 0.66015625) (0.0005762691650390625, 0.662109375) (0.00038919952392578124, 0.6640625) (0.00017926657104492185, 0.666015625) (-2.9307865142822266e-05, 0.66796875) (-0.00021218280029296874, 0.669921875) (-0.0003540028076171875, 0.671875) (-0.000450642333984375, 0.673828125) (-0.0005052720642089843, 0.67578125) (-0.0005272288208007812, 0.677734375) (-0.0005256088256835938, 0.6796875) (-0.0005080736389160156, 0.681640625) (-0.0004806460266113281, 0.68359375) (-0.0004491378173828125, 0.685546875) (-0.0004199977111816406, 0.6875) (-0.00039558142089843746, 0.689453125) (-0.0003748997802734375, 0.69140625) (-0.00035365325927734373, 0.693359375) (-0.000326586669921875, 0.6953125) (-0.00029296453857421875, 0.697265625) (-0.00025640356445312497, 0.69921875) (-0.0002226900634765625, 0.701171875) (-0.0001960196075439453, 0.703125) (-0.00017726197814941404, 0.705078125) (-0.00016454537963867186, 0.70703125) (-0.00015466505432128907, 0.708984375) (-0.00014607577514648437, 0.7109375) (-0.00013840985107421873, 0.712890625) (-0.00013104136657714842, 0.71484375) (-0.00012360156249999999, 0.716796875) (-0.00011537689208984374, 0.71875) (-0.00010540377044677733, 0.720703125) (-9.369863891601562e-05, 0.72265625) (-8.075464630126952e-05, 0.724609375) (-6.678929138183594e-05, 0.7265625) (-5.2171142578125e-05, 0.728515625) (-3.742884063720703e-05, 0.73046875) (-2.2968706130981444e-05, 0.732421875) (-9.434670448303222e-06, 0.734375) (2.44293212890625e-06, 0.736328125) (1.2461970329284668e-05, 0.73828125) (2.069993209838867e-05, 0.740234375) (2.729184341430664e-05, 0.7421875) (3.2541061401367185e-05, 0.744140625) (3.673944473266601e-05, 0.74609375) (4.012708282470703e-05, 0.748046875) (4.30566291809082e-05, 0.75) (4.5920711517333984e-05, 0.751953125) (4.8949817657470704e-05, 0.75390625) (5.225880432128906e-05, 0.755859375) (5.5886512756347656e-05, 0.7578125) (5.978807830810547e-05, 0.759765625) (6.393597030639649e-05, 0.76171875) (6.831373596191406e-05, 0.763671875) (7.287611389160157e-05, 0.765625) (7.756958770751953e-05, 0.767578125) (8.236302185058594e-05, 0.76953125) (8.725317382812499e-05, 0.771484375) (9.223470306396485e-05, 0.7734375) (9.730250549316406e-05, 0.775390625) (0.00010244280242919921, 0.77734375) (0.00010762139892578125, 0.779296875) (0.00011281411743164062, 0.78125) (0.00011801470947265624, 0.783203125) (0.00012322076416015624, 0.78515625) (0.00012843798828124999, 0.787109375) (0.0001336852569580078, 0.7890625) (0.00013898077392578124, 0.791015625) (0.00014434750366210938, 0.79296875) (0.00014983404541015624, 0.794921875) (0.00015549154663085937, 0.796875) (0.00016135279846191407, 0.798828125) (0.00016743603515624998, 0.80078125) (0.00017373397827148438, 0.802734375) (0.00018023593139648438, 0.8046875) (0.00018694972229003906, 0.806640625) (0.00019388670349121092, 0.80859375) (0.0002010524139404297, 0.810546875) (0.00020844419860839843, 0.8125) (0.0002160406036376953, 0.814453125) (0.00022380969238281249, 0.81640625) (0.00023172805786132812, 0.818359375) (0.000239767578125, 0.8203125) (0.00024789559936523435, 0.822265625) (0.0002560826416015625, 0.82421875) (0.00026427374267578126, 0.826171875) (0.00027239767456054687, 0.828125) (0.0002804055786132812, 0.830078125) (0.00028825830078125, 0.83203125) (0.0002959231262207031, 0.833984375) (0.0003033769836425781, 0.8359375) (0.00031056903076171876, 0.837890625) (0.00031742395019531246, 0.83984375) (0.0003238828735351562, 0.841796875) (0.0003298937072753906, 0.84375) (0.00033541149902343746, 0.845703125) (0.0003404101867675781, 0.84765625) (0.00034485272216796875, 0.849609375) (0.0003486978149414062, 0.8515625) (0.0003519196166992187, 0.853515625) (0.00035449044799804687, 0.85546875) (0.0003564002685546875, 0.857421875) (0.0003576618957519531, 0.859375) (0.000358269287109375, 0.861328125) (0.000358214599609375, 0.86328125) (0.0003575034484863281, 0.865234375) (0.0003561339111328125, 0.8671875) (0.00035414062499999996, 0.869140625) (0.0003516043395996094, 0.87109375) (0.00034859481811523433, 0.873046875) (0.00034518634033203126, 0.875) (0.00034146429443359375, 0.876953125) (0.0003374886779785156, 0.87890625) (0.00033332452392578125, 0.880859375) (0.0003290462646484375, 0.8828125) (0.0003247043762207031, 0.884765625) (0.00032034826660156247, 0.88671875) (0.00031602294921875, 0.888671875) (0.0003117538146972656, 0.890625) (0.0003075812377929687, 0.892578125) (0.00030355108642578124, 0.89453125) (0.0002996949768066406, 0.896484375) (0.000296053466796875, 0.8984375) (0.0002926379089355469, 0.900390625) (0.0002894110412597656, 0.90234375) (0.000286335205078125, 0.904296875) (0.00028335815429687497, 0.90625) (0.000280406982421875, 0.908203125) (0.00027743475341796876, 0.91015625) (0.0002743984985351562, 0.912109375) (0.00027124728393554685, 0.9140625) (0.000267955322265625, 0.916015625) (0.00026450250244140625, 0.91796875) (0.00026086614990234374, 0.919921875) (0.00025703973388671873, 0.921875) (0.00025300885009765626, 0.923828125) (0.0002487475891113281, 0.92578125) (0.000244233642578125, 0.927734375) (0.00023943441772460936, 0.9296875) (0.0002343290557861328, 0.931640625) (0.0002289295959472656, 0.93359375) (0.00022325480651855467, 0.935546875) (0.00021733726501464842, 0.9375) (0.00021122711181640623, 0.939453125) (0.00020495730590820312, 0.94140625) (0.00019855413818359373, 0.943359375) (0.00019204867553710935, 0.9453125) (0.00018545474243164062, 0.947265625) (0.00017877867126464843, 0.94921875) (0.00017202816772460936, 0.951171875) (0.000165198486328125, 0.953125) (0.00015828466796875, 0.955078125) (0.00015129266357421874, 0.95703125) (0.00014423104858398436, 0.958984375) (0.0001371153564453125, 0.9609375) (0.00012996145629882812, 0.962890625) (0.00012277154541015626, 0.96484375) (0.0001155421142578125, 0.966796875) (0.0001082638702392578, 0.96875) (0.00010091937255859374, 0.970703125) (9.34971466064453e-05, 0.97265625) (8.598921203613281e-05, 0.974609375) (7.838499450683593e-05, 0.9765625) (7.068084716796875e-05, 0.978515625) (6.28786506652832e-05, 0.98046875) (5.4981605529785155e-05, 0.982421875) (4.7000125885009764e-05, 0.984375) (3.894806671142578e-05, 0.986328125) (3.083464241027832e-05, 0.98828125) (2.266740036010742e-05, 0.990234375) (1.4452564239501953e-05, 0.9921875) (6.1945505142211914e-06, 0.994140625) (-2.098905086517334e-06, 0.99609375) (-1.0417360305786133e-05, 0.998046875) (-1.8749591827392577e-05, 1.0) (-2.7082191467285155e-05, 1.001953125) (-3.540118408203125e-05, 1.00390625) (-4.369223022460937e-05, 1.005859375) (-5.193910598754883e-05, 1.0078125) (-6.012581634521484e-05, 1.009765625) (-6.823771667480468e-05, 1.01171875) (-7.626068115234375e-05, 1.013671875) (-8.418209838867187e-05, 1.015625) (-9.199053192138672e-05, 1.017578125) (-9.96734619140625e-05, 1.01953125) (-0.00010721792602539062, 1.021484375) (-0.00011461122131347656, 1.0234375) (-0.00012184010314941406, 1.025390625) (-0.00012889146423339842, 1.02734375) (-0.00013575260925292968, 1.029296875) (-0.00014241049194335938, 1.03125) (-0.00014885231018066405, 1.033203125) (-0.00015506640624999999, 1.03515625) (-0.0001610420684814453, 1.037109375) (-0.00016676959228515624, 1.0390625) (-0.00017224047851562498, 1.041015625) (-0.0001774469299316406, 1.04296875) (-0.00018238201904296873, 1.044921875) (-0.000187039794921875, 1.046875) (-0.00019141532897949218, 1.048828125) (-0.00019550456237792967, 1.05078125) (-0.00019930444335937498, 1.052734375) (-0.00020281271362304685, 1.0546875) (-0.0002060279541015625, 1.056640625) (-0.00020894970703125, 1.05859375) (-0.00021157855224609374, 1.060546875) (-0.00021391606140136718, 1.0625) (-0.00021596475219726562, 1.064453125) (-0.00021772802734375, 1.06640625) (-0.00021921014404296875, 1.068359375) (-0.00022041622924804687, 1.0703125) (-0.0002213522033691406, 1.072265625) (-0.0002220247039794922, 1.07421875) (-0.00022244094848632813, 1.076171875) (-0.0002226087951660156, 1.078125) (-0.00022253659057617185, 1.080078125) (-0.00022223326110839842, 1.08203125) (-0.00022170814514160155, 1.083984375) (-0.0002209709777832031, 1.0859375) (-0.00022003192138671875, 1.087890625) (-0.00021890155029296874, 1.08984375) (-0.0002175906982421875, 1.091796875) (-0.0002161104278564453, 1.09375) (-0.00021447189331054686, 1.095703125) (-0.00021268609619140623, 1.09765625) (-0.00021076394653320312, 1.099609375) (-0.0002087161865234375, 1.1015625) (-0.0002065531311035156, 1.103515625) (-0.00020428477478027344, 1.10546875) (-0.00020192068481445313, 1.107421875) (-0.0001994698791503906, 1.109375) (-0.00019694094848632813, 1.111328125) (-0.00019434199523925782, 1.11328125) (-0.00019168051147460936, 1.115234375) (-0.0001889635467529297, 1.1171875) (-0.00018619749450683593, 1.119140625) (-0.00018338821411132813, 1.12109375) (-0.00018054101562499998, 1.123046875) (-0.00017766069030761717, 1.125) (-0.00017475144958496093, 1.126953125) (-0.00017181704711914062, 1.12890625) (-0.00016886070251464843, 1.130859375) (-0.0001658851318359375, 1.1328125) (-0.00016289262390136719, 1.134765625) (-0.00015988511657714843, 1.13671875) (-0.00015686404418945312, 1.138671875) (-0.0001538303985595703, 1.140625) (-0.00015078475952148436, 1.142578125) (-0.00014772723388671875, 1.14453125) (-0.00014465774536132813, 1.146484375) (-0.00014157585144042968, 1.1484375) (-0.0001384808654785156, 1.150390625) (-0.000135371826171875, 1.15234375) (-0.00013224761962890623, 1.154296875) (-0.0001291071319580078, 1.15625) (-0.00012594938659667967, 1.158203125) (-0.00012277350616455077, 1.16015625) (-0.0001195784454345703, 1.162109375) (-0.00011636325073242187, 1.1640625) (-0.00011312704467773437, 1.166015625) (-0.0001098691177368164, 1.16796875) (-0.00010658892059326171, 1.169921875) (-0.00010328607177734374, 1.171875) (-9.996026611328124e-05, 1.173828125) (-9.661155700683593e-05, 1.17578125) (-9.32404327392578e-05, 1.177734375) (-8.984769439697266e-05, 1.1796875) (-8.643460083007812e-05, 1.181640625) (-8.300274658203125e-05, 1.18359375) (-7.955392456054687e-05, 1.185546875) (-7.609016418457032e-05, 1.1875) (-7.261363983154296e-05, 1.189453125) (-6.912653350830077e-05, 1.19140625) (-6.563123321533202e-05, 1.193359375) (-6.213011169433594e-05, 1.1953125) (-5.862538909912109e-05, 1.197265625) (-5.5119235992431636e-05, 1.19921875) (-5.161383819580078e-05, 1.201171875) (-4.8111488342285156e-05, 1.203125) (-4.461463928222656e-05, 1.205078125) (-4.1125782012939454e-05, 1.20703125) (-3.764709854125976e-05, 1.208984375) (-3.418050765991211e-05, 1.2109375) (-3.072793006896972e-05, 1.212890625) (-2.7291080474853513e-05, 1.21484375) (-2.3871082305908202e-05, 1.216796875) (-2.0468244552612303e-05, 1.21875) (-1.7081792831420898e-05, 1.220703125) (-1.3710153579711913e-05, 1.22265625) (-1.0351780891418456e-05, 1.224609375) (-7.005043983459472e-06, 1.2265625) (-3.667736530303955e-06, 1.228515625) (-3.374596536159515e-07, 1.23046875) (2.9882006645202636e-06, 1.232421875) (6.31157636642456e-06, 1.234375) (9.634378433227539e-06, 1.236328125) (1.295855712890625e-05, 1.23828125) (1.6287685394287107e-05, 1.240234375) (1.962656784057617e-05, 1.2421875) (2.2981121063232422e-05, 1.244140625) (2.635879898071289e-05, 1.24609375) (2.976753234863281e-05, 1.248046875) (3.321592330932617e-05, 1.25) (3.6713920593261716e-05, 1.251953125) (4.027108764648437e-05, 1.25390625) (4.389616775512695e-05, 1.255859375) (4.759777450561523e-05, 1.2578125) (5.1382240295410154e-05, 1.259765625) (5.525396347045898e-05, 1.26171875) (5.921920394897461e-05, 1.263671875) (6.328472900390624e-05, 1.265625) (6.745890045166015e-05, 1.267578125) (7.175334167480469e-05, 1.26953125) (7.617593383789062e-05, 1.271484375) (8.073159027099609e-05, 1.2734375) (8.542601776123047e-05, 1.275390625) (9.026147460937499e-05, 1.27734375) (9.523627471923828e-05, 1.279296875) (0.00010034530639648437, 1.28125) (0.00010557493591308594, 1.283203125) (0.00011090837860107421, 1.28515625) (0.00011633601379394531, 1.287109375) (0.00012185086059570312, 1.2890625) (0.00012745094299316406, 1.291015625) (0.00013314276123046874, 1.29296875) (0.00013892901611328124, 1.294921875) (0.00014481446838378906, 1.296875) (0.00015080715942382812, 1.298828125) (0.0001569056701660156, 1.30078125) (0.00016311106872558592, 1.302734375) (0.0001694287414550781, 1.3046875) (0.00017585739135742186, 1.306640625) (0.00018239886474609375, 1.30859375) (0.000189064453125, 1.310546875) (0.0001958668212890625, 1.3125) (0.00020283117675781248, 1.314453125) (0.000209991943359375, 1.31640625) (0.00021736373901367186, 1.318359375) (0.0002249524230957031, 1.3203125) (0.00023275607299804688, 1.322265625) (0.00024075274658203125, 1.32421875) (0.0002489224853515625, 1.326171875) (0.0002572378540039062, 1.328125) (0.00026565563964843747, 1.330078125) (0.00027414208984375, 1.33203125) (0.0002826644287109375, 1.333984375) (0.00029117953491210937, 1.3359375) (0.00029965142822265624, 1.337890625) (0.00030804110717773435, 1.33984375) (0.0003162896728515625, 1.341796875) (0.0003243426513671875, 1.34375) (0.00033213702392578126, 1.345703125) (0.00033959225463867185, 1.34765625) (0.0003466540222167969, 1.349609375) (0.0003532814025878906, 1.3515625) (0.00035944015502929684, 1.353515625) (0.00036512280273437496, 1.35546875) (0.00037032293701171873, 1.357421875) (0.00037503720092773435, 1.359375) (0.0003792837219238281, 1.361328125) (0.00038307879638671874, 1.36328125) (0.0003864325256347656, 1.365234375) (0.0003893746948242187, 1.3671875) (0.0003919365844726562, 1.369140625) (0.00039415097045898434, 1.37109375) (0.00039608270263671874, 1.373046875) (0.00039779284667968746, 1.375) (0.0003993430480957031, 1.376953125) (0.0004008215026855469, 1.37890625) (0.00040229769897460934, 1.380859375) (0.00040382421875, 1.3828125) (0.0004054485168457031, 1.384765625) (0.00040719458007812496, 1.38671875) (0.00040908160400390624, 1.388671875) (0.0004111405029296875, 1.390625) (0.00041339181518554687, 1.392578125) (0.0004158479309082031, 1.39453125) (0.00041853216552734373, 1.396484375) (0.00042144470214843747, 1.3984375) (0.0004245762939453125, 1.400390625) (0.00042792294311523436, 1.40234375) (0.0004314429321289062, 1.404296875) (0.0004350855102539062, 1.40625) (0.0004387994384765625, 1.408203125) (0.00044250201416015623, 1.41015625) (0.0004461125793457031, 1.412109375) (0.0004495736389160156, 1.4140625) (0.00045283514404296875, 1.416015625) (0.0004558616943359375, 1.41796875) (0.00045863009643554685, 1.419921875) (0.0004610965881347656, 1.421875) (0.00046321466064453126, 1.423828125) (0.00046495318603515624, 1.42578125) (0.00046627087402343747, 1.427734375) (0.00046714132690429684, 1.4296875) (0.00046754675292968745, 1.431640625) (0.00046745654296875, 1.43359375) (0.00046687094116210933, 1.435546875) (0.00046581555175781247, 1.4375) (0.0004643244018554687, 1.439453125) (0.00046246203613281247, 1.44140625) (0.000460304931640625, 1.443359375) (0.00045790502929687497, 1.4453125) (0.0004553053283691406, 1.447265625) (0.00045254428100585935, 1.44921875) (0.00044964404296875, 1.451171875) (0.0004466411743164062, 1.453125) (0.00044357867431640623, 1.455078125) (0.0004404823303222656, 1.45703125) (0.00043738403320312495, 1.458984375) (0.0004343149719238281, 1.4609375) (0.00043130584716796874, 1.462890625) (0.00042840255737304684, 1.46484375) (0.0004256366271972656, 1.466796875) (0.0004230130920410156, 1.46875) (0.0004205252075195312, 1.470703125) (0.00041814599609375, 1.47265625) (0.0004158346557617187, 1.474609375) (0.00041356768798828125, 1.4765625) (0.00041132812499999996, 1.478515625) (0.0004090967102050781, 1.48046875) (0.000406867431640625, 1.482421875) (0.0004046316223144531, 1.484375) (0.00040237841796875, 1.486328125) (0.0004001099853515625, 1.48828125) (0.00039782760620117185, 1.490234375) (0.00039552496337890623, 1.4921875) (0.00039319125366210937, 1.494140625) (0.00039080548095703124, 1.49609375) (0.0003883472290039062, 1.498046875) (0.00038580950927734374, 1.5) (0.00038319177246093746, 1.501953125) (0.0003804993896484375, 1.50390625) (0.00037774438476562497, 1.505859375) (0.00037493121337890624, 1.5078125) (0.00037206115722656247, 1.509765625) (0.00036913806152343747, 1.51171875) (0.0003661589660644531, 1.513671875) (0.0003631170043945312, 1.515625) (0.0003600032958984375, 1.517578125) (0.00035680169677734374, 1.51953125) (0.0003534937133789062, 1.521484375) (0.0003500653991699219, 1.5234375) (0.0003465047912597656, 1.525390625) (0.00034280218505859374, 1.52734375) (0.0003389498596191406, 1.529296875) (0.000334936767578125, 1.53125) (0.00033075054931640626, 1.533203125) (0.000326379150390625, 1.53515625) (0.0003218091430664062, 1.537109375) (0.0003170279541015625, 1.5390625) (0.00031202374267578126, 1.541015625) (0.00030678369140625, 1.54296875) (0.0003012967834472656, 1.544921875) (0.00029555465698242187, 1.546875) (0.00028955062866210937, 1.548828125) (0.00028328030395507813, 1.55078125) (0.00027674188232421873, 1.552734375) (0.00026993365478515625, 1.5546875) (0.0002628547973632812, 1.556640625) (0.00025550631713867184, 1.55859375) (0.0002478898468017578, 1.560546875) (0.00024000808715820312, 1.5625) (0.00023186544799804685, 1.564453125) (0.00022346749877929687, 1.56640625) (0.00021482057189941406, 1.568359375) (0.00020593255615234375, 1.5703125) (0.00019681214904785155, 1.572265625) (0.00018746908569335937, 1.57421875) (0.00017791448974609374, 1.576171875) (0.00016816049194335936, 1.578125) (0.00015821961975097656, 1.580078125) (0.0001481044921875, 1.58203125) (0.00013782829284667968, 1.583984375) (0.00012740519714355469, 1.5859375) (0.00011685140991210937, 1.587890625) (0.00010618440246582031, 1.58984375) (9.542176818847655e-05, 1.591796875) (8.458061218261719e-05, 1.59375) (7.36773452758789e-05, 1.595703125) (6.272895050048828e-05, 1.59765625) (5.175347518920898e-05, 1.599609375) (4.076988220214843e-05, 1.6015625) (2.9795101165771485e-05, 1.603515625) (1.8842956542968748e-05, 1.60546875) (7.927184581756591e-06, 1.607421875) (-2.9381475448608396e-06, 1.609375) (-1.373529052734375e-05, 1.611328125) (-2.444302749633789e-05, 1.61328125) (-3.5043846130371094e-05, 1.615234375) (-4.552552795410156e-05, 1.6171875) (-5.5878913879394526e-05, 1.619140625) (-6.609645843505859e-05, 1.62109375) (-7.61707534790039e-05, 1.623046875) (-8.609283447265625e-05, 1.625) (-9.585989379882813e-05, 1.626953125) (-0.00010547783660888672, 1.62890625) (-0.00011495288848876953, 1.630859375) (-0.00012429037475585937, 1.6328125) (-0.00013348455810546875, 1.634765625) (-0.00014251632690429687, 1.63671875) (-0.00015136720275878905, 1.638671875) (-0.00016002281188964843, 1.640625) (-0.00016847549438476562, 1.642578125) (-0.00017672167968749999, 1.64453125) (-0.00018474575805664062, 1.646484375) (-0.00019251727294921874, 1.6484375) (-0.0002000078125, 1.650390625) (-0.00020719279479980467, 1.65234375) (-0.00021404626464843749, 1.654296875) (-0.00022054101562499998, 1.65625) (-0.00022662371826171875, 1.658203125) (-0.00023221588134765623, 1.66015625) (-0.00023724476623535154, 1.662109375) (-0.00024164378356933593, 1.6640625) (-0.00024536706542968746, 1.666015625) (-0.00024839967346191406, 1.66796875) (-0.0002507287139892578, 1.669921875) (-0.00025234432983398434, 1.671875) (-0.00025325189208984375, 1.673828125) (-0.0002534529418945312, 1.67578125) (-0.00025296243286132813, 1.677734375) (-0.0002518225860595703, 1.6796875) (-0.0002500625610351562, 1.681640625) (-0.00024772171020507813, 1.68359375) (-0.00024488629150390623, 1.685546875) (-0.00024162750244140625, 1.6875) (-0.00023802854919433591, 1.689453125) (-0.00023427879333496094, 1.69140625) (-0.0002306026916503906, 1.693359375) (-0.00022730197143554687, 1.6953125) (-0.00022477868652343749, 1.697265625) (-0.00022326800537109375, 1.69921875) (-0.00022281408691406248, 1.701171875) (-0.000223488037109375, 1.703125) (-0.00022535340881347656, 1.705078125) (-0.00022832862854003905, 1.70703125) (-0.0002322743682861328, 1.708984375) (-0.0002366645050048828, 1.7109375) (-0.00024050830078124999, 1.712890625) (-0.00024316818237304685, 1.71484375) (-0.00024438391113281246, 1.716796875) (-0.00024394818115234374, 1.71875) (-0.0002418523254394531, 1.720703125) (-0.00023815234375, 1.72265625) (-0.00023281170654296875, 1.724609375) (-0.0002265396728515625, 1.7265625) (-0.00022102142333984374, 1.728515625) (-0.00021754183959960937, 1.73046875) (-0.00021702989196777342, 1.732421875) (-0.000220212646484375, 1.734375) (-0.00022695986938476561, 1.736328125) (-0.0002369526672363281, 1.73828125) (-0.00025019284057617187, 1.740234375) (-0.0002656471557617187, 1.7421875) (-0.00028059347534179684, 1.744140625) (-0.00029242233276367184, 1.74609375) (-0.0002975515747070312, 1.748046875) (-0.00029124777221679687, 1.75) (-0.0002715267333984375, 1.751953125) (-0.00023737445068359374, 1.75390625) (-0.00018834466552734375, 1.755859375) (-0.00012822148132324217, 1.7578125) (-5.925350189208984e-05, 1.759765625) (1.9399782180786132e-05, 1.76171875) (0.00010734977722167968, 1.763671875) (0.00020761564636230469, 1.765625) (0.0003217734680175781, 1.767578125) (0.0004449380187988281, 1.76953125) (0.0005701309204101563, 1.771484375) (0.000683795654296875, 1.7734375) (0.0007687540283203124, 1.775390625) (0.0008090438232421875, 1.77734375) (0.0007913516235351563, 1.779296875) (0.0007124729614257812, 1.78125) (0.0005786859130859375, 1.783203125) (0.0004059765014648437, 1.78515625) (0.0002165829620361328, 1.787109375) (3.10041446685791e-05, 1.7890625) (-0.00013291929626464843, 1.791015625) (-0.00026443096923828123, 1.79296875) (-0.000359502685546875, 1.794921875) (-0.00041862762451171873, 1.796875) (-0.0004460511474609375, 1.798828125) (-0.00044702496337890624, 1.80078125) (-0.0004291867980957031, 1.802734375) (-0.0004006209106445312, 1.8046875) (-0.000370525146484375, 1.806640625) (-0.00034752624511718747, 1.80859375) (-0.0003344346923828125, 1.810546875) (-0.00032941384887695313, 1.8125) (-0.00032540582275390626, 1.814453125) (-0.000315205810546875, 1.81640625) (-0.00029656402587890625, 1.818359375) (-0.0002714162902832031, 1.8203125) (-0.00024568572998046875, 1.822265625) (-0.00022379357910156248, 1.82421875) (-0.00020650906372070312, 1.826171875) (-0.0001928072509765625, 1.828125) (-0.00018041004943847655, 1.830078125) (-0.00016837060546875, 1.83203125) (-0.00015726048278808593, 1.833984375) (-0.00014760479736328124, 1.8359375) (-0.00013964392089843748, 1.837890625) (-0.00013321783447265624, 1.83984375) (-0.00012794480895996093, 1.841796875) (-0.00012347303009033203, 1.84375) (-0.00011939651489257813, 1.845703125) (-0.00011532096862792968, 1.84765625) (-0.00011091654968261718, 1.849609375) (-0.00010597079467773437, 1.8515625) (-0.00010057326507568359, 1.853515625) (-9.495599365234374e-05, 1.85546875) (-8.932737731933594e-05, 1.857421875) (-8.401929473876953e-05, 1.859375) (-7.940110778808593e-05, 1.861328125) (-7.5630615234375e-05, 1.86328125) (-7.274467468261718e-05, 1.865234375) (-7.068959808349609e-05, 1.8671875) (-6.928356933593749e-05, 1.869140625) (-6.834570312499999e-05, 1.87109375) (-6.769622802734375e-05, 1.873046875) (-6.705951690673827e-05, 1.875) (-6.61343994140625e-05, 1.876953125) (-6.474628448486327e-05, 1.87890625) (-6.280827331542968e-05, 1.880859375) (-6.0297264099121094e-05, 1.8828125) (-5.723572540283203e-05, 1.884765625) (-5.3608154296875e-05, 1.88671875) (-4.940716552734375e-05, 1.888671875) (-4.467623138427734e-05, 1.890625) (-3.9493865966796876e-05, 1.892578125) (-3.394187545776367e-05, 1.89453125) (-2.8082149505615234e-05, 1.896484375) (-2.1953609466552734e-05, 1.8984375) (-1.5575005531311035e-05, 1.900390625) (-8.977624893188476e-06, 1.90234375) (-2.2094602584838864e-06, 1.904296875) (4.681804180145264e-06, 1.90625) (1.1660025596618651e-05, 1.908203125) (1.8706403732299803e-05, 1.91015625) (2.580359649658203e-05, 1.912109375) (3.2930755615234375e-05, 1.9140625) (4.0050094604492186e-05, 1.916015625) (4.7111389160156245e-05, 1.91796875) (5.408781051635742e-05, 1.919921875) (6.0970241546630856e-05, 1.921875) (6.775828552246094e-05, 1.923828125) (7.446183013916015e-05, 1.92578125) (8.10871353149414e-05, 1.927734375) (8.763729095458984e-05, 1.9296875) (9.412355041503906e-05, 1.931640625) (0.00010056452941894531, 1.93359375) (0.00010697662353515625, 1.935546875) (0.00011337513732910156, 1.9375) (0.00011977032470703124, 1.939453125) (0.00012616477966308594, 1.94140625) (0.00013256663513183594, 1.943359375) (0.00013898838806152342, 1.9453125) (0.0001454468994140625, 1.947265625) (0.0001519644775390625, 1.94921875) (0.00015855413818359373, 1.951171875) (0.000165220458984375, 1.953125) (0.00017196636962890625, 1.955078125) (0.00017879130554199218, 1.95703125) (0.00018569305419921875, 1.958984375) (0.0001926692199707031, 1.9609375) (0.00019971168518066406, 1.962890625) (0.0002068070831298828, 1.96484375) (0.00021394569396972655, 1.966796875) (0.00022111956787109374, 1.96875) (0.0002283203430175781, 1.970703125) (0.00023554110717773435, 1.97265625) (0.00024277124023437498, 1.974609375) (0.00024999621582031246, 1.9765625) (0.00025720123291015626, 1.978515625) (0.00026437030029296876, 1.98046875) (0.0002714871215820312, 1.982421875) (0.000278537109375, 1.984375) (0.0002855058898925781, 1.986328125) (0.000292379150390625, 1.98828125) (0.0002991459350585937, 1.990234375) (0.00030579791259765626, 1.9921875) (0.0003123259887695312, 1.994140625) (0.0003187217712402344, 1.99609375) (0.0003249734497070312, 1.998046875) (0.0003310650939941406, 2.0) (0.00033698529052734376, 2.001953125) (0.00034272537231445313, 2.00390625) (0.0003482764892578125, 2.005859375) (0.0003536339416503906, 2.0078125) (0.00035879611206054686, 2.009765625) (0.0003637647094726562, 2.01171875) (0.00036855197143554686, 2.013671875) (0.0003731742553710937, 2.015625) (0.00037764068603515625, 2.017578125) (0.0003819574890136719, 2.01953125) (0.00038612499999999997, 2.021484375) (0.000390134521484375, 2.0234375) (0.0003939822082519531, 2.025390625) (0.0003976639404296875, 2.02734375) (0.00040117254638671873, 2.029296875) (0.00040450909423828124, 2.03125) (0.00040767037963867185, 2.033203125) (0.0004106505126953125, 2.03515625) (0.00041345281982421874, 2.037109375) (0.00041607861328124996, 2.0390625) (0.00041852084350585937, 2.041015625) (0.00042076422119140624, 2.04296875) (0.000422773681640625, 2.044921875) (0.0004245049133300781, 2.046875) (0.00042593548583984373, 2.048828125) (0.00042705383300781246, 2.05078125) (0.00042785583496093746, 2.052734375) (0.00042835491943359375, 2.0546875) (0.00042855810546875, 2.056640625) (0.00042848287963867185, 2.05859375) (0.00042817132568359373, 2.060546875) (0.00042766162109374997, 2.0625) (0.00042699377441406247, 2.064453125) (0.00042620745849609375, 2.06640625) (0.00042532678222656245, 2.068359375) (0.00042437631225585937, 2.0703125) (0.00042339855957031246, 2.072265625) (0.0004224508056640625, 2.07421875) (0.00042160858154296875, 2.076171875) (0.0004209564819335937, 2.078125) (0.00042054736328125, 2.080078125) (0.0004204190979003906, 2.08203125) (0.000420609130859375, 2.083984375) (0.0004211391296386719, 2.0859375) (0.0004220374755859375, 2.087890625) (0.0004233086242675781, 2.08984375) (0.00042490841674804687, 2.091796875) (0.00042678424072265626, 2.09375) (0.0004288830871582031, 2.095703125) (0.00043115393066406245, 2.09765625) (0.00043355541992187496, 2.099609375) (0.00043604049682617184, 2.1015625) (0.00043853179931640623, 2.103515625) (0.00044093164062499997, 2.10546875) (0.000443140869140625, 2.107421875) (0.00044505987548828125, 2.109375) (0.00044661788940429686, 2.111328125) (0.0004477552795410156, 2.11328125) (0.0004484020080566406, 2.115234375) (0.0004484915161132812, 2.1171875) (0.00044795236206054685, 2.119140625) (0.00044674261474609374, 2.12109375) (0.0004448697204589844, 2.123046875) (0.00044235693359375, 2.125) (0.0004392278137207031, 2.126953125) (0.0004355043029785156, 2.12890625) (0.000431212646484375, 2.130859375) (0.0004263942260742187, 2.1328125) (0.0004211260070800781, 2.134765625) (0.0004155052490234375, 2.13671875) (0.0004096141662597656, 2.138671875) (0.0004035260009765625, 2.140625) (0.00039729721069335937, 2.142578125) (0.00039097885131835934, 2.14453125) (0.0003846369018554687, 2.146484375) (0.00037834332275390624, 2.1484375) (0.0003721700744628906, 2.150390625) (0.00036616717529296876, 2.15234375) (0.0003603586730957031, 2.154296875) (0.00035475875854492186, 2.15625) (0.00034938388061523436, 2.158203125) (0.00034425457763671873, 2.16015625) (0.0003393812255859375, 2.162109375) (0.00033475964355468747, 2.1640625) (0.00033036181640625, 2.166015625) (0.00032614697265625, 2.16796875) (0.00032209295654296875, 2.169921875) (0.0003181900634765625, 2.171875) (0.0003144353332519531, 2.173828125) (0.00031082846069335936, 2.17578125) (0.00030735986328125, 2.177734375) (0.0003040129089355469, 2.1796875) (0.0003007764892578125, 2.181640625) (0.0002976522216796875, 2.18359375) (0.0002946471252441406, 2.185546875) (0.0002917734375, 2.1875) (0.0002890389404296875, 2.189453125) (0.00028644140624999997, 2.19140625) (0.000283985107421875, 2.193359375) (0.0002816788940429687, 2.1953125) (0.0002795346984863281, 2.197265625) (0.00027757080078125, 2.19921875) (0.00027579257202148434, 2.201171875) (0.0002741903076171875, 2.203125) (0.0002727557373046875, 2.205078125) (0.00027148275756835936, 2.20703125) (0.0002703696899414062, 2.208984375) (0.0002694269409179687, 2.2109375) (0.000268660888671875, 2.212890625) (0.00026806396484375, 2.21484375) (0.00026762591552734373, 2.216796875) (0.0002673281555175781, 2.21875) (0.00026715328979492185, 2.220703125) (0.00026710018920898435, 2.22265625) (0.00026716455078125, 2.224609375) (0.00026733868408203125, 2.2265625) (0.00026762350463867187, 2.228515625) (0.00026801135253906247, 2.23046875) (0.00026850140380859375, 2.232421875) (0.000269116943359375, 2.234375) (0.0002698697509765625, 2.236328125) (0.00027075488281249997, 2.23828125) (0.0002717612609863281, 2.240234375) (0.0002728486633300781, 2.2421875) (0.00027396826171875, 2.244140625) (0.0002750959777832031, 2.24609375) (0.00027620901489257814, 2.248046875) (0.00027728552246093747, 2.25) (0.00027830502319335936, 2.251953125) (0.000279220703125, 2.25390625) (0.00027998361206054686, 2.255859375) (0.00028056121826171873, 2.2578125) (0.00028091461181640624, 2.259765625) (0.0002810135498046875, 2.26171875) (0.0002808232727050781, 2.263671875) (0.00028027316284179684, 2.265625) (0.00027930657958984373, 2.267578125) (0.0002778980407714844, 2.26953125) (0.00027602838134765625, 2.271484375) (0.0002737154541015625, 2.2734375) (0.00027099450683593746, 2.275390625) (0.0002678644714355469, 2.27734375) (0.0002643309326171875, 2.279296875) (0.00026042132568359375, 2.28125) (0.0002561651000976562, 2.283203125) (0.00025162744140624997, 2.28515625) (0.0002468858947753906, 2.287109375) (0.00024198602294921875, 2.2890625) (0.00023697113037109374, 2.291015625) (0.00023188426208496093, 2.29296875) (0.00022676937866210936, 2.294921875) (0.00022170559692382812, 2.296875) (0.00021676577758789062, 2.298828125) (0.000211988525390625, 2.30078125) (0.00020741110229492187, 2.302734375) (0.0002030491943359375, 2.3046875) (0.00019890744018554688, 2.306640625) (0.0001950292510986328, 2.30859375) (0.00019144732666015625, 2.310546875) (0.00018815658569335938, 2.3125) (0.00018514450073242188, 2.314453125) (0.0001823656005859375, 2.31640625) (0.0001797549133300781, 2.318359375) (0.00017728292846679687, 2.3203125) (0.00017492919921875, 2.322265625) (0.00017266500854492186, 2.32421875) (0.00017046798706054687, 2.326171875) (0.00016829795837402343, 2.328125) (0.00016611441040039062, 2.330078125) (0.00016390481567382813, 2.33203125) (0.00016165675354003905, 2.333984375) (0.00015935726928710937, 2.3359375) (0.00015699314880371094, 2.337890625) (0.00015452413940429688, 2.33984375) (0.00015191622924804686, 2.341796875) (0.00014916793823242187, 2.34375) (0.0001462869873046875, 2.345703125) (0.00014330056762695313, 2.34765625) (0.00014025241088867188, 2.349609375) (0.00013716302490234374, 2.3515625) (0.00013404486083984374, 2.353515625) (0.00013091961669921875, 2.35546875) (0.00012779989624023437, 2.357421875) (0.00012469902038574217, 2.359375) (0.0001216308135986328, 2.361328125) (0.00011859147644042969, 2.36328125) (0.00011557458496093749, 2.365234375) (0.00011258292388916015, 2.3671875) (0.00010962397003173827, 2.369140625) (0.0001067161407470703, 2.37109375) (0.00010387789154052734, 2.373046875) (0.00010111212158203124, 2.375) (9.841563415527343e-05, 2.376953125) (9.577940368652344e-05, 2.37890625) (9.318675231933594e-05, 2.380859375) (9.062879943847656e-05, 2.3828125) (8.809983825683593e-05, 2.384765625) (8.55889892578125e-05, 2.38671875) (8.309062194824218e-05, 2.388671875) (8.0603515625e-05, 2.390625) (7.812747955322266e-05, 2.392578125) (7.567013549804688e-05, 2.39453125) (7.324237823486327e-05, 2.396484375) (7.084945678710937e-05, 2.3984375) (6.849402618408203e-05, 2.400390625) (6.617716217041016e-05, 2.40234375) (6.389810180664062e-05, 2.404296875) (6.16593132019043e-05, 2.40625) (5.946531295776367e-05, 2.408203125) (5.732024002075195e-05, 2.41015625) (5.522946166992187e-05, 2.412109375) (5.319811630249023e-05, 2.4140625) (5.123114776611328e-05, 2.416015625) (4.933484649658203e-05, 2.41796875) (4.751446533203125e-05, 2.419921875) (4.577312088012695e-05, 2.421875) (4.4112792968749996e-05, 2.423828125) (4.253348922729492e-05, 2.42578125) (4.1033599853515626e-05, 2.427734375) (3.9612228393554685e-05, 2.4296875) (3.826847076416016e-05, 2.431640625) (3.700065994262695e-05, 2.43359375) (3.580746459960937e-05, 2.435546875) (3.4687309265136715e-05, 2.4375) (3.363800811767578e-05, 2.439453125) (3.265761566162109e-05, 2.44140625) (3.174397087097168e-05, 2.443359375) (3.0893905639648436e-05, 2.4453125) (3.0103565216064453e-05, 2.447265625) (2.9368595123291014e-05, 2.44921875) (2.8683923721313476e-05, 2.451171875) (2.8044155120849608e-05, 2.453125) (2.744375228881836e-05, 2.455078125) (2.6876815795898437e-05, 2.45703125) (2.633722686767578e-05, 2.458984375) (2.5818885803222655e-05, 2.4609375) (2.5315649032592773e-05, 2.462890625) (2.4821271896362303e-05, 2.46484375) (2.4329496383666993e-05, 2.466796875) (2.3834068298339843e-05, 2.46875) (2.3328731536865234e-05, 2.470703125) (2.2807418823242188e-05, 2.47265625) (2.226421356201172e-05, 2.474609375) (2.1693283081054688e-05, 2.4765625) (2.1088912963867187e-05, 2.478515625) (2.0445522308349608e-05, 2.48046875) (1.9757797241210935e-05, 2.482421875) (1.9020751953124998e-05, 2.484375) (1.8229671478271482e-05, 2.486328125) (1.738009262084961e-05, 2.48828125) (1.6467876434326172e-05, 2.490234375) (1.548918914794922e-05, 2.4921875) (1.4440606117248535e-05, 2.494140625) (1.3319232940673827e-05, 2.49609375) (1.212253189086914e-05, 2.498046875) (1.0848270416259765e-05, 2.5) (9.49458122253418e-06, 2.501953125) (8.05988883972168e-06, 2.50390625) (6.5429725646972655e-06, 2.505859375) (4.943099975585937e-06, 2.5078125) (3.2599649429321286e-06, 2.509765625) (1.4936530590057372e-06, 2.51171875) (-3.553223609924316e-07, 2.513671875) (-2.286052703857422e-06, 2.515625) (-4.29720401763916e-06, 2.517578125) (-6.386939525604248e-06, 2.51953125) (-8.553043365478515e-06, 2.521484375) (-1.0793027877807616e-05, 2.5234375) (-1.3104208946228026e-05, 2.525390625) (-1.5483779907226563e-05, 2.52734375) (-1.792871856689453e-05, 2.529296875) (-2.0435775756835936e-05, 2.53125) (-2.3001586914062498e-05, 2.533203125) (-2.5622692108154296e-05, 2.53515625) (-2.829549980163574e-05, 2.537109375) (-3.1016206741333006e-05, 2.5390625) (-3.378066253662109e-05, 2.541015625) (-3.658435821533203e-05, 2.54296875) (-3.9422637939453124e-05, 2.544921875) (-4.229066848754883e-05, 2.546875) (-4.51834602355957e-05, 2.548828125) (-4.809585571289062e-05, 2.55078125) (-5.102245330810547e-05, 2.552734375) (-5.395777130126953e-05, 2.5546875) (-5.6896331787109375e-05, 2.556640625) (-5.983258056640625e-05, 2.55859375) (-6.276087188720703e-05, 2.560546875) (-6.5675537109375e-05, 2.5625) (-6.857078552246094e-05, 2.564453125) (-7.14406967163086e-05, 2.56640625) (-7.427938842773437e-05, 2.568359375) (-7.7080810546875e-05, 2.5703125) (-7.983889770507812e-05, 2.572265625) (-8.254771423339844e-05, 2.57421875) (-8.520130920410156e-05, 2.576171875) (-8.779375457763672e-05, 2.578125) (-9.031934356689453e-05, 2.580078125) (-9.27726058959961e-05, 2.58203125) (-9.514826965332031e-05, 2.583984375) (-9.744123077392577e-05, 2.5859375) (-9.964649963378905e-05, 2.587890625) (-0.0001017589874267578, 2.58984375) (-0.00010377383422851562, 2.591796875) (-0.00010568653869628906, 2.59375) (-0.00010749270629882812, 2.595703125) (-0.00010918800354003906, 2.59765625) (-0.0001107685546875, 2.599609375) (-0.00011223109436035155, 2.6015625) (-0.00011357326507568359, 2.603515625) (-0.00011479373168945312, 2.60546875) (-0.00011589141082763671, 2.607421875) (-0.00011686538696289062, 2.609375) (-0.00011771534729003906, 2.611328125) (-0.00011844158172607421, 2.61328125) (-0.0001190447769165039, 2.615234375) (-0.00011952577209472655, 2.6171875) (-0.00011988504028320312, 2.619140625) (-0.00012012289428710937, 2.62109375) (-0.00012024070739746094, 2.623046875) (-0.0001202406005859375, 2.625) (-0.0001201256103515625, 2.626953125) (-0.00011989991760253906, 2.62890625) (-0.00011956793212890625, 2.630859375) (-0.00011913502502441406, 2.6328125) (-0.000118608154296875, 2.634765625) (-0.00011799481201171874, 2.63671875) (-0.00011730278778076171, 2.638671875) (-0.00011654114532470703, 2.640625) (-0.00011571796417236328, 2.642578125) (-0.00011483988189697265, 2.64453125) (-0.00011391543579101562, 2.646484375) (-0.00011295298767089843, 2.6484375) (-0.00011196180725097656, 2.650390625) (-0.00011095441436767577, 2.65234375) (-0.00010994011688232421, 2.654296875) (-0.0001089241485595703, 2.65625) (-0.00010791102600097656, 2.658203125) (-0.00010690301513671874, 2.66015625) (-0.00010589916992187499, 2.662109375) (-0.00010489734649658203, 2.6640625) (-0.00010388922119140625, 2.666015625) (-0.0001028599395751953, 2.66796875) (-0.00010179766082763671, 2.669921875) (-0.00010069000244140625, 2.671875) (-9.952723693847655e-05, 2.673828125) (-9.83050308227539e-05, 2.67578125) (-9.701416015625e-05, 2.677734375) (-9.564762115478515e-05, 2.6796875) (-9.420174407958984e-05, 2.681640625) (-9.266926574707031e-05, 2.68359375) (-9.105023956298828e-05, 2.685546875) (-8.935719299316406e-05, 2.6875) (-8.760455322265624e-05, 2.689453125) (-8.581156921386718e-05, 2.69140625) (-8.400959777832031e-05, 2.693359375) (-8.22261962890625e-05, 2.6953125) (-8.049551391601563e-05, 2.697265625) (-7.886688232421875e-05, 2.69921875) (-7.73779067993164e-05, 2.701171875) (-7.606142425537108e-05, 2.703125) (-7.494518280029296e-05, 2.705078125) (-7.404257202148437e-05, 2.70703125) (-7.336830139160156e-05, 2.708984375) (-7.293115234375e-05, 2.7109375) (-7.272642517089843e-05, 2.712890625) (-7.274307250976563e-05, 2.71484375) (-7.295578002929687e-05, 2.716796875) (-7.331263732910155e-05, 2.71875) (-7.375119018554687e-05, 2.720703125) (-7.419589233398438e-05, 2.72265625) (-7.454344177246093e-05, 2.724609375) (-7.469976806640625e-05, 2.7265625) (-7.456905364990233e-05, 2.728515625) (-7.403240203857421e-05, 2.73046875) (-7.298744201660155e-05, 2.732421875) (-7.133877563476562e-05, 2.734375) (-6.899281311035156e-05, 2.736328125) (-6.587916564941406e-05, 2.73828125) (-6.193708038330078e-05, 2.740234375) (-5.7111396789550777e-05, 2.7421875) (-5.136663818359375e-05, 2.744140625) (-4.468792724609375e-05, 2.74609375) (-3.707967758178711e-05, 2.748046875) (-2.8584835052490232e-05, 2.75) (-1.9271615982055662e-05, 2.751953125) (-9.231903076171874e-06, 2.75390625) (1.401799440383911e-06, 2.755859375) (1.250359058380127e-05, 2.7578125) (2.3949378967285156e-05, 2.759765625) (3.5587646484374995e-05, 2.76171875) (4.727537536621094e-05, 2.763671875) (5.8868705749511714e-05, 2.765625) (7.021389770507812e-05, 2.767578125) (8.1181396484375e-05, 2.76953125) (9.166046142578125e-05, 2.771484375) (0.00010153861999511718, 2.7734375) (0.00011071621704101561, 2.775390625) (0.0001191156768798828, 2.77734375) (0.00012667323303222657, 2.779296875) (0.00013336102294921875, 2.78125) (0.00013918289184570312, 2.783203125) (0.00014416583251953123, 2.78515625) (0.00014837274169921875, 2.787109375) (0.0001518653564453125, 2.7890625) (0.00015470135498046875, 2.791015625) (0.00015696206665039063, 2.79296875) (0.00015873101806640624, 2.794921875) (0.00016009976196289062, 2.796875) (0.00016117716979980467, 2.798828125) (0.00016205296325683593, 2.80078125) (0.0001627976837158203, 2.802734375) (0.00016349169921875, 2.8046875) (0.00016421754455566405, 2.806640625) (0.00016504913330078123, 2.80859375) (0.00016605992126464842, 2.810546875) (0.000167307373046875, 2.8125) (0.00016883030700683594, 2.814453125) (0.00017065695190429686, 2.81640625) (0.00017279832458496093, 2.818359375) (0.00017525924682617187, 2.8203125) (0.00017803781127929686, 2.822265625) (0.00018112472534179686, 2.82421875) (0.00018452075195312499, 2.826171875) (0.00018822392272949218, 2.828125) (0.0001922299346923828, 2.830078125) (0.00019654338073730467, 2.83203125) (0.00020113861083984375, 2.833984375) (0.0002059840393066406, 2.8359375) (0.00021106991577148437, 2.837890625) (0.00021632263183593749, 2.83984375) (0.00022161016845703124, 2.841796875) (0.00022675257873535154, 2.84375) (0.0002314385070800781, 2.845703125) (0.0002353685607910156, 2.84765625) (0.00023844808959960935, 2.849609375) (0.00024062646484375, 2.8515625) (0.00024186190795898437, 2.853515625) (0.00024231875610351562, 2.85546875) (0.00024218872070312498, 2.857421875) (0.0002417648468017578, 2.859375) (0.0002417785949707031, 2.861328125) (0.00024298025512695313, 2.86328125) (0.00024570501708984373, 2.865234375) (0.00025015295410156247, 2.8671875) (0.00025632415771484373, 2.869140625) (0.00026382110595703126, 2.87109375) (0.00027237094116210937, 2.873046875) (0.000281649169921875, 2.875) (0.0002905725708007812, 2.876953125) (0.0002977894287109375, 2.87890625) (0.00030238189697265626, 2.880859375) (0.0003036769104003906, 2.8828125) (0.0003013629150390625, 2.884765625) (0.00029568865966796875, 2.88671875) (0.0002867458801269531, 2.888671875) (0.00027439556884765624, 2.890625) (0.00026025888061523435, 2.892578125) (0.00024809350585937496, 2.89453125) (0.0002413756408691406, 2.896484375) (0.00024334197998046874, 2.8984375) (0.00025497547912597653, 2.900390625) (0.0002725946044921875, 2.90234375) (0.0002936439208984375, 2.904296875) (0.0003197169189453125, 2.90625) (0.0003551270751953125, 2.908203125) (0.00040904367065429685, 2.91015625) (0.0004905029907226562, 2.912109375) (0.0006001273803710938, 2.9140625) (0.0007337775268554687, 2.916015625) (0.0008829930419921875, 2.91796875) (0.0010339152832031248, 2.919921875) (0.0011750145263671875, 2.921875) (0.0012938315429687499, 2.923828125) (0.0013752324218749999, 2.92578125) (0.0014071384277343749, 2.927734375) (0.00138071240234375, 2.9296875) (0.0012948961181640625, 2.931640625) (0.00115768310546875, 2.93359375) (0.0009850085449218749, 2.935546875) (0.0007977611694335937, 2.9375) (0.0006154507446289062, 2.939453125) (0.00045670672607421873, 2.94140625) (0.0003327219848632812, 2.943359375) (0.00024421246337890626, 2.9453125) (0.00018701098632812498, 2.947265625) (0.00015014378356933592, 2.94921875) (0.00012298275756835936, 2.951171875) (0.00010242065429687499, 2.953125) (8.835647583007812e-05, 2.955078125) (8.414078521728516e-05, 2.95703125) (9.33585968017578e-05, 2.958984375) (0.00011396009826660156, 2.9609375) (0.00014183457946777343, 2.962890625) (0.0001726431121826172, 2.96484375) (0.00020188848876953125, 2.966796875) (0.00022800003051757811, 2.96875) (0.0002509405517578125, 2.970703125) (0.0002701140441894531, 2.97265625) (0.00028558056640625, 2.974609375) (0.0002976126708984375, 2.9765625) (0.00030616458129882813, 2.978515625) (0.0003118193359375, 2.98046875) (0.0003153895263671875, 2.982421875) (0.000317048095703125, 2.984375) (0.00031700708007812497, 2.986328125) (0.0003159434814453125, 2.98828125) (0.00031432077026367184, 2.990234375) (0.0003126783447265625, 2.9921875) (0.0003117503967285156, 2.994140625) (0.000311640380859375, 2.99609375) (0.0003121400146484375, 2.998046875) (0.0003132608642578125, 3.0) (0.00031484802246093747, 3.001953125) (0.00031654278564453126, 3.00390625) (0.00031811114501953126, 3.005859375) (0.00031911944580078125, 3.0078125) (0.0003189642333984375, 3.009765625) (0.0003174952392578125, 3.01171875) (0.00031482202148437496, 3.013671875) (0.00031107766723632814, 3.015625) (0.00030657476806640626, 3.017578125) (0.00030162786865234374, 3.01953125) (0.00029643170166015624, 3.021484375) (0.0002912967224121094, 3.0234375) (0.00028661206054687497, 3.025390625) (0.0002825665588378906, 3.02734375) (0.00027924041748046875, 3.029296875) (0.00027664190673828124, 3.03125) (0.00027465277099609375, 3.033203125) (0.0002731846313476562, 3.03515625) (0.00027218768310546874, 3.037109375) (0.0002715575256347656, 3.0390625) (0.0002711709594726562, 3.041015625) (0.0002709234619140625, 3.04296875) (0.0002706944580078125, 3.044921875) (0.0002703794250488281, 3.046875) (0.00026989666748046873, 3.048828125) (0.0002691383056640625, 3.05078125) (0.00026801562499999997, 3.052734375) (0.0002664644775390625, 3.0546875) (0.0002644178161621094, 3.056640625) (0.0002618377685546875, 3.05859375) (0.000258712158203125, 3.060546875) (0.0002550386047363281, 3.0625) (0.00025084259033203123, 3.064453125) (0.0002461696472167969, 3.06640625) (0.00024105368041992187, 3.068359375) (0.0002355281524658203, 3.0703125) (0.00022962823486328125, 3.072265625) (0.00022337802124023436, 3.07421875) (0.00021681246948242186, 3.076171875) (0.00020997271728515624, 3.078125) (0.00020289558410644531, 3.080078125) (0.00019562413024902344, 3.08203125) (0.00018819503784179686, 3.083984375) (0.00018063371276855469, 3.0859375) (0.00017297192382812498, 3.087890625) (0.000165241455078125, 3.08984375) (0.0001574561309814453, 3.091796875) (0.00014962188720703124, 3.09375) (0.0001417254180908203, 3.095703125) (0.0001337306671142578, 3.09765625) (0.00012562553405761717, 3.099609375) (0.0001174201431274414, 3.1015625) (0.00010913249206542969, 3.103515625) (0.00010079954528808593, 3.10546875) (9.246342468261718e-05, 3.107421875) (8.416534423828125e-05, 3.109375) (7.596356964111328e-05, 3.111328125) (6.792855834960938e-05, 3.11328125) (6.012146759033203e-05, 3.115234375) (5.2601074218749995e-05, 3.1171875) (4.5414337158203126e-05, 3.119140625) (3.8591468811035155e-05, 3.12109375) (3.2179637908935545e-05, 3.123046875) (2.6236387252807615e-05, 3.125) (2.0830774307250976e-05, 3.126953125) (1.6051025390625e-05, 3.12890625) (1.1959573745727538e-05, 3.130859375) (8.588418960571288e-06, 3.1328125) (5.9594812393188474e-06, 3.134765625) (4.075968742370606e-06, 3.13671875) (2.9226894378662107e-06, 3.138671875) (2.475617170333862e-06, 3.140625) (2.682072639465332e-06, 3.142578125) (3.4614558219909667e-06, 3.14453125) (4.7483386993408204e-06, 3.146484375) (6.487981796264648e-06, 3.1484375) (8.635663032531738e-06, 3.150390625) (1.1164867401123047e-05, 3.15234375) (1.403390884399414e-05, 3.154296875) (1.7188087463378905e-05, 3.15625) (2.056793975830078e-05, 3.158203125) (2.4102542877197264e-05, 3.16015625) (2.773369026184082e-05, 3.162109375) (3.1421386718749996e-05, 3.1640625) (3.512753295898438e-05, 3.166015625) (3.882076263427734e-05, 3.16796875) (4.248636245727539e-05, 3.169921875) (4.6118701934814453e-05, 3.171875) (4.9734054565429684e-05, 3.173828125) (5.3372196197509766e-05, 3.17578125) (5.705702209472656e-05, 3.177734375) (6.07982177734375e-05, 3.1796875) (6.459827423095703e-05, 3.181640625) (6.844559478759766e-05, 3.18359375) (7.233428192138671e-05, 3.185546875) (7.626535034179688e-05, 3.1875) (8.02361831665039e-05, 3.189453125) (8.424435424804687e-05, 3.19140625) (8.828591918945312e-05, 3.193359375) (9.235202026367187e-05, 3.1953125) (9.643576812744141e-05, 3.197265625) (0.00010053155517578125, 3.19921875) (0.00010462437438964843, 3.201171875) (0.00010869316101074219, 3.203125) (0.00011270779418945312, 3.205078125) (0.00011662718963623046, 3.20703125) (0.00012041870880126952, 3.208984375) (0.0001240582733154297, 3.2109375) (0.0001275244445800781, 3.212890625) (0.0001308018798828125, 3.21484375) (0.0001338757629394531, 3.216796875) (0.00013673016357421873, 3.21875) (0.0001393540344238281, 3.220703125) (0.00014174041748046874, 3.22265625) (0.00014388027954101562, 3.224609375) (0.0001457640380859375, 3.2265625) (0.0001473809814453125, 3.228515625) (0.00014871853637695313, 3.23046875) (0.00014976773071289062, 3.232421875) (0.0001505226287841797, 3.234375) (0.00015097926330566406, 3.236328125) (0.0001511363525390625, 3.23828125) (0.00015099209594726562, 3.240234375) (0.00015054367065429688, 3.2421875) (0.0001497892150878906, 3.244140625) (0.00014872723388671875, 3.24609375) (0.00014735617065429686, 3.248046875) (0.00014567518615722655, 3.25) (0.000143682861328125, 3.251953125) (0.00014137718200683594, 3.25390625) (0.00013875836181640624, 3.255859375) (0.0001358288116455078, 3.2578125) (0.00013259228515625, 3.259765625) (0.00012905444335937498, 3.26171875) (0.00012522178649902342, 3.263671875) (0.00012110155487060547, 3.265625) (0.0001167024688720703, 3.267578125) (0.00011203466796874999, 3.26953125) (0.00010710884857177734, 3.271484375) (0.00010193636322021485, 3.2734375) (9.652923583984374e-05, 3.275390625) (9.090000915527344e-05, 3.27734375) (8.5062255859375e-05, 3.279296875) (7.903047180175781e-05, 3.28125) (7.281981658935547e-05, 3.283203125) (6.6446044921875e-05, 3.28515625) (5.9925575256347656e-05, 3.287109375) (5.3275306701660156e-05, 3.2890625) (4.651261901855469e-05, 3.291015625) (3.965532684326172e-05, 3.29296875) (3.272134780883789e-05, 3.294921875) (2.5728717803955077e-05, 3.296875) (1.8695486068725586e-05, 3.298828125) (1.1639602661132812e-05, 3.30078125) (4.578907012939453e-06, 3.302734375) (-2.4689517021179196e-06, 3.3046875) (-9.486699104309081e-06, 3.306640625) (-1.64575080871582e-05, 3.30859375) (-2.3364990234375e-05, 3.310546875) (-3.019332504272461e-05, 3.3125) (-3.692730331420898e-05, 3.314453125) (-4.355235290527344e-05, 3.31640625) (-5.005487823486328e-05, 3.318359375) (-5.642231750488281e-05, 3.3203125) (-6.264303970336914e-05, 3.322265625) (-6.870650482177735e-05, 3.32421875) (-7.460325622558593e-05, 3.326171875) (-8.032489776611328e-05, 3.328125) (-8.586422729492187e-05, 3.330078125) (-9.121528625488281e-05, 3.33203125) (-9.637306976318359e-05, 3.333984375) (-0.00010133354187011718, 3.3359375) (-0.0001060937271118164, 3.337890625) (-0.00011065161895751952, 3.33984375) (-0.00011500628662109375, 3.341796875) (-0.00011915771484375, 3.34375) (-0.0001231068878173828, 3.345703125) (-0.00012685557556152343, 3.34765625) (-0.00013040643310546874, 3.349609375) (-0.00013376287841796873, 3.3515625) (-0.00013692913818359373, 3.353515625) (-0.0001399101104736328, 3.35546875) (-0.00014271121215820312, 3.357421875) (-0.00014533840942382813, 3.359375) (-0.00014779815673828125, 3.361328125) (-0.00015009725952148438, 3.36328125) (-0.0001522428283691406, 3.365234375) (-0.00015424227905273436, 3.3671875) (-0.00015610313415527342, 3.369140625) (-0.0001578330078125, 3.37109375) (-0.00015943954467773436, 3.373046875) (-0.00016093034362792968, 3.375) (-0.00016231288146972654, 3.376953125) (-0.00016359443664550782, 3.37890625) (-0.00016478207397460938, 3.380859375) (-0.00016588250732421875, 3.3828125) (-0.00016690203857421874, 3.384765625) (-0.00016784664916992187, 3.38671875) (-0.00016872189331054686, 3.388671875) (-0.00016953273010253904, 3.390625) (-0.00017028366088867185, 3.392578125) (-0.00017097871398925781, 3.39453125) (-0.00017162136840820312, 3.396484375) (-0.00017221469116210936, 3.3984375) (-0.00017276115417480469, 3.400390625) (-0.00017326292419433592, 3.40234375) (-0.0001737216796875, 3.404296875) (-0.00017413873291015624, 3.40625) (-0.00017451513671875, 3.408203125) (-0.00017485156249999999, 3.41015625) (-0.00017514843749999998, 3.412109375) (-0.00017540591430664063, 3.4140625) (-0.00017562396240234374, 3.416015625) (-0.00017580229187011718, 3.41796875) (-0.00017594047546386717, 3.419921875) (-0.00017603800964355467, 3.421875) (-0.00017609413146972656, 3.423828125) (-0.000176108154296875, 3.42578125) (-0.0001760792541503906, 3.427734375) (-0.00017600671386718749, 3.4296875) (-0.00017588986206054687, 3.431640625) (-0.00017572799682617188, 3.43359375) (-0.00017552059936523436, 3.435546875) (-0.00017526725769042968, 3.4375) (-0.0001749677276611328, 3.439453125) (-0.00017462188720703125, 3.44140625) (-0.0001742298889160156, 3.443359375) (-0.0001737920379638672, 3.4453125) (-0.00017330892944335935, 3.447265625) (-0.00017278146362304688, 3.44921875) (-0.00017221078491210935, 3.451171875) (-0.00017159844970703124, 3.453125) (-0.0001709463195800781, 3.455078125) (-0.000170256591796875, 3.45703125) (-0.00016953170776367186, 3.458984375) (-0.00016877438354492188, 3.4609375) (-0.0001679876251220703, 3.462890625) (-0.00016717453002929687, 3.46484375) (-0.00016633833312988282, 3.466796875) (-0.00016548231506347655, 3.46875) (-0.0001646098175048828, 3.470703125) (-0.0001637241668701172, 3.47265625) (-0.00016282867431640624, 3.474609375) (-0.00016192662048339842, 3.4765625) (-0.000161021240234375, 3.478515625) (-0.00016011569213867188, 3.48046875) (-0.00015921304321289063, 3.482421875) (-0.00015831625366210936, 3.484375) (-0.00015742813110351561, 3.486328125) (-0.00015655140686035156, 3.48828125) (-0.0001556885528564453, 3.490234375) (-0.00015484188842773437, 3.4921875) (-0.0001540135498046875, 3.494140625) (-0.00015320542907714844, 3.49609375) (-0.0001524192657470703, 3.498046875) (-0.0001516566162109375, 3.5) (-0.00015091879272460937, 3.501953125) (-0.00015020697021484375, 3.50390625) (-0.0001495220184326172, 3.505859375) (-0.00014886459350585936, 3.5078125) (-0.00014823516845703124, 3.509765625) (-0.00014763385009765624, 3.51171875) (-0.00014706042480468748, 3.513671875) (-0.00014651438903808594, 3.515625) (-0.00014599487304687499, 3.517578125) (-0.0001455007629394531, 3.51953125) (-0.00014503060913085937, 3.521484375) (-0.0001445827178955078, 3.5234375) (-0.00014415524291992187, 3.525390625) (-0.00014374620056152343, 3.52734375) (-0.00014335342407226562, 3.529296875) (-0.00014297479248046876, 3.53125) (-0.00014260809326171876, 3.533203125) (-0.00014225115966796874, 3.53515625) (-0.0001419018096923828, 3.537109375) (-0.0001415578918457031, 3.5390625) (-0.00014121725463867187, 3.541015625) (-0.00014087786865234374, 3.54296875) (-0.0001405377960205078, 3.544921875) (-0.00014019515991210937, 3.546875) (-0.0001398481903076172, 3.548828125) (-0.0001394952392578125, 3.55078125) (-0.0001391348419189453, 3.552734375) (-0.00013876565551757813, 3.5546875) (-0.00013838645935058594, 3.556640625) (-0.00013799623107910156, 3.55859375) (-0.00013759400939941405, 3.560546875) (-0.00013717897033691404, 3.5625) (-0.00013675038146972657, 3.564453125) (-0.00013630767822265624, 3.56640625) (-0.00013585040283203124, 3.568359375) (-0.00013537826538085937, 3.5703125) (-0.00013489117431640625, 3.572265625) (-0.00013438919067382813, 3.57421875) (-0.0001338726806640625, 3.576171875) (-0.00013334225463867188, 3.578125) (-0.00013279879760742187, 3.580078125) (-0.00013224346923828125, 3.58203125) (-0.00013167764282226563, 3.583984375) (-0.0001311029357910156, 3.5859375) (-0.00013052120971679686, 3.587890625) (-0.00012993443298339844, 3.58984375) (-0.0001293448486328125, 3.591796875) (-0.00012875469970703124, 3.59375) (-0.00012816644287109375, 3.595703125) (-0.00012758258056640626, 3.59765625) (-0.00012700573730468749, 3.599609375) (-0.00012643865966796875, 3.6015625) (-0.00012588414001464844, 3.603515625) (-0.00012534510040283203, 3.60546875) (-0.00012482447814941405, 3.607421875) (-0.00012432524871826172, 3.609375) (-0.00012385043334960937, 3.611328125) (-0.00012340306854248046, 3.61328125) (-0.0001229861602783203, 3.615234375) (-0.00012260277557373046, 3.6171875) (-0.00012225592803955077, 3.619140625) (-0.00012194863128662109, 3.62109375) (-0.00012168394470214844, 3.623046875) (-0.00012146493530273437, 3.625) (-0.00012129470825195312, 3.626953125) (-0.00012117639160156249, 3.62890625) (-0.00012111309814453124, 3.630859375) (-0.00012110792541503905, 3.6328125) (-0.00012116392517089843, 3.634765625) (-0.00012128408813476563, 3.63671875) (-0.0001214713134765625, 3.638671875) (-0.0001217283935546875, 3.640625) (-0.00012205792236328124, 3.642578125) (-0.00012246237182617187, 3.64453125) (-0.00012294406127929687, 3.646484375) (-0.000123505126953125, 3.6484375) (-0.00012414759063720702, 3.650390625) (-0.00012487321472167968, 3.65234375) (-0.00012568365478515624, 3.654296875) (-0.000126580322265625, 3.65625) (-0.00012756442260742186, 3.658203125) (-0.00012863699340820312, 3.66015625) (-0.00012979881286621093, 3.662109375) (-0.00013105041503906249, 3.6640625) (-0.00013239201354980467, 3.666015625) (-0.00013382363891601562, 3.66796875) (-0.00013534501647949218, 3.669921875) (-0.00013695567321777343, 3.671875) (-0.00013865487670898437, 3.673828125) (-0.00014044168090820313, 3.67578125) (-0.0001423148956298828, 3.677734375) (-0.0001442731018066406, 3.6796875) (-0.0001463146057128906, 3.681640625) (-0.00014843759155273436, 3.68359375) (-0.00015063999938964842, 3.685546875) (-0.00015291940307617186, 3.6875) (-0.00015527325439453125, 3.689453125) (-0.00015769863891601561, 3.69140625) (-0.0001601925048828125, 3.693359375) (-0.00016275149536132812, 3.6953125) (-0.00016537208557128904, 3.697265625) (-0.00016805046081542967, 3.69921875) (-0.0001707825927734375, 3.701171875) (-0.0001735642852783203, 3.703125) (-0.00017639114379882812, 3.705078125) (-0.00017925863647460936, 3.70703125) (-0.00018216197204589844, 3.708984375) (-0.00018509629821777344, 3.7109375) (-0.00018805662536621094, 3.712890625) (-0.00019103784179687498, 3.71484375) (-0.00019403485107421874, 3.716796875) (-0.00019704249572753904, 3.71875) (-0.00020005567932128906, 3.720703125) (-0.00020306938171386717, 3.72265625) (-0.00020607867431640624, 3.724609375) (-0.00020907876586914061, 3.7265625) (-0.00021206518554687498, 3.728515625) (-0.00021503361511230468, 3.73046875) (-0.00021797996520996093, 3.732421875) (-0.0002209004669189453, 3.734375) (-0.00022379161071777343, 3.736328125) (-0.0002266502227783203, 3.73828125) (-0.00022947344970703125, 3.740234375) (-0.00023225880432128904, 3.7421875) (-0.00023500413513183593, 3.744140625) (-0.00023770761108398436, 3.74609375) (-0.00024036776733398437, 3.748046875) (-0.00024298355102539063, 3.75) (-0.0002455543212890625, 3.751953125) (-0.0002480798645019531, 3.75390625) (-0.0002505603790283203, 3.755859375) (-0.0002529965667724609, 3.7578125) (-0.00025538961791992185, 3.759765625) (-0.0002577413024902344, 3.76171875) (-0.00026005404663085934, 3.763671875) (-0.0002623309326171875, 3.765625) (-0.00026457550048828126, 3.767578125) (-0.00026679220581054684, 3.76953125) (-0.00026898596191406247, 3.771484375) (-0.0002711624145507812, 3.7734375) (-0.000273327880859375, 3.775390625) (-0.0002754893798828125, 3.77734375) (-0.00027765447998046874, 3.779296875) (-0.000279831298828125, 3.78125) (-0.0002820284423828125, 3.783203125) (-0.0002842550354003906, 3.78515625) (-0.0002865205993652344, 3.787109375) (-0.00028883508300781246, 3.7890625) (-0.00029120855712890626, 3.791015625) (-0.0002936513671875, 3.79296875) (-0.0002961739807128906, 3.794921875) (-0.00029878683471679687, 3.796875) (-0.0003015005187988281, 3.798828125) (-0.00030432550048828123, 3.80078125) (-0.0003072721862792969, 3.802734375) (-0.0003103507690429687, 3.8046875) (-0.0003135713500976562, 3.806640625) (-0.0003169439697265625, 3.80859375) (-0.00032047848510742186, 3.810546875) (-0.00032418466186523437, 3.8125) (-0.00032807177734375, 3.814453125) (-0.00033214898681640625, 3.81640625) (-0.00033642492675781246, 3.818359375) (-0.0003409078979492187, 3.8203125) (-0.00034560574340820313, 3.822265625) (-0.000350525390625, 3.82421875) (-0.00035567294311523437, 3.826171875) (-0.0003610536499023437, 3.828125) (-0.000366671875, 3.830078125) (-0.0003725309143066406, 3.83203125) (-0.00037863327026367187, 3.833984375) (-0.0003849803466796875, 3.8359375) (-0.00039157220458984373, 3.837890625) (-0.0003984078369140625, 3.83984375) (-0.0004054850158691406, 3.841796875) (-0.00041280050659179684, 3.84375) (-0.0004203497924804687, 3.845703125) (-0.00042812725830078125, 3.84765625) (-0.00043612594604492186, 3.849609375) (-0.00044433807373046874, 3.8515625) (-0.0004527548828125, 3.853515625) (-0.00046136663818359375, 3.85546875) (-0.00047016329956054684, 3.857421875) (-0.0004791339721679687, 3.859375) (-0.00048826733398437495, 3.861328125) (-0.0004975515747070313, 3.86328125) (-0.0005069746704101562, 3.865234375) (-0.0005165238647460937, 3.8671875) (-0.0005261864013671875, 3.869140625) (-0.0005359489135742187, 3.87109375) (-0.0005457977905273438, 3.873046875) (-0.0005557194213867187, 3.875) (-0.0005657000732421875, 3.876953125) (-0.0005757256469726562, 3.87890625) (-0.0005857821044921874, 3.880859375) (-0.0005958556518554688, 3.8828125) (-0.0006059329833984374, 3.884765625) (-0.0006160023803710937, 3.88671875) (-0.00062605322265625, 3.888671875) (-0.0006360753173828125, 3.890625) (-0.0006460590209960937, 3.892578125) (-0.0006559955444335937, 3.89453125) (-0.0006658782958984374, 3.896484375) (-0.000675702880859375, 3.8984375) (-0.0006854653320312499, 3.900390625) (-0.000695161376953125, 3.90234375) (-0.0007047857666015625, 3.904296875) (-0.0007143338623046874, 3.90625) (-0.000723802734375, 3.908203125) (-0.00073319140625, 3.91015625) (-0.0007425003662109374, 3.912109375) (-0.0007517290039062499, 3.9140625) (-0.000760876220703125, 3.916015625) (-0.0007699406127929687, 3.91796875) (-0.0007789229736328124, 3.919921875) (-0.0007878259887695312, 3.921875) (-0.0007966535034179687, 3.923828125) (-0.0008054072875976563, 3.92578125) (-0.0008140824584960937, 3.927734375) (-0.0008226718749999999, 3.9296875) (-0.0008311719970703125, 3.931640625) (-0.0008395848388671875, 3.93359375) (-0.000847921630859375, 3.935546875) (-0.0008561941528320312, 3.9375) (-0.000864410400390625, 3.939453125) (-0.0008725763549804688, 3.94140625) (-0.0008806982421874999, 3.943359375) (-0.000888783935546875, 3.9453125) (-0.0008968428344726562, 3.947265625) (-0.0009048775634765625, 3.94921875) (-0.000912872802734375, 3.951171875) (-0.000920806884765625, 3.953125) (-0.0009286531982421874, 3.955078125) (-0.000936383056640625, 3.95703125) (-0.0009439892578125, 3.958984375) (-0.0009514691162109375, 3.9609375) (-0.0009588126831054688, 3.962890625) (-0.0009660079345703125, 3.96484375) (-0.0009730109863281249, 3.966796875) (-0.000979760986328125, 3.96875) (-0.0009862201538085938, 3.970703125) (-0.0009923638916015626, 3.97265625) (-0.0009981792602539062, 3.974609375) (-0.00100368505859375, 3.9765625) (-0.0010088780517578124, 3.978515625) (-0.0010137205810546875, 3.98046875) (-0.0010182987060546875, 3.982421875) (-0.001022797607421875, 3.984375) (-0.001027408935546875, 3.986328125) (-0.001032369140625, 3.98828125) (-0.00103778564453125, 3.990234375) (-0.0010435850830078125, 3.9921875) (-0.001049798095703125, 3.994140625) (-0.0010566259765625, 3.99609375) (-0.0010641422119140624, 3.998046875) (-0.00107224462890625, 4.0) (-0.0010807296142578125, 4.001953125) (-0.001089137451171875, 4.00390625) (-0.00109718359375, 4.005859375) (-0.001104999755859375, 4.0078125) (-0.001112563232421875, 4.009765625) (-0.001119567626953125, 4.01171875) (-0.00112578515625, 4.013671875) (-0.0011311569824218749, 4.015625) (-0.001135828125, 4.017578125) (-0.00114051953125, 4.01953125) (-0.001146007080078125, 4.021484375) (-0.001152588623046875, 4.0234375) (-0.0011606324462890625, 4.025390625) (-0.0011705927734374998, 4.02734375) (-0.0011828123779296874, 4.029296875) (-0.0011975004882812498, 4.03125) (-0.0012145059814453124, 4.033203125) (-0.0012329212646484374, 4.03515625) (-0.001250169921875, 4.037109375) (-0.0012626435546874999, 4.0390625) (-0.0012672001953125, 4.041015625) (-0.00126079052734375, 4.04296875) (-0.0012438951416015624, 4.044921875) (-0.0012205379638671875, 4.046875) (-0.0011919715576171875, 4.048828125) (-0.0011585343017578124, 4.05078125) (-0.0011160344238281248, 4.052734375) (-0.0010545408935546874, 4.0546875) (-0.0009697291259765624, 4.056640625) (-0.0008612540893554688, 4.05859375) (-0.0007344192504882812, 4.060546875) (-0.0006040145874023437, 4.0625) (-0.0004850462646484375, 4.064453125) (-0.00039241357421875, 4.06640625) (-0.00034226525878906246, 4.068359375) (-0.00034541635131835936, 4.0703125) (-0.00040602221679687496, 4.072265625) (-0.0005230234374999999, 4.07421875) (-0.0006836197509765625, 4.076171875) (-0.0008655849609375, 4.078125) (-0.0010473258056640624, 4.080078125) (-0.0012058271484375, 4.08203125) (-0.00132579541015625, 4.083984375) (-0.0014069345703125, 4.0859375) (-0.0014540526123046874, 4.087890625) (-0.0014788128662109375, 4.08984375) (-0.00149434765625, 4.091796875) (-0.0015040738525390624, 4.09375) (-0.0015075739746093749, 4.095703125) (-0.0015017373046875, 4.09765625) (-0.0014818591308593749, 4.099609375) (-0.0014492806396484374, 4.1015625) (-0.001408660400390625, 4.103515625) (-0.0013648801269531248, 4.10546875) (-0.0013230849609375, 4.107421875) (-0.0012858797607421875, 4.109375) (-0.0012540003662109373, 4.111328125) (-0.001227908935546875, 4.11328125) (-0.0012074648437499999, 4.115234375) (-0.001192025634765625, 4.1171875) (-0.0011806363525390625, 4.119140625) (-0.0011720900878906249, 4.12109375) (-0.0011652401123046874, 4.123046875) (-0.001159111083984375, 4.125) (-0.001152746337890625, 4.126953125) (-0.001145210693359375, 4.12890625) (-0.0011356998291015624, 4.130859375) (-0.0011239844970703124, 4.1328125) (-0.0011103917236328124, 4.134765625) (-0.001095441162109375, 4.13671875) (-0.00107971923828125, 4.138671875) (-0.0010637803955078125, 4.140625) (-0.001048173095703125, 4.142578125) (-0.001033556640625, 4.14453125) (-0.001020644287109375, 4.146484375) (-0.0010098023681640624, 4.1484375) (-0.0010010272216796874, 4.150390625) (-0.0009941380615234375, 4.15234375) (-0.0009888096923828125, 4.154296875) (-0.0009847291259765625, 4.15625) (-0.000981639404296875, 4.158203125) (-0.0009792156372070311, 4.16015625) (-0.0009770711669921874, 4.162109375) (-0.0009749356689453125, 4.1640625) (-0.0009726551513671875, 4.166015625) (-0.000970152099609375, 4.16796875) (-0.0009674487915039062, 4.169921875) (-0.0009645493164062499, 4.171875) (-0.0009614114379882812, 4.173828125) (-0.0009580096435546874, 4.17578125) (-0.0009543218994140625, 4.177734375) (-0.0009503209228515625, 4.1796875) (-0.0009460003051757812, 4.181640625) (-0.0009413571777343749, 4.18359375) (-0.0009363822021484375, 4.185546875) (-0.0009310765380859374, 4.1875) (-0.0009254300537109375, 4.189453125) (-0.0009194244384765624, 4.19140625) (-0.0009130462036132812, 4.193359375) (-0.0009062669677734374, 4.1953125) (-0.0008990579833984374, 4.197265625) (-0.0008913857421875, 4.19921875) (-0.0008831958618164062, 4.201171875) (-0.000874453125, 4.203125) (-0.000865148681640625, 4.205078125) (-0.0008552855224609375, 4.20703125) (-0.00084489111328125, 4.208984375) (-0.0008339957885742188, 4.2109375) (-0.0008226116943359375, 4.212890625) (-0.0008107578125, 4.21484375) (-0.0007984568481445312, 4.216796875) (-0.0007857344970703125, 4.21875) (-0.0007726447753906249, 4.220703125) (-0.000759244873046875, 4.22265625) (-0.0007455902099609375, 4.224609375) (-0.000731755615234375, 4.2265625) (-0.0007178034057617188, 4.228515625) (-0.0007037874755859375, 4.23046875) (-0.0006897721557617187, 4.232421875) (-0.000675787841796875, 4.234375) (-0.00066183349609375, 4.236328125) (-0.0006479046630859374, 4.23828125) (-0.00063397412109375, 4.240234375) (-0.0006200115356445312, 4.2421875) (-0.000606007568359375, 4.244140625) (-0.0005919403686523437, 4.24609375) (-0.0005777816772460937, 4.248046875) (-0.0005635004882812499, 4.25) (-0.00054903857421875, 4.251953125) (-0.0005343363037109374, 4.25390625) (-0.0005193382568359374, 4.255859375) (-0.0005039801940917969, 4.2578125) (-0.00048822009277343746, 4.259765625) (-0.00047203601074218747, 4.26171875) (-0.00045540988159179684, 4.263671875) (-0.00043836300659179687, 4.265625) (-0.00042095040893554684, 4.267578125) (-0.0004032308349609375, 4.26953125) (-0.00038528955078124996, 4.271484375) (-0.0003672110900878906, 4.2734375) (-0.0003490512084960937, 4.275390625) (-0.0003308773803710937, 4.27734375) (-0.0003127556762695312, 4.279296875) (-0.00029474862670898435, 4.28125) (-0.0002769546203613281, 4.283203125) (-0.00025948324584960936, 4.28515625) (-0.00024244567871093748, 4.287109375) (-0.000225963134765625, 4.2890625) (-0.00021013244628906248, 4.291015625) (-0.00019500559997558592, 4.29296875) (-0.00018062986755371094, 4.294921875) (-0.0001670331268310547, 4.296875) (-0.0001541476135253906, 4.298828125) (-0.00014183407592773437, 4.30078125) (-0.00012986395263671875, 4.302734375) (-0.00011793285369873046, 4.3046875) (-0.00010578635406494141, 4.306640625) (-9.32439193725586e-05, 4.30859375) (-8.01380844116211e-05, 4.310546875) (-6.628839874267577e-05, 4.3125) (-5.1666694641113276e-05, 4.314453125) (-3.638576126098633e-05, 4.31640625) (-2.064174461364746e-05, 4.318359375) (-4.750585556030273e-06, 4.3203125) (1.1078189849853514e-05, 4.322265625) (2.6856626510620115e-05, 4.32421875) (4.271731948852539e-05, 4.326171875) (5.886390686035156e-05, 4.328125) (7.587274932861327e-05, 4.330078125) (9.4640625e-05, 4.33203125) (0.00011612966156005859, 4.333984375) (0.00014143395996093748, 4.3359375) (0.00017151412963867187, 4.337890625) (0.00020697499084472654, 4.33984375) (0.0002481595458984375, 4.341796875) (0.00029519717407226563, 4.34375) (0.00034758837890625, 4.345703125) (0.00040422802734375, 4.34765625) (0.00046379049682617184, 4.349609375) (0.0005246898193359375, 4.3515625) (0.000585244140625, 4.353515625) (0.0006439354248046875, 4.35546875) (0.00069944091796875, 4.357421875) (0.0007505686645507812, 4.359375) (0.0007966600341796874, 4.361328125) (0.0008376674194335937, 4.36328125) (0.0008738109130859374, 4.365234375) (0.0009056112670898437, 4.3671875) (0.0009338931884765625, 4.369140625) (0.0009595733032226562, 4.37109375) (0.0009834737548828124, 4.373046875) (0.0010063876953125, 4.375) (0.0010288253173828124, 4.376953125) (0.001050927490234375, 4.37890625) (0.0010727155761718749, 4.380859375) (0.0010940576171875, 4.3828125) (0.0011145911865234374, 4.384765625) (0.0011338498535156249, 4.38671875) (0.0011514827880859376, 4.388671875) (0.0011672283935546875, 4.390625) (0.00118100634765625, 4.392578125) (0.001192941650390625, 4.39453125) (0.0012031898193359375, 4.396484375) (0.0012119488525390624, 4.3984375) (0.0012195093994140625, 4.400390625) (0.0012261986083984375, 4.40234375) (0.001232260009765625, 4.404296875) (0.0012378551025390625, 4.40625) (0.00124305224609375, 4.408203125) (0.0012478222656249999, 4.41015625) (0.0012521376953125, 4.412109375) (0.001255974853515625, 4.4140625) (0.0012592850341796875, 4.416015625) (0.0012620184326171875, 4.41796875) (0.0012641383056640624, 4.419921875) (0.0012656103515625, 4.421875) (0.001266421875, 4.423828125) (0.0012665924072265623, 4.42578125) (0.0012661376953125, 4.427734375) (0.0012650751953125, 4.4296875) (0.001263440185546875, 4.431640625) (0.0012612701416015624, 4.43359375) (0.001258630859375, 4.435546875) (0.0012556273193359375, 4.4375) (0.00125236328125, 4.439453125) (0.0012489384765625, 4.44140625) (0.0012454468994140624, 4.443359375) (0.0012419637451171874, 4.4453125) (0.0012385654296874998, 4.447265625) (0.0012353310546874999, 4.44921875) (0.0012323308105468749, 4.451171875) (0.0012296265869140624, 4.453125) (0.0012272641601562499, 4.455078125) (0.0012252650146484375, 4.45703125) (0.0012236474609375, 4.458984375) (0.00122242626953125, 4.4609375) (0.001221592041015625, 4.462890625) (0.0012211193847656249, 4.46484375) (0.0012209504394531249, 4.466796875) (0.00122098828125, 4.46875) (0.001221152587890625, 4.470703125) (0.00122138134765625, 4.47265625) (0.001221621337890625, 4.474609375) (0.0012218388671875, 4.4765625) (0.001221998046875, 4.478515625) (0.001222059326171875, 4.48046875) (0.001221996337890625, 4.482421875) (0.0012217979736328123, 4.484375) (0.0012214577636718749, 4.486328125) (0.001220979248046875, 4.48828125) (0.0012203621826171874, 4.490234375) (0.0012196005859374998, 4.4921875) (0.00121870654296875, 4.494140625) (0.0012177049560546875, 4.49609375) (0.001216638916015625, 4.498046875) (0.001215572998046875, 4.5) (0.0012145527343749999, 4.501953125) (0.0012136032714843749, 4.50390625) (0.0012127435302734374, 4.505859375) (0.0012119794921875, 4.5078125) (0.0012113137207031249, 4.509765625) (0.0012107493896484375, 4.51171875) (0.0012102752685546874, 4.513671875) (0.001209866943359375, 4.515625) (0.0012095025634765624, 4.517578125) (0.0012091614990234374, 4.51953125) (0.0012088260498046874, 4.521484375) (0.0012084855957031249, 4.5234375) (0.0012081201171875, 4.525390625) (0.001207702880859375, 4.52734375) (0.0012072026367187499, 4.529296875) (0.001206582275390625, 4.53125) (0.0012058131103515625, 4.533203125) (0.001204876220703125, 4.53515625) (0.0012037541503906249, 4.537109375) (0.001202434326171875, 4.5390625) (0.001200908203125, 4.541015625) (0.0011991682128906249, 4.54296875) (0.0011972147216796874, 4.544921875) (0.00119505517578125, 4.546875) (0.001192693359375, 4.548828125) (0.001190132080078125, 4.55078125) (0.0011873724365234375, 4.552734375) (0.0011844139404296875, 4.5546875) (0.001181259033203125, 4.556640625) (0.001177913330078125, 4.55859375) (0.001174382080078125, 4.560546875) (0.001170671875, 4.5625) (0.001166788818359375, 4.564453125) (0.001162739501953125, 4.56640625) (0.00115853076171875, 4.568359375) (0.0011541710205078125, 4.5703125) (0.0011496672363281249, 4.572265625) (0.0011450270996093749, 4.57421875) (0.0011402569580078125, 4.576171875) (0.0011353625488281249, 4.578125) (0.0011303514404296874, 4.580078125) (0.001125231689453125, 4.58203125) (0.0011200120849609375, 4.583984375) (0.0011147017822265624, 4.5859375) (0.0011093099365234375, 4.587890625) (0.00110384521484375, 4.58984375) (0.001098316650390625, 4.591796875) (0.0010927337646484375, 4.59375) (0.0010871044921875, 4.595703125) (0.0010814365234375, 4.59765625) (0.001075736572265625, 4.599609375) (0.0010700107421875, 4.6015625) (0.001064264892578125, 4.603515625) (0.001058504150390625, 4.60546875) (0.0010527333984375, 4.607421875) (0.00104695703125, 4.609375) (0.0010411788330078125, 4.611328125) (0.00103540283203125, 4.61328125) (0.0010296324462890625, 4.615234375) (0.001023870849609375, 4.6171875) (0.0010181207275390624, 4.619140625) (0.0010123848876953125, 4.62109375) (0.0010066653442382812, 4.623046875) (0.00100096435546875, 4.625) (0.0009952838134765624, 4.626953125) (0.0009896248168945311, 4.62890625) (0.0009839886474609374, 4.630859375) (0.0009783759155273437, 4.6328125) (0.000972787109375, 4.634765625) (0.0009672224731445312, 4.63671875) (0.0009616816406249999, 4.638671875) (0.0009561642456054687, 4.640625) (0.0009506693115234375, 4.642578125) (0.0009451956787109374, 4.64453125) (0.0009397418823242187, 4.646484375) (0.0009343063354492187, 4.6484375) (0.00092888720703125, 4.650390625) (0.0009234825439453125, 4.65234375) (0.000918090576171875, 4.654296875) (0.0009127090454101563, 4.65625) (0.0009073358764648437, 4.658203125) (0.0009019695434570312, 4.66015625) (0.0008966085205078124, 4.662109375) (0.0008912515869140625, 4.6640625) (0.0008858972778320312, 4.666015625) (0.0008805445556640624, 4.66796875) (0.0008751926879882813, 4.669921875) (0.0008698408203125, 4.671875) (0.0008644884643554687, 4.673828125) (0.000859135009765625, 4.67578125) (0.0008537800903320312, 4.677734375) (0.000848423095703125, 4.6796875) (0.0008430635986328125, 4.681640625) (0.0008377014770507812, 4.68359375) (0.0008323363037109375, 4.685546875) (0.0008269677734375, 4.6875) (0.0008215952148437499, 4.689453125) (0.0008162182006835937, 4.69140625) (0.0008108363647460937, 4.693359375) (0.00080544921875, 4.6953125) (0.0008000562744140625, 4.697265625) (0.000794656982421875, 4.69921875) (0.0007892509765624999, 4.701171875) (0.000783837890625, 4.703125) (0.0007784176025390625, 4.705078125) (0.0007729898681640624, 4.70703125) (0.0007675546264648437, 4.708984375) (0.00076211181640625, 4.7109375) (0.0007566614379882812, 4.712890625) (0.0007512033081054687, 4.71484375) (0.0007457374877929687, 4.716796875) (0.0007402638549804687, 4.71875) (0.0007347823486328125, 4.720703125) (0.0007292928466796875, 4.72265625) (0.0007237947387695313, 4.724609375) (0.000718287841796875, 4.7265625) (0.0007127714843749999, 4.728515625) (0.000707245361328125, 4.73046875) (0.0007017086181640625, 4.732421875) (0.0006961602783203125, 4.734375) (0.0006905994262695312, 4.736328125) (0.0006850252075195312, 4.73828125) (0.0006794364013671875, 4.740234375) (0.0006738319702148437, 4.7421875) (0.0006682107543945312, 4.744140625) (0.0006625716552734374, 4.74609375) (0.0006569138793945312, 4.748046875) (0.0006512362060546874, 4.75) (0.0006455380859374999, 4.751953125) (0.00063981884765625, 4.75390625) (0.0006340780029296875, 4.755859375) (0.0006283151245117187, 4.7578125) (0.000622530029296875, 4.759765625) (0.0006167224121093749, 4.76171875) (0.0006108922729492187, 4.763671875) (0.0006050396118164063, 4.765625) (0.0005991644897460937, 4.767578125) (0.0005932669677734375, 4.76953125) (0.0005873472290039062, 4.771484375) (0.000581405517578125, 4.7734375) (0.000575442138671875, 4.775390625) (0.0005694575195312499, 4.77734375) (0.0005634521484375, 4.779296875) (0.0005574263305664063, 4.78125) (0.0005513807373046874, 4.783203125) (0.0005453159790039063, 4.78515625) (0.0005392327880859375, 4.787109375) (0.0005331319580078125, 4.7890625) (0.0005270142822265625, 4.791015625) (0.0005208809814453124, 4.79296875) (0.000514732666015625, 4.794921875) (0.00050857080078125, 4.796875) (0.000502396728515625, 4.798828125) (0.0004962118225097656, 4.80078125) (0.0004900175476074219, 4.802734375) (0.0004838155822753906, 4.8046875) (0.000477607666015625, 4.806640625) (0.0004713953247070312, 4.80859375) (0.0004651803283691406, 4.810546875) (0.00045896429443359374, 4.8125) (0.0004527488098144531, 4.814453125) (0.0004465353393554687, 4.81640625) (0.00044032525634765625, 4.818359375) (0.0004341200561523437, 4.8203125) (0.00042792083740234374, 4.822265625) (0.00042172903442382813, 4.82421875) (0.00041554577636718746, 4.826171875) (0.00040937231445312497, 4.828125) (0.00040320971679687497, 4.830078125) (0.0003970591430664062, 4.83203125) (0.00039092181396484373, 4.833984375) (0.000384798828125, 4.8359375) (0.00037869140624999996, 4.837890625) (0.00037260058593749997, 4.83984375) (0.0003665277099609375, 4.841796875) (0.0003604739074707031, 4.84375) (0.0003544405822753906, 4.845703125) (0.0003484291076660156, 4.84765625) (0.0003424410095214844, 4.849609375) (0.0003364779357910156, 4.8515625) (0.0003305415344238281, 4.853515625) (0.0003246336669921875, 4.85546875) (0.0003187561645507812, 4.857421875) (0.000312910888671875, 4.859375) (0.00030709979248046875, 4.861328125) (0.0003013247375488281, 4.86328125) (0.00029558764648437497, 4.865234375) (0.0002898905029296875, 4.8671875) (0.0002842353515625, 4.869140625) (0.00027862420654296876, 4.87109375) (0.00027305932617187497, 4.873046875) (0.00026754290771484373, 4.875) (0.00026207745361328126, 4.876953125) (0.00025666546630859373, 4.87890625) (0.00025130963134765625, 4.880859375) (0.0002460126953125, 4.8828125) (0.00024077737426757813, 4.884765625) (0.00023560646057128905, 4.88671875) (0.000230502685546875, 4.888671875) (0.0002254687805175781, 4.890625) (0.00022050738525390625, 4.892578125) (0.00021562110900878904, 4.89453125) (0.00021081256103515624, 4.896484375) (0.00020608415222167967, 4.8984375) (0.00020143829345703124, 4.900390625) (0.00019687719726562498, 4.90234375) (0.0001924029846191406, 4.904296875) (0.00018801751708984375, 4.90625) (0.00018372238159179686, 4.908203125) (0.0001795189208984375, 4.91015625) (0.00017540800476074217, 4.912109375) (0.00017139004516601562, 4.9140625) (0.0001674652099609375, 4.916015625) (0.0001636332092285156, 4.91796875) (0.00015989344787597655, 4.919921875) (0.00015624493408203125, 4.921875) (0.00015268634033203124, 4.923828125) (0.00014921600341796874, 4.92578125) (0.00014583195495605468, 4.927734375) (0.00014253175354003906, 4.9296875) (0.00013931243896484375, 4.931640625) (0.00013617059326171874, 4.93359375) (0.00013310223388671874, 4.935546875) (0.00013010272216796873, 4.9375) (0.00012716681671142576, 4.939453125) (0.00012428874206542968, 4.94140625) (0.0001214621124267578, 4.943359375) (0.00011868022918701172, 4.9453125) (0.00011593610382080077, 4.947265625) (0.00011322230529785156, 4.94921875) (0.0001105313491821289, 4.951171875) (0.0001078556137084961, 4.953125) (0.00010518717956542969, 4.955078125) (0.00010251797485351561, 4.95703125) (9.983981323242186e-05, 4.958984375) (9.714417266845702e-05, 4.9609375) (9.442263793945312e-05, 4.962890625) (9.166683197021483e-05, 4.96484375) (8.886814880371093e-05, 4.966796875) (8.601811218261719e-05, 4.96875) (8.310841369628906e-05, 4.970703125) (8.013106536865234e-05, 4.97265625) (7.707865905761718e-05, 4.974609375) (7.394436645507812e-05, 4.9765625) (7.072151947021484e-05, 4.978515625) (6.740394592285155e-05, 4.98046875) (6.39859619140625e-05, 4.982421875) (6.046211624145508e-05, 4.984375) (5.682755279541015e-05, 4.986328125) (5.307794570922851e-05, 4.98828125) (4.9209274291992185e-05, 4.990234375) (4.521837615966797e-05, 4.9921875) (4.1103111267089844e-05, 4.994140625) (3.686199569702148e-05, 4.99609375) (3.249471282958984e-05, 4.998046875) (2.8002460479736326e-05, 5.0) (2.3387468338012694e-05, 5.001953125) (1.8653261184692383e-05, 5.00390625) (1.3804859161376953e-05, 5.005859375) (8.847613334655762e-06, 5.0078125) (3.7873992919921873e-06, 5.009765625) (-1.3688513040542602e-06, 5.01171875) (-6.614044189453124e-06, 5.013671875) (-1.1941162109374999e-05, 5.015625) (-1.734257698059082e-05, 5.017578125) (-2.2810844421386717e-05, 5.01953125) (-2.8339000701904295e-05, 5.021484375) (-3.391891479492187e-05, 5.0234375) (-3.954211044311523e-05, 5.025390625) (-4.520013427734375e-05, 5.02734375) (-5.088291549682617e-05, 5.029296875) (-5.6579887390136716e-05, 5.03125) (-6.228104019165039e-05, 5.033203125) (-6.797587585449219e-05, 5.03515625) (-7.365422058105468e-05, 5.037109375) (-7.930712127685547e-05, 5.0390625) (-8.492487335205078e-05, 5.041015625) (-9.049898529052733e-05, 5.04296875) (-9.60244140625e-05, 5.044921875) (-0.00010149541473388671, 5.046875) (-0.0001069061050415039, 5.048828125) (-0.00011224976348876952, 5.05078125) (-0.00011751547241210937, 5.052734375) (-0.00012269473266601563, 5.0546875) (-0.00012778399658203125, 5.056640625) (-0.00013278050231933593, 5.05859375) (-0.00013768391418457032, 5.060546875) (-0.00014249850463867188, 5.0625) (-0.0001472288055419922, 5.064453125) (-0.00015188497924804688, 5.06640625) (-0.0001564871368408203, 5.068359375) (-0.00016105288696289063, 5.0703125) (-0.0001655987548828125, 5.072265625) (-0.00017013922119140623, 5.07421875) (-0.00017467391967773436, 5.076171875) (-0.00017919776916503906, 5.078125) (-0.0001837076873779297, 5.080078125) (-0.0001881993408203125, 5.08203125) (-0.00019267239379882812, 5.083984375) (-0.000197124755859375, 5.0859375) (-0.00020153994750976562, 5.087890625) (-0.00020589642333984374, 5.08984375) (-0.00021017869567871092, 5.091796875) (-0.0002143656768798828, 5.09375) (-0.00021843186950683594, 5.095703125) (-0.00022233834838867187, 5.09765625) (-0.00022601400756835937, 5.099609375) (-0.000229383056640625, 5.1015625) (-0.0002323778381347656, 5.103515625) (-0.00023493576049804686, 5.10546875) (-0.0002370212707519531, 5.107421875) (-0.00023861613464355467, 5.109375) (-0.00023969879150390625, 5.111328125) (-0.00024025526428222657, 5.11328125) (-0.00024028207397460937, 5.115234375) (-0.00023978074645996094, 5.1171875) (-0.00023877789306640625, 5.119140625) (-0.00023731796264648435, 5.12109375) (-0.00023542778015136717, 5.123046875) (-0.0002331353759765625, 5.125) (-0.00023049440002441404, 5.126953125) (-0.00022759448242187498, 5.12890625) (-0.00022458587646484373, 5.130859375) (-0.0002216555938720703, 5.1328125) (-0.00021897384643554686, 5.134765625) (-0.00021668276977539062, 5.13671875) (-0.0002149117431640625, 5.138671875) (-0.0002137857208251953, 5.140625) (-0.00021343151855468748, 5.142578125) (-0.0002139746856689453, 5.14453125) (-0.00021550247192382813, 5.146484375) (-0.00021804014587402344, 5.1484375) (-0.00022162313842773437, 5.150390625) (-0.00022634507751464843, 5.15234375) (-0.00023225875854492186, 5.154296875) (-0.0002393243408203125, 5.15625) (-0.00024734190368652344, 5.158203125) (-0.00025585490417480466, 5.16015625) (-0.00026430108642578123, 5.162109375) (-0.00027217736816406246, 5.1640625) (-0.0002789154052734375, 5.166015625) (-0.0002838077392578125, 5.16796875) (-0.00028632110595703126, 5.169921875) (-0.00028623568725585934, 5.171875) (-0.00028375256347656246, 5.173828125) (-0.0002796837158203125, 5.17578125) (-0.00027518240356445313, 5.177734375) (-0.0002713213195800781, 5.1796875) (-0.00026911834716796874, 5.181640625) (-0.000269904052734375, 5.18359375) (-0.0002739885864257812, 5.185546875) (-0.00027990527343749996, 5.1875) (-0.00028569534301757814, 5.189453125) (-0.00028847219848632813, 5.19140625) (-0.00028654522705078125, 5.193359375) (-0.00028192355346679687, 5.1953125) (-0.00027582492065429687, 5.197265625) (-0.00026615573120117184, 5.19921875) (-0.00024759979248046877, 5.201171875) (-0.00020953808593749998, 5.203125) (-0.00014237258911132812, 5.205078125) (-4.490813064575195e-05, 5.20703125) (7.843948364257812e-05, 5.208984375) (0.00021712852478027343, 5.2109375) (0.00035758203125, 5.212890625) (0.0004910677490234374, 5.21484375) (0.0006083318481445312, 5.216796875) (0.0006992946166992188, 5.21875) (0.000753944580078125, 5.220703125) (0.0007587419433593749, 5.22265625) (0.0007063597412109375, 5.224609375) (0.0005968970947265625, 5.2265625) (0.00043946392822265625, 5.228515625) (0.0002557377014160156, 5.23046875) (6.831878662109375e-05, 5.232421875) (-0.00010033526611328124, 5.234375) (-0.0002339005126953125, 5.236328125) (-0.00033048928833007813, 5.23828125) (-0.00039496029663085933, 5.240234375) (-0.0004385001220703125, 5.2421875) (-0.00047240179443359373, 5.244140625) (-0.0004998226623535156, 5.24609375) (-0.0005185711669921874, 5.248046875) (-0.0005231958618164063, 5.25) (-0.0005114161682128906, 5.251953125) (-0.00048614727783203123, 5.25390625) (-0.0004545697021484375, 5.255859375) (-0.0004251433715820312, 5.2578125) (-0.0004000499877929687, 5.259765625) (-0.0003789608154296875, 5.26171875) (-0.0003603255615234375, 5.263671875) (-0.00034172705078125, 5.265625) (-0.000325553955078125, 5.267578125) (-0.0003138818664550781, 5.26953125) (-0.00030680657958984375, 5.271484375) (-0.00030455877685546875, 5.2734375) (-0.00030509606933593747, 5.275390625) (-0.0003067897338867187, 5.27734375) (-0.0003092532348632812, 5.279296875) (-0.00031146798706054685, 5.28125) (-0.0003126531982421875, 5.283203125) (-0.0003121790466308594, 5.28515625) (-0.0003095848388671875, 5.287109375) (-0.0003051476440429687, 5.2890625) (-0.000299421142578125, 5.291015625) (-0.000292786376953125, 5.29296875) (-0.00028566949462890625, 5.294921875) (-0.00027860150146484373, 5.296875) (-0.0002722219848632812, 5.298828125) (-0.00026731353759765626, 5.30078125) (-0.00026430157470703125, 5.302734375) (-0.00026317657470703126, 5.3046875) (-0.00026375610351562497, 5.306640625) (-0.00026574130249023436, 5.30859375) (-0.00026884167480468747, 5.310546875) (-0.00027281283569335934, 5.3125) (-0.00027733270263671875, 5.314453125) (-0.00028200769042968746, 5.31640625) (-0.0002865670776367187, 5.318359375) (-0.0002908459777832031, 5.3203125) (-0.00029475506591796874, 5.322265625) (-0.0002983020629882812, 5.32421875) (-0.0003014674682617187, 5.326171875) (-0.00030420248413085937, 5.328125) (-0.00030647900390624996, 5.330078125) (-0.00030826950073242185, 5.33203125) (-0.00030956494140625, 5.333984375) (-0.00031038580322265624, 5.3359375) (-0.00031075946044921876, 5.337890625) (-0.0003107181396484375, 5.33984375) (-0.00031030706787109374, 5.341796875) (-0.00030957043457031247, 5.34375) (-0.0003085525207519531, 5.345703125) (-0.0003073041076660156, 5.34765625) (-0.00030587274169921875, 5.349609375) (-0.00030430963134765623, 5.3515625) (-0.00030265658569335937, 5.353515625) (-0.0003009389038085937, 5.35546875) (-0.0002991876525878906, 5.357421875) (-0.0002974370422363281, 5.359375) (-0.00029573175048828125, 5.361328125) (-0.00029412945556640623, 5.36328125) (-0.00029266452026367187, 5.365234375) (-0.00029134530639648434, 5.3671875) (-0.0002901710205078125, 5.369140625) (-0.00028913061523437497, 5.37109375) (-0.0002882119140625, 5.373046875) (-0.0002874068298339844, 5.375) (-0.00028669808959960936, 5.376953125) (-0.0002860589904785156, 5.37890625) (-0.0002854675903320312, 5.380859375) (-0.0002849041137695312, 5.3828125) (-0.00028435400390625, 5.384765625) (-0.00028380987548828126, 5.38671875) (-0.00028325732421874997, 5.388671875) (-0.00028267620849609375, 5.390625) (-0.0002820420227050781, 5.392578125) (-0.00028132519531249997, 5.39453125) (-0.00028050451660156247, 5.396484375) (-0.0002795681457519531, 5.3984375) (-0.00027850598144531246, 5.400390625) (-0.00027731103515625, 5.40234375) (-0.0002759784240722656, 5.404296875) (-0.00027450372314453123, 5.40625) (-0.000272888427734375, 5.408203125) (-0.00027113986206054686, 5.41015625) (-0.00026926208496093747, 5.412109375) (-0.00026725680541992184, 5.4140625) (-0.00026512475585937497, 5.416015625) (-0.00026286508178710935, 5.41796875) (-0.00026047991943359375, 5.419921875) (-0.000257974365234375, 5.421875) (-0.00025535394287109375, 5.423828125) (-0.000252625, 5.42578125) (-0.00024979364013671875, 5.427734375) (-0.00024686561584472654, 5.4296875) (-0.00024384729003906248, 5.431640625) (-0.00024074540710449218, 5.43359375) (-0.00023756597900390623, 5.435546875) (-0.00023431449890136717, 5.4375) (-0.00023099552917480468, 5.439453125) (-0.00022761268615722655, 5.44140625) (-0.00022417051696777343, 5.443359375) (-0.0002206743927001953, 5.4453125) (-0.00021712962341308593, 5.447265625) (-0.0002135419158935547, 5.44921875) (-0.00020991668701171874, 5.451171875) (-0.0002062589874267578, 5.453125) (-0.00020257421874999998, 5.455078125) (-0.00019886801147460937, 5.45703125) (-0.00019514527893066405, 5.458984375) (-0.0001914105529785156, 5.4609375) (-0.0001876679992675781, 5.462890625) (-0.00018392161560058592, 5.46484375) (-0.0001801754150390625, 5.466796875) (-0.0001764335021972656, 5.46875) (-0.00017269979858398438, 5.470703125) (-0.00016897810363769532, 5.47265625) (-0.0001652723693847656, 5.474609375) (-0.00016158685302734374, 5.4765625) (-0.00015792593383789062, 5.478515625) (-0.00015429412841796875, 5.48046875) (-0.0001506959533691406, 5.482421875) (-0.00014713601684570313, 5.484375) (-0.00014361917114257813, 5.486328125) (-0.00014015057373046875, 5.48828125) (-0.00013673550415039062, 5.490234375) (-0.00013337953186035156, 5.4921875) (-0.00013008839416503906, 5.494140625) (-0.00012686817932128905, 5.49609375) (-0.00012372538757324218, 5.498046875) (-0.00012066697692871093, 5.5) (-0.00011770034027099609, 5.501953125) (-0.00011483334350585937, 5.50390625) (-0.00011207418823242188, 5.505859375) (-0.00010943143463134765, 5.5078125) (-0.00010691413116455078, 5.509765625) (-0.00010453167724609375, 5.51171875) (-0.0001022938003540039, 5.513671875) (-0.00010021043395996093, 5.515625) (-9.829167175292969e-05, 5.517578125) (-9.654763793945312e-05, 5.51953125) (-9.498864746093749e-05, 5.521484375) (-9.362506866455078e-05, 5.5234375) (-9.246714782714844e-05, 5.525390625) (-9.152494812011718e-05, 5.52734375) (-9.080818176269531e-05, 5.529296875) (-9.032612609863281e-05, 5.53125) (-9.008760070800781e-05, 5.533203125) (-9.010083007812499e-05, 5.53515625) (-9.037332153320312e-05, 5.537109375) (-9.091166687011719e-05, 5.5390625) (-9.172160339355468e-05, 5.541015625) (-9.2807861328125e-05, 5.54296875) (-9.417422485351562e-05, 5.544921875) (-9.582344818115234e-05, 5.546875) (-9.775715637207031e-05, 5.548828125) (-9.997587585449218e-05, 5.55078125) (-0.00010247892761230468, 5.552734375) (-0.0001052645263671875, 5.5546875) (-0.00010832966613769531, 5.556640625) (-0.0001116701431274414, 5.55859375) (-0.00011528046417236327, 5.560546875) (-0.00011915394592285155, 5.5625) (-0.00012328256225585936, 5.564453125) (-0.00012765705108642577, 5.56640625) (-0.00013226686096191406, 5.568359375) (-0.0001371002960205078, 5.5703125) (-0.0001421443634033203, 5.572265625) (-0.00014738494873046875, 5.57421875) (-0.00015280686950683593, 5.576171875) (-0.00015839385986328124, 5.578125) (-0.00016412875366210938, 5.580078125) (-0.0001699935302734375, 5.58203125) (-0.00017596942138671875, 5.583984375) (-0.00018203692626953124, 5.5859375) (-0.00018817608642578124, 5.587890625) (-0.00019436648559570312, 5.58984375) (-0.00020058743286132812, 5.591796875) (-0.000206818115234375, 5.59375) (-0.00021303764343261718, 5.595703125) (-0.00021922540283203124, 5.59765625) (-0.00022536094665527343, 5.599609375) (-0.00023142442321777342, 5.6015625) (-0.00023739648437499998, 5.603515625) (-0.00024325848388671875, 5.60546875) (-0.00024899256896972655, 5.607421875) (-0.00025458184814453126, 5.609375) (-0.0002600102844238281, 5.611328125) (-0.0002652630615234375, 5.61328125) (-0.0002703263244628906, 5.615234375) (-0.00027518737792968747, 5.6171875) (-0.0002798348693847656, 5.619140625) (-0.00028425851440429684, 5.62109375) (-0.00028844952392578126, 5.623046875) (-0.00029240036010742186, 5.625) (-0.00029610491943359376, 5.626953125) (-0.000299558349609375, 5.62890625) (-0.0003027573852539062, 5.630859375) (-0.0003057000732421875, 5.6328125) (-0.00030838598632812496, 5.634765625) (-0.0003108159484863281, 5.63671875) (-0.00031299215698242185, 5.638671875) (-0.00031491815185546876, 5.640625) (-0.00031659860229492186, 5.642578125) (-0.00031803955078125, 5.64453125) (-0.000319248046875, 5.646484375) (-0.00032023229980468747, 5.6484375) (-0.0003210014343261719, 5.650390625) (-0.0003215655517578125, 5.65234375) (-0.0003219354248046875, 5.654296875) (-0.0003221226806640625, 5.65625) (-0.00032213934326171873, 5.658203125) (-0.00032199789428710935, 5.66015625) (-0.00032171105957031247, 5.662109375) (-0.00032129168701171875, 5.6640625) (-0.00032075265502929686, 5.666015625) (-0.000320106689453125, 5.66796875) (-0.0003193663330078125, 5.669921875) (-0.0003185438232421875, 5.671875) (-0.0003176510314941406, 5.673828125) (-0.00031669921875, 5.67578125) (-0.00031569918823242185, 5.677734375) (-0.00031466131591796875, 5.6796875) (-0.0003135950622558594, 5.681640625) (-0.00031250936889648436, 5.68359375) (-0.000311412353515625, 5.685546875) (-0.00031031137084960934, 5.6875) (-0.00030921289062499997, 5.689453125) (-0.0003081227111816406, 5.69140625) (-0.00030704565429687497, 5.693359375) (-0.00030598571777343747, 5.6953125) (-0.000304946044921875, 5.697265625) (-0.00030392907714843747, 5.69921875) (-0.000302936279296875, 5.701171875) (-0.0003019683837890625, 5.703125) (-0.00030102536010742187, 5.705078125) (-0.0003001064453125, 5.70703125) (-0.00029921017456054685, 5.708984375) (-0.0002983343505859375, 5.7109375) (-0.0002974761047363281, 5.712890625) (-0.00029663204956054687, 5.71484375) (-0.0002957983093261719, 5.716796875) (-0.00029497055053710937, 5.71875) (-0.00029414404296875, 5.720703125) (-0.0002933137512207031, 5.72265625) (-0.000292474609375, 5.724609375) (-0.00029162139892578124, 5.7265625) (-0.0002907489013671875, 5.728515625) (-0.0002898519897460937, 5.73046875) (-0.00028892575073242186, 5.732421875) (-0.00028796539306640624, 5.734375) (-0.00028696655273437497, 5.736328125) (-0.000285925048828125, 5.73828125) (-0.00028483724975585936, 5.740234375) (-0.0002836997375488281, 5.7421875) (-0.00028250967407226563, 5.744140625) (-0.00028126458740234376, 5.74609375) (-0.00027996258544921875, 5.748046875) (-0.0002786022338867187, 5.75) (-0.0002771825256347656, 5.751953125) (-0.00027570306396484376, 5.75390625) (-0.000274163818359375, 5.755859375) (-0.0002725653076171875, 5.7578125) (-0.00027090841674804687, 5.759765625) (-0.0002691946105957031, 5.76171875) (-0.0002674257507324219, 5.763671875) (-0.00026560394287109375, 5.765625) (-0.0002637318420410156, 5.767578125) (-0.0002618123474121094, 5.76953125) (-0.0002598486938476562, 5.771484375) (-0.000257844482421875, 5.7734375) (-0.00025580358886718746, 5.775390625) (-0.00025372998046875, 5.77734375) (-0.0002516279296875, 5.779296875) (-0.0002495018310546875, 5.78125) (-0.00024735617065429685, 5.783203125) (-0.00024519537353515623, 5.78515625) (-0.00024302401733398437, 5.787109375) (-0.00024084654235839842, 5.7890625) (-0.00023866716003417967, 5.791015625) (-0.00023649002075195311, 5.79296875) (-0.00023431901550292967, 5.794921875) (-0.00023215777587890624, 5.796875) (-0.00023000962829589842, 5.798828125) (-0.00022787760925292968, 5.80078125) (-0.00022576438903808591, 5.802734375) (-0.00022367237854003906, 5.8046875) (-0.0002216035919189453, 5.806640625) (-0.00021955975341796875, 5.80859375) (-0.00021754225158691405, 5.810546875) (-0.00021555223083496094, 5.8125) (-0.00021359042358398437, 5.814453125) (-0.0002116573486328125, 5.81640625) (-0.00020975323486328124, 5.818359375) (-0.0002078781280517578, 5.8203125) (-0.0002060317687988281, 5.822265625) (-0.00020421371459960938, 5.82421875) (-0.00020242333984374998, 5.826171875) (-0.0002006597900390625, 5.828125) (-0.00019892216491699218, 5.830078125) (-0.00019720935058593748, 5.83203125) (-0.00019552014160156248, 5.833984375) (-0.0001938533172607422, 5.8359375) (-0.00019220742797851562, 5.837890625) (-0.0001905811309814453, 5.83984375) (-0.00018897293090820312, 5.841796875) (-0.00018738134765624998, 5.84375) (-0.00018580488586425782, 5.845703125) (-0.0001842421112060547, 5.84765625) (-0.00018269158935546874, 5.849609375) (-0.00018115199279785155, 5.8515625) (-0.00017962210083007812, 5.853515625) (-0.000178100830078125, 5.85546875) (-0.00017658724975585935, 5.857421875) (-0.00017508058166503906, 5.859375) (-0.00017358018493652343, 5.861328125) (-0.00017208561706542967, 5.86328125) (-0.0001705965576171875, 5.865234375) (-0.00016911276245117188, 5.8671875) (-0.0001676341094970703, 5.869140625) (-0.00016616050720214844, 5.87109375) (-0.00016469190979003905, 5.873046875) (-0.00016322824096679688, 5.875) (-0.00016176950073242186, 5.876953125) (-0.00016031556701660154, 5.87890625) (-0.00015886627197265625, 5.880859375) (-0.00015742140197753905, 5.8828125) (-0.00015598062133789062, 5.884765625) (-0.00015454345703125, 5.88671875) (-0.00015310939025878906, 5.888671875) (-0.00015167773437499998, 5.890625) (-0.00015024766540527344, 5.892578125) (-0.00014881823730468748, 5.89453125) (-0.00014738838195800782, 5.896484375) (-0.00014595695495605467, 5.8984375) (-0.00014452267456054686, 5.900390625) (-0.00014308421325683594, 5.90234375) (-0.0001416400909423828, 5.904296875) (-0.00014018881225585938, 5.90625) (-0.00013872886657714844, 5.908203125) (-0.00013725860595703124, 5.91015625) (-0.00013577639770507812, 5.912109375) (-0.00013428048706054686, 5.9140625) (-0.0001327690734863281, 5.916015625) (-0.0001312403564453125, 5.91796875) (-0.0001296923828125, 5.919921875) (-0.00012812330627441407, 5.921875) (-0.00012653116607666014, 5.923828125) (-0.00012491409301757813, 5.92578125) (-0.00012327027893066405, 5.927734375) (-0.0001215979766845703, 5.9296875) (-0.00011989565277099609, 5.931640625) (-0.00011816194152832031, 5.93359375) (-0.0001163957061767578, 5.935546875) (-0.00011459608459472655, 5.9375) (-0.00011276253509521484, 5.939453125) (-0.00011089485931396483, 5.94140625) (-0.00010899327087402344, 5.943359375) (-0.00010705841064453124, 5.9453125) (-0.00010509133911132812, 5.947265625) (-0.00010309352111816405, 5.94921875) (-0.00010106687927246094, 5.951171875) (-9.901367950439453e-05, 5.953125) (-9.693659210205077e-05, 5.955078125) (-9.483860778808594e-05, 5.95703125) (-9.272296142578124e-05, 5.958984375) (-9.05931396484375e-05, 5.9609375) (-8.845282745361328e-05, 5.962890625) (-8.630587005615234e-05, 5.96484375) (-8.415631103515625e-05, 5.966796875) (-8.200827026367187e-05, 5.96875) (-7.986591339111328e-05, 5.970703125) (-7.773341369628905e-05, 5.97265625) (-7.561499023437499e-05, 5.974609375) (-7.351473999023437e-05, 5.9765625) (-7.143679809570312e-05, 5.978515625) (-6.93850860595703e-05, 5.98046875) (-6.736337280273437e-05, 5.982421875) (-6.537523651123047e-05, 5.984375) (-6.342409133911133e-05, 5.986328125) (-6.151310729980468e-05, 5.98828125) (-5.964518356323242e-05, 5.990234375) (-5.782288742065429e-05, 5.9921875) (-5.6048374176025385e-05, 5.994140625) (-5.4323375701904295e-05, 5.99609375) (-5.2649200439453125e-05, 5.998046875) (-5.102653503417968e-05, 6.0) (-4.9455413818359374e-05, 6.001953125) (-4.79351692199707e-05, 6.00390625) (-4.646433258056641e-05, 6.005859375) (-4.504064178466797e-05, 6.0078125) (-4.366102600097656e-05, 6.009765625) (-4.23216552734375e-05, 6.01171875) (-4.1017955780029297e-05, 6.013671875) (-3.974474716186523e-05, 6.015625) (-3.8496280670166015e-05, 6.017578125) (-3.726636505126953e-05, 6.01953125) (-3.6048484802246096e-05, 6.021484375) (-3.4835750579833984e-05, 6.0234375) (-3.362103271484375e-05, 6.025390625) (-3.239679336547852e-05, 6.02734375) (-3.115510559082031e-05, 6.029296875) (-2.9887884140014646e-05, 6.03125) (-2.8586944580078123e-05, 6.033203125) (-2.72440128326416e-05, 6.03515625) (-2.58508243560791e-05, 6.037109375) (-2.4399194717407225e-05, 6.0390625) (-2.288100814819336e-05, 6.041015625) (-2.1288551330566406e-05, 6.04296875) (-1.9614614486694335e-05, 6.044921875) (-1.7852231979370115e-05, 6.046875) (-1.5994735717773436e-05, 6.048828125) (-1.4035862922668456e-05, 6.05078125) (-1.1969727516174316e-05, 6.052734375) (-9.790960311889648e-06, 6.0546875) (-7.4948372840881346e-06, 6.056640625) (-5.077155590057372e-06, 6.05859375) (-2.534276008605957e-06, 6.060546875) (1.364932060241699e-07, 6.0625) (2.9368252754211425e-06, 6.064453125) (5.867278099060058e-06, 6.06640625) (8.927199363708496e-06, 6.068359375) (1.2114561080932617e-05, 6.0703125) (1.542599868774414e-05, 6.072265625) (1.885686492919922e-05, 6.07421875) (2.240126419067383e-05, 6.076171875) (2.6052534103393552e-05, 6.078125) (2.9803382873535155e-05, 6.080078125) (3.364603424072265e-05, 6.08203125) (3.7572296142578124e-05, 6.083984375) (4.157381820678711e-05, 6.0859375) (4.564215850830078e-05, 6.087890625) (4.976827239990234e-05, 6.08984375) (5.394251251220703e-05, 6.091796875) (5.8154254913330074e-05, 6.09375) (6.239187622070312e-05, 6.095703125) (6.664252471923828e-05, 6.09765625) (7.089230346679687e-05, 6.099609375) (7.512663269042968e-05, 6.1015625) (7.933033752441406e-05, 6.103515625) (8.348896026611327e-05, 6.10546875) (8.758905029296874e-05, 6.107421875) (9.161769866943359e-05, 6.109375) (9.556243133544921e-05, 6.111328125) (9.941240692138671e-05, 6.11328125) (0.00010315848541259765, 6.115234375) (0.00010679090118408203, 6.1171875) (0.0001103001480102539, 6.119140625) (0.00011367452239990234, 6.12109375) (0.00011689974975585937, 6.123046875) (0.00011996461486816405, 6.125) (0.00012286151885986327, 6.126953125) (0.00012558660888671875, 6.12890625) (0.00012814016723632811, 6.130859375) (0.00013052749633789062, 6.1328125) (0.00013275761413574218, 6.134765625) (0.00013484283447265624, 6.13671875) (0.00013679855346679688, 6.138671875) (0.0001386365509033203, 6.140625) (0.00014036524963378905, 6.142578125) (0.00014198580932617188, 6.14453125) (0.00014349143981933594, 6.146484375) (0.00014487570190429688, 6.1484375) (0.00014613140869140624, 6.150390625) (0.00014725924682617187, 6.15234375) (0.00014826959228515625, 6.154296875) (0.000149170654296875, 6.15625) (0.00014996710205078125, 6.158203125) (0.00015066288757324217, 6.16015625) (0.00015126019287109376, 6.162109375) (0.00015175302124023437, 6.1640625) (0.00015213121032714842, 6.166015625) (0.00015237496948242187, 6.16796875) (0.000152452880859375, 6.169921875) (0.00015234559631347656, 6.171875) (0.00015204588317871092, 6.173828125) (0.0001515616455078125, 6.17578125) (0.00015091923522949217, 6.177734375) (0.00015014955139160157, 6.1796875) (0.00014928662109375, 6.181640625) (0.00014835917663574217, 6.18359375) (0.00014738809204101563, 6.185546875) (0.00014639389038085938, 6.1875) (0.00014539952087402343, 6.189453125) (0.00014442323303222657, 6.19140625) (0.00014347836303710938, 6.193359375) (0.00014259027099609373, 6.1953125) (0.00014179144287109375, 6.197265625) (0.00014113095092773437, 6.19921875) (0.00014067953491210937, 6.201171875) (0.00014049423217773438, 6.203125) (0.00014061508178710936, 6.205078125) (0.00014107061767578124, 6.20703125) (0.00014187158203125, 6.208984375) (0.00014301629638671873, 6.2109375) (0.00014449690246582032, 6.212890625) (0.00014629721069335936, 6.21484375) (0.00014839151000976562, 6.216796875) (0.00015075653076171875, 6.21875) (0.0001533675537109375, 6.220703125) (0.00015620285034179687, 6.22265625) (0.0001592486572265625, 6.224609375) (0.0001624737854003906, 6.2265625) (0.0001658292236328125, 6.228515625) (0.0001692477569580078, 6.23046875) (0.00017263781738281248, 6.232421875) (0.00017590757751464843, 6.234375) (0.00017897412109375, 6.236328125) (0.00018175003051757813, 6.23828125) (0.0001841492004394531, 6.240234375) (0.0001861080322265625, 6.2421875) (0.000187578125, 6.244140625) (0.000188532958984375, 6.24609375) (0.0001889753723144531, 6.248046875) (0.00018890753173828124, 6.25) (0.00018833209228515625, 6.251953125) (0.00018725856018066405, 6.25390625) (0.00018569540405273438, 6.255859375) (0.00018366903686523436, 6.2578125) (0.00018123106384277342, 6.259765625) (0.00017844493103027343, 6.26171875) (0.00017538600158691406, 6.263671875) (0.0001721446838378906, 6.265625) (0.00016881278991699218, 6.267578125) (0.00016549272155761717, 6.26953125) (0.0001622899475097656, 6.271484375) (0.0001592627258300781, 6.2734375) (0.00015642974853515625, 6.275390625) (0.00015377355957031248, 6.27734375) (0.00015124493408203124, 6.279296875) (0.00014880596923828125, 6.28125) (0.0001464124298095703, 6.283203125) (0.00014398927307128904, 6.28515625) (0.0001414412384033203, 6.287109375) (0.00013865573120117186, 6.2890625) (0.00013551339721679686, 6.291015625) (0.00013193231201171873, 6.29296875) (0.00012781517028808594, 6.294921875) (0.00012297601318359374, 6.296875) (0.00011726371765136718, 6.298828125) (0.0001106313018798828, 6.30078125) (0.00010319402313232421, 6.302734375) (9.531313323974609e-05, 6.3046875) (8.743582916259765e-05, 6.306640625) (7.993601989746093e-05, 6.30859375) (7.325096893310547e-05, 6.310546875) (6.798788452148438e-05, 6.3125) (6.464971160888672e-05, 6.314453125) (6.343946075439453e-05, 6.31640625) (6.403907012939453e-05, 6.318359375) (6.556929016113281e-05, 6.3203125) (6.706732177734374e-05, 6.322265625) (6.763960266113281e-05, 6.32421875) (6.635123443603515e-05, 6.326171875) (6.208383178710937e-05, 6.328125) (5.371815490722656e-05, 6.330078125) (4.198581695556641e-05, 6.33203125) (2.987841033935547e-05, 6.333984375) (2.056809616088867e-05, 6.3359375) (1.7562992095947263e-05, 6.337890625) (2.0771135330200193e-05, 6.33984375) (2.596182632446289e-05, 6.341796875) (3.341934204101562e-05, 6.34375) (4.606108093261719e-05, 6.345703125) (7.172106170654296e-05, 6.34765625) (0.0001246572723388672, 6.349609375) (0.0002100914306640625, 6.3515625) (0.0003259569091796875, 6.353515625) (0.00046475753784179687, 6.35546875) (0.000609379638671875, 6.357421875) (0.00074762548828125, 6.359375) (0.0008710090942382812, 6.361328125) (0.0009687929687499999, 6.36328125) (0.00103347607421875, 6.365234375) (0.001053870849609375, 6.3671875) (0.0010180684204101561, 6.369140625) (0.0009236064453125, 6.37109375) (0.000776111572265625, 6.373046875) (0.0005919726562499999, 6.375) (0.00039664062499999997, 6.376953125) (0.00021362220764160154, 6.37890625) (6.035317230224609e-05, 6.380859375) (-5.443624114990234e-05, 6.3828125) (-0.00013360684204101562, 6.384765625) 