(-5.4768581390380854e-05, 0.0) (-5.3636837005615235e-05, 0.001953125) (-5.2532775878906246e-05, 0.00390625) (-5.145890808105469e-05, 0.005859375) (-5.0417236328125e-05, 0.0078125) (-4.940914916992187e-05, 0.009765625) (-4.843547821044922e-05, 0.01171875) (-4.7496459960937496e-05, 0.013671875) (-4.659176254272461e-05, 0.015625) (-4.572050857543945e-05, 0.017578125) (-4.488129425048828e-05, 0.01953125) (-4.407220077514648e-05, 0.021484375) (-4.329082107543945e-05, 0.0234375) (-4.253421401977539e-05, 0.025390625) (-4.179902267456054e-05, 0.02734375) (-4.1081451416015626e-05, 0.029296875) (-4.037732696533203e-05, 0.03125) (-3.9682125091552734e-05, 0.033203125) (-3.899094772338867e-05, 0.03515625) (-3.829860687255859e-05, 0.037109375) (-3.759960174560547e-05, 0.0390625) (-3.6888210296630854e-05, 0.041015625) (-3.6158493041992184e-05, 0.04296875) (-3.540431594848633e-05, 0.044921875) (-3.4619384765624996e-05, 0.046875) (-3.379727935791015e-05, 0.048828125) (-3.29315185546875e-05, 0.05078125) (-3.201564025878906e-05, 0.052734375) (-3.104325103759765e-05, 0.0546875) (-3.000809860229492e-05, 0.056640625) (-2.8904129028320312e-05, 0.05859375) (-2.7725578308105467e-05, 0.060546875) (-2.6467052459716796e-05, 0.0625) (-2.512361907958984e-05, 0.064453125) (-2.369086456298828e-05, 0.06640625) (-2.2164936065673826e-05, 0.068359375) (-2.0542598724365233e-05, 0.0703125) (-1.8821247100830078e-05, 0.072265625) (-1.6998981475830078e-05, 0.07421875) (-1.5074605941772461e-05, 0.076171875) (-1.3047671318054198e-05, 0.078125) (-1.0918457984924315e-05, 0.080078125) (-8.687965393066406e-06, 0.08203125) (-6.3579349517822264e-06, 0.083984375) (-3.930850744247436e-06, 0.0859375) (-1.409953474998474e-06, 0.087890625) (1.2007780075073242e-06, 0.08984375) (3.896653175354003e-06, 0.091796875) (6.672298431396484e-06, 0.09375) (9.521666526794433e-06, 0.095703125) (1.2438045501708983e-05, 0.09765625) (1.5414073944091795e-05, 0.099609375) (1.84417724609375e-05, 0.1015625) (2.1512584686279295e-05, 0.103515625) (2.461741256713867e-05, 0.10546875) (2.7746622085571286e-05, 0.107421875) (3.089008331298828e-05, 0.109375) (3.403718566894531e-05, 0.111328125) (3.717690277099609e-05, 0.11328125) (4.0297851562499996e-05, 0.115234375) (4.338837814331055e-05, 0.1171875) (4.643661117553711e-05, 0.119140625) (4.943055725097656e-05, 0.12109375) (5.23581657409668e-05, 0.123046875) (5.520743560791015e-05, 0.125) (5.79665412902832e-05, 0.126953125) (6.062389755249023e-05, 0.12890625) (6.316826629638672e-05, 0.130859375) (6.558879089355469e-05, 0.1328125) (6.787506103515624e-05, 0.134765625) (7.001720428466796e-05, 0.13671875) (7.200592803955078e-05, 0.138671875) (7.383256530761719e-05, 0.140625) (7.548908996582031e-05, 0.142578125) (7.696819305419921e-05, 0.14453125) (7.826324462890625e-05, 0.146484375) (7.936837005615234e-05, 0.1484375) (8.027849578857421e-05, 0.150390625) (8.098934173583984e-05, 0.15234375) (8.149742126464843e-05, 0.154296875) (8.180005645751952e-05, 0.15625) (8.189537048339844e-05, 0.158203125) (8.178227233886718e-05, 0.16015625) (8.146050262451171e-05, 0.162109375) (8.093061828613281e-05, 0.1640625) (8.019396209716796e-05, 0.166015625) (7.925267028808593e-05, 0.16796875) (7.810964965820312e-05, 0.169921875) (7.676862335205078e-05, 0.171875) (7.523410034179687e-05, 0.173828125) (7.351137542724609e-05, 0.17578125) (7.160650634765625e-05, 0.177734375) (6.952624511718749e-05, 0.1796875) (6.727796936035156e-05, 0.181640625) (6.486965179443359e-05, 0.18359375) (6.230983734130858e-05, 0.185546875) (5.96075210571289e-05, 0.1875) (5.6772071838378905e-05, 0.189453125) (5.381316375732422e-05, 0.19140625) (5.074070739746093e-05, 0.193359375) (4.756483459472656e-05, 0.1953125) (4.4295814514160155e-05, 0.197265625) (4.0944053649902344e-05, 0.19921875) (3.751997375488281e-05, 0.201171875) (3.403403854370117e-05, 0.203125) (3.049666595458984e-05, 0.205078125) (2.6918243408203124e-05, 0.20703125) (2.3309082031249997e-05, 0.208984375) (1.967937660217285e-05, 0.2109375) (1.6039169311523437e-05, 0.212890625) (1.2398326873779296e-05, 0.21484375) (8.76652717590332e-06, 0.216796875) (5.153264045715332e-06, 0.21875) (1.5678373575210571e-06, 0.220703125) (-1.9806604385375976e-06, 0.22265625) (-5.4833607673645015e-06, 0.224609375) (-8.931644439697266e-06, 0.2265625) (-1.2317155838012695e-05, 0.228515625) (-1.5631820678710936e-05, 0.23046875) (-1.886787986755371e-05, 0.232421875) (-2.2017927169799804e-05, 0.234375) (-2.507495880126953e-05, 0.236328125) (-2.8032394409179685e-05, 0.23828125) (-3.088410568237305e-05, 0.240234375) (-3.362440490722656e-05, 0.2421875) (-3.6248039245605466e-05, 0.244140625) (-3.875019073486328e-05, 0.24609375) (-4.112646484375e-05, 0.248046875) (-4.337290573120117e-05, 0.25) (-4.5485931396484375e-05, 0.251953125) (-4.746235656738281e-05, 0.25390625) (-4.929937362670898e-05, 0.255859375) (-5.099457550048828e-05, 0.2578125) (-5.2545959472656246e-05, 0.259765625) (-5.3951950073242184e-05, 0.26171875) (-5.521138763427734e-05, 0.263671875) (-5.632354736328125e-05, 0.265625) (-5.728810882568359e-05, 0.267578125) (-5.810520172119141e-05, 0.26953125) (-5.8775382995605464e-05, 0.271484375) (-5.9299659729003906e-05, 0.2734375) (-5.967947387695312e-05, 0.275390625) (-5.9916706085205075e-05, 0.27734375) (-6.0013702392578124e-05, 0.279296875) (-5.997328186035156e-05, 0.28125) (-5.979874801635742e-05, 0.283203125) (-5.949393463134765e-05, 0.28515625) (-5.906316757202148e-05, 0.287109375) (-5.8511283874511716e-05, 0.2890625) (-5.7843578338623047e-05, 0.291015625) (-5.7065788269042965e-05, 0.29296875) (-5.61840591430664e-05, 0.294921875) (-5.520490264892578e-05, 0.296875) (-5.413515472412109e-05, 0.298828125) (-5.298188018798828e-05, 0.30078125) (-5.1752349853515626e-05, 0.302734375) (-5.045400238037109e-05, 0.3046875) (-4.9094413757324214e-05, 0.306640625) (-4.768130493164062e-05, 0.30859375) (-4.622249984741211e-05, 0.310546875) (-4.4725868225097654e-05, 0.3125) (-4.31993293762207e-05, 0.314453125) (-4.1650802612304685e-05, 0.31640625) (-4.0088134765624997e-05, 0.318359375) (-3.851910400390625e-05, 0.3203125) (-3.69512939453125e-05, 0.322265625) (-3.5392066955566406e-05, 0.32421875) (-3.3848514556884763e-05, 0.326171875) (-3.232742309570312e-05, 0.328125) (-3.083517074584961e-05, 0.330078125) (-2.9377782821655274e-05, 0.33203125) (-2.796089172363281e-05, 0.333984375) (-2.6589656829833984e-05, 0.3359375) (-2.5268789291381835e-05, 0.337890625) (-2.400248336791992e-05, 0.33984375) (-2.2794357299804688e-05, 0.341796875) (-2.164746856689453e-05, 0.34375) (-2.0564260482788085e-05, 0.345703125) (-1.9546449661254882e-05, 0.34765625) (-1.859500503540039e-05, 0.349609375) (-1.7710197448730466e-05, 0.3515625) (-1.6891578674316406e-05, 0.353515625) (-1.613800048828125e-05, 0.35546875) (-1.5447650909423827e-05, 0.357421875) (-1.4818025588989257e-05, 0.359375) (-1.4245985031127928e-05, 0.361328125) (-1.372790813446045e-05, 0.36328125) (-1.3259744644165038e-05, 0.365234375) (-1.2837038040161132e-05, 0.3671875) (-1.2454941749572754e-05, 0.369140625) (-1.210822868347168e-05, 0.37109375) (-1.1791353225708007e-05, 0.373046875) (-1.149851894378662e-05, 0.375) (-1.1223668098449706e-05, 0.376953125) (-1.0960597038269043e-05, 0.37890625) (-1.0703003883361817e-05, 0.380859375) (-1.0444503784179687e-05, 0.3828125) (-1.0178797721862792e-05, 0.384765625) (-9.899734497070312e-06, 0.38671875) (-9.601282119750977e-06, 0.388671875) (-9.277708053588867e-06, 0.390625) (-8.923690795898437e-06, 0.392578125) (-8.53412628173828e-06, 0.39453125) (-8.104223251342774e-06, 0.396484375) (-7.629673957824706e-06, 0.3984375) (-7.106495380401611e-06, 0.400390625) (-6.531200408935546e-06, 0.40234375) (-5.9009413719177246e-06, 0.404296875) (-5.213355064392089e-06, 0.40625) (-4.466674327850342e-06, 0.408203125) (-3.6600680351257324e-06, 0.41015625) (-2.7936530113220215e-06, 0.412109375) (-1.8683080673217773e-06, 0.4140625) (-8.857447504997253e-07, 0.416015625) (1.5137282013893127e-07, 0.41796875) (1.2394893169403075e-06, 0.419921875) (2.3737928867340085e-06, 0.421875) (3.548197031021118e-06, 0.423828125) (4.755937099456787e-06, 0.42578125) (5.98965835571289e-06, 0.427734375) (7.24121618270874e-06, 0.4296875) (8.501698493957519e-06, 0.431640625) (9.761695861816406e-06, 0.43359375) (1.1011365890502929e-05, 0.435546875) (1.2240997314453125e-05, 0.4375) (1.3441251754760741e-05, 0.439453125) (1.460257339477539e-05, 0.44140625) (1.5715341567993163e-05, 0.443359375) (1.6769569396972655e-05, 0.4453125) (1.7754894256591798e-05, 0.447265625) (1.8661062240600586e-05, 0.44921875) (1.947763442993164e-05, 0.451171875) (2.0194482803344725e-05, 0.453125) (2.0802453994750974e-05, 0.455078125) (2.129286193847656e-05, 0.45703125) (2.1657466888427733e-05, 0.458984375) (2.1890235900878905e-05, 0.4609375) (2.1987064361572266e-05, 0.462890625) (2.1943983078002927e-05, 0.46484375) (2.1758474349975586e-05, 0.466796875) (2.1426631927490232e-05, 0.46875) (2.094122505187988e-05, 0.470703125) (2.0297456741333006e-05, 0.47265625) (1.949258041381836e-05, 0.474609375) (1.852492332458496e-05, 0.4765625) (1.739715576171875e-05, 0.478515625) (1.611599540710449e-05, 0.48046875) (1.469148826599121e-05, 0.482421875) (1.3140684127807616e-05, 0.484375) (1.1487460136413574e-05, 0.486328125) (9.755757331848144e-06, 0.48828125) (7.971284866333007e-06, 0.490234375) (6.157882213592529e-06, 0.4921875) (4.333434581756592e-06, 0.494140625) (2.5192670822143552e-06, 0.49609375) (7.362066507339477e-07, 0.498046875) (-9.92729663848877e-07, 0.5) (-2.6341733932495114e-06, 0.501953125) (-4.158562660217285e-06, 0.50390625) (-5.540454864501953e-06, 0.505859375) (-6.753870010375976e-06, 0.5078125) (-7.782716751098632e-06, 0.509765625) (-8.62501049041748e-06, 0.51171875) (-9.288849830627441e-06, 0.513671875) (-9.80151653289795e-06, 0.515625) (-1.0214956283569335e-05, 0.517578125) (-1.0576848983764648e-05, 0.51953125) (-1.0933535575866698e-05, 0.521484375) (-1.1338287353515625e-05, 0.5234375) (-1.1835245132446288e-05, 0.525390625) (-1.2479701042175293e-05, 0.52734375) (-1.3334634780883788e-05, 0.529296875) (-1.4458551406860352e-05, 0.53125) (-1.5911134719848633e-05, 0.533203125) (-1.7762901306152342e-05, 0.53515625) (-2.0106395721435546e-05, 0.537109375) (-2.3000045776367187e-05, 0.5390625) (-2.6439620971679685e-05, 0.541015625) (-3.0338523864746094e-05, 0.54296875) (-3.450088882446289e-05, 0.544921875) (-3.8697753906249995e-05, 0.546875) (-4.272027206420898e-05, 0.548828125) (-4.63201675415039e-05, 0.55078125) (-4.9183959960937496e-05, 0.552734375) (-5.108528137207031e-05, 0.5546875) (-5.1919208526611325e-05, 0.556640625) (-5.1745182037353514e-05, 0.55859375) (-5.092723846435547e-05, 0.560546875) (-4.984902572631836e-05, 0.5625) (-4.870961380004882e-05, 0.564453125) (-4.776984405517578e-05, 0.56640625) (-4.7302951812744136e-05, 0.568359375) (-4.73896484375e-05, 0.5703125) (-4.804785919189453e-05, 0.572265625) (-4.89710578918457e-05, 0.57421875) (-4.925589752197265e-05, 0.576171875) (-4.7942890167236326e-05, 0.578125) (-4.426451110839844e-05, 0.580078125) (-3.727191162109375e-05, 0.58203125) (-2.602358818054199e-05, 0.583984375) (-9.756568908691406e-06, 0.5859375) (1.2398645401000976e-05, 0.587890625) (4.090402603149414e-05, 0.58984375) (7.547454833984375e-05, 0.591796875) (0.00011558612823486328, 0.59375) (0.00016062991333007812, 0.595703125) (0.0002087661437988281, 0.59765625) (0.0002569954528808594, 0.599609375) (0.0003025233154296875, 0.6015625) (0.00034217623901367184, 0.603515625) (0.00037514196777343746, 0.60546875) (0.00040350762939453123, 0.607421875) (0.00042687890624999996, 0.609375) (0.0004426989135742187, 0.611328125) (0.0004451766967773437, 0.61328125) (0.00042526885986328124, 0.615234375) (0.00037885263061523435, 0.6171875) (0.00030780001831054687, 0.619140625) (0.00021732894897460937, 0.62109375) (0.00011584460449218749, 0.623046875) (1.099317169189453e-05, 0.625) (-9.193374633789062e-05, 0.626953125) (-0.0001855972900390625, 0.62890625) (-0.0002611044311523437, 0.630859375) (-0.00031336553955078124, 0.6328125) (-0.0003409510192871094, 0.634765625) (-0.00034833444213867187, 0.63671875) (-0.00034578338623046873, 0.638671875) (-0.00033984786987304686, 0.640625) (-0.0003327091674804687, 0.642578125) (-0.0003239694213867187, 0.64453125) (-0.00031011407470703126, 0.646484375) (-0.00029036209106445313, 0.6484375) (-0.00026678704833984373, 0.650390625) (-0.0002413316192626953, 0.65234375) (-0.00021613983154296874, 0.654296875) (-0.00019242910766601563, 0.65625) (-0.0001705827178955078, 0.658203125) (-0.0001509526672363281, 0.66015625) (-0.0001338193359375, 0.662109375) (-0.00011914701843261718, 0.6640625) (-0.00010656632232666015, 0.666015625) (-9.593115234375e-05, 0.66796875) (-8.725822448730468e-05, 0.669921875) (-8.028429412841797e-05, 0.671875) (-7.451011657714844e-05, 0.673828125) (-6.927278900146484e-05, 0.67578125) (-6.379008483886718e-05, 0.677734375) (-5.7745903015136716e-05, 0.6796875) (-5.1293022155761714e-05, 0.681640625) (-4.452661895751953e-05, 0.68359375) (-3.7555763244628905e-05, 0.685546875) (-3.061032867431641e-05, 0.6875) (-2.3972280502319336e-05, 0.689453125) (-1.8109537124633788e-05, 0.69140625) (-1.3590480804443358e-05, 0.693359375) (-1.0647768020629883e-05, 0.6953125) (-9.224478721618651e-06, 0.697265625) (-9.186105728149414e-06, 0.69921875) (-1.02889404296875e-05, 0.701171875) (-1.229709243774414e-05, 0.703125) (-1.5002756118774413e-05, 0.705078125) (-1.8083774566650388e-05, 0.70703125) (-2.116737174987793e-05, 0.708984375) (-2.400040054321289e-05, 0.7109375) (-2.6417896270751953e-05, 0.712890625) (-2.832474899291992e-05, 0.71484375) (-2.971711158752441e-05, 0.716796875) (-3.058119583129883e-05, 0.71875) (-3.089509963989258e-05, 0.720703125) (-3.06856575012207e-05, 0.72265625) (-2.999929618835449e-05, 0.724609375) (-2.8892837524414063e-05, 0.7265625) (-2.744083786010742e-05, 0.728515625) (-2.5709518432617186e-05, 0.73046875) (-2.3752807617187497e-05, 0.732421875) (-2.16263427734375e-05, 0.734375) (-1.9379310607910156e-05, 0.736328125) (-1.7064456939697266e-05, 0.73828125) (-1.4749694824218749e-05, 0.740234375) (-1.2503148078918456e-05, 0.7421875) (-1.039443302154541e-05, 0.744140625) (-8.486074447631836e-06, 0.74609375) (-6.8148756027221676e-06, 0.748046875) (-5.408987045288086e-06, 0.75) (-4.297498226165771e-06, 0.751953125) (-3.496025800704956e-06, 0.75390625) (-3.0011317729949948e-06, 0.755859375) (-2.7826647758483885e-06, 0.7578125) (-2.778012275695801e-06, 0.759765625) (-2.9207143783569334e-06, 0.76171875) (-3.1607341766357422e-06, 0.763671875) (-3.458938121795654e-06, 0.765625) (-3.788818359375e-06, 0.767578125) (-4.123381614685058e-06, 0.76953125) (-4.421088218688965e-06, 0.771484375) (-4.636077880859375e-06, 0.7734375) (-4.725947380065918e-06, 0.775390625) (-4.654645919799805e-06, 0.77734375) (-4.393032550811767e-06, 0.779296875) (-3.909807443618774e-06, 0.78125) (-3.159759759902954e-06, 0.783203125) (-2.0989303588867187e-06, 0.78515625) (-7.096496224403381e-07, 0.787109375) (9.935640096664429e-07, 0.7890625) (2.9646332263946534e-06, 0.791015625) (5.155589580535888e-06, 0.79296875) (7.536684989929199e-06, 0.794921875) (1.0087891578674316e-05, 0.796875) (1.2793861389160156e-05, 0.798828125) (1.5633485794067382e-05, 0.80078125) (1.8577770233154297e-05, 0.802734375) (2.1598892211914063e-05, 0.8046875) (2.4677738189697264e-05, 0.806640625) (2.779941940307617e-05, 0.80859375) (3.094179153442383e-05, 0.810546875) (3.4072265625e-05, 0.8125) (3.714164352416992e-05, 0.814453125) (4.0097564697265625e-05, 0.81640625) (4.2908378601074214e-05, 0.818359375) (4.55665283203125e-05, 0.8203125) (4.808366775512695e-05, 0.822265625) (5.0469074249267576e-05, 0.82421875) (5.272003555297851e-05, 0.826171875) (5.482852935791015e-05, 0.828125) (5.67870864868164e-05, 0.830078125) (5.859504699707031e-05, 0.83203125) (6.025177383422851e-05, 0.833984375) (6.174945831298828e-05, 0.8359375) (6.307106781005859e-05, 0.837890625) (6.419827270507812e-05, 0.83984375) (6.512149047851562e-05, 0.841796875) (6.584049224853515e-05, 0.84375) (6.636517333984375e-05, 0.845703125) (6.670680999755859e-05, 0.84765625) (6.686778259277343e-05, 0.849609375) (6.68416976928711e-05, 0.8515625) (6.661680603027344e-05, 0.853515625) (6.618521881103516e-05, 0.85546875) (6.55443878173828e-05, 0.857421875) (6.469385528564453e-05, 0.859375) (6.363265228271484e-05, 0.861328125) (6.235799789428711e-05, 0.86328125) (6.0871055603027344e-05, 0.865234375) (5.918049621582031e-05, 0.8671875) (5.730170822143554e-05, 0.869140625) (5.525129699707031e-05, 0.87109375) (5.304328155517578e-05, 0.873046875) (5.068955230712891e-05, 0.875) (4.820054626464844e-05, 0.876953125) (4.558866119384766e-05, 0.87890625) (4.286919403076172e-05, 0.880859375) (4.005894470214843e-05, 0.8828125) (3.7175399780273436e-05, 0.884765625) (3.4235511779785156e-05, 0.88671875) (3.125631523132324e-05, 0.888671875) (2.825564956665039e-05, 0.890625) (2.5252315521240233e-05, 0.892578125) (2.226534080505371e-05, 0.89453125) (1.931224250793457e-05, 0.896484375) (1.6408315658569334e-05, 0.8984375) (1.3567140579223632e-05, 0.900390625) (1.0802109718322753e-05, 0.90234375) (8.12669563293457e-06, 0.904296875) (5.554014682769775e-06, 0.90625) (3.0964529514312745e-06, 0.908203125) (7.651014328002929e-07, 0.91015625) (-1.4295988082885741e-06, 0.912109375) (-3.4773199558258057e-06, 0.9140625) (-5.368099212646484e-06, 0.916015625) (-7.092914581298828e-06, 0.91796875) (-8.644036293029785e-06, 0.919921875) (-1.0015095710754394e-05, 0.921875) (-1.1200889587402343e-05, 0.923828125) (-1.2197060585021971e-05, 0.92578125) (-1.3000275611877441e-05, 0.927734375) (-1.3608365058898925e-05, 0.9296875) (-1.4020377159118652e-05, 0.931640625) (-1.4236557960510254e-05, 0.93359375) (-1.4258090019226073e-05, 0.935546875) (-1.4087014198303223e-05, 0.9375) (-1.3726322174072265e-05, 0.939453125) (-1.3179956436157226e-05, 0.94140625) (-1.245280647277832e-05, 0.943359375) (-1.155068016052246e-05, 0.9453125) (-1.0480030059814453e-05, 0.947265625) (-9.247846603393555e-06, 0.94921875) (-7.861769676208496e-06, 0.951171875) (-6.329977989196777e-06, 0.953125) (-4.661076068878173e-06, 0.955078125) (-2.864035367965698e-06, 0.95703125) (-9.478823542594909e-07, 0.958984375) (1.0783960819244384e-06, 0.9609375) (3.205625057220459e-06, 0.962890625) (5.424487113952636e-06, 0.96484375) (7.725594520568848e-06, 0.966796875) (1.009947395324707e-05, 0.96875) (1.2536815643310547e-05, 0.970703125) (1.5028522491455077e-05, 0.97265625) (1.7565464019775388e-05, 0.974609375) (2.013854217529297e-05, 0.9765625) (2.2738813400268552e-05, 0.978515625) (2.5357528686523435e-05, 0.98046875) (2.7986427307128906e-05, 0.982421875) (3.061785888671875e-05, 0.984375) (3.3244491577148435e-05, 0.986328125) (3.5859317779541014e-05, 0.98828125) (3.8455806732177734e-05, 0.990234375) (4.102777862548828e-05, 0.9921875) (4.356970977783203e-05, 0.994140625) (4.607688522338867e-05, 0.99609375) (4.854492950439453e-05, 0.998046875) (5.096984100341797e-05, 1.0) (5.334815216064453e-05, 1.001953125) (5.5676837921142574e-05, 1.00390625) (5.79534912109375e-05, 1.005859375) (6.017641448974609e-05, 1.0078125) (6.234403991699218e-05, 1.009765625) (6.445478057861328e-05, 1.01171875) (6.650741577148437e-05, 1.013671875) (6.85009307861328e-05, 1.015625) (7.043424987792968e-05, 1.017578125) (7.230644989013671e-05, 1.01953125) (7.411607360839844e-05, 1.021484375) (7.586099243164062e-05, 1.0234375) (7.753921508789062e-05, 1.025390625) (7.914888000488282e-05, 1.02734375) (8.068800354003905e-05, 1.029296875) (8.215478515624999e-05, 1.03125) (8.354742431640625e-05, 1.033203125) (8.4864013671875e-05, 1.03515625) (8.610343933105469e-05, 1.037109375) (8.726548767089843e-05, 1.0390625) (8.83498306274414e-05, 1.041015625) (8.935643768310546e-05, 1.04296875) (9.028477478027343e-05, 1.044921875) (9.113342285156249e-05, 1.046875) (9.190111541748046e-05, 1.048828125) (9.258698272705077e-05, 1.05078125) (9.319029235839843e-05, 1.052734375) (9.371093749999999e-05, 1.0546875) (9.414926147460938e-05, 1.056640625) (9.45049819946289e-05, 1.05859375) (9.477981567382812e-05, 1.060546875) (9.49782485961914e-05, 1.0625) (9.510413360595703e-05, 1.064453125) (9.516110229492187e-05, 1.06640625) (9.515031433105468e-05, 1.068359375) (9.506884765624999e-05, 1.0703125) (9.491558837890625e-05, 1.072265625) (9.469309997558594e-05, 1.07421875) (9.440557861328125e-05, 1.076171875) (9.405920410156249e-05, 1.078125) (9.366400146484375e-05, 1.080078125) (9.32327423095703e-05, 1.08203125) (9.278407287597656e-05, 1.083984375) (9.234455871582031e-05, 1.0859375) (9.193955230712891e-05, 1.087890625) (9.15926284790039e-05, 1.08984375) (9.132390594482421e-05, 1.091796875) (9.114574432373047e-05, 1.09375) (9.107211303710937e-05, 1.095703125) (9.112160491943359e-05, 1.09765625) (9.13156509399414e-05, 1.099609375) (9.168082427978515e-05, 1.1015625) (9.224114990234375e-05, 1.103515625) (9.300924682617188e-05, 1.10546875) (9.399210357666015e-05, 1.107421875) (9.519654846191406e-05, 1.109375) (9.661304473876952e-05, 1.111328125) (9.821367645263672e-05, 1.11328125) (9.995603942871094e-05, 1.115234375) (0.00010176988983154297, 1.1171875) (0.00010358642578125, 1.119140625) (0.00010535745239257813, 1.12109375) (0.00010703054046630859, 1.123046875) (0.00010855453491210938, 1.125) (0.00010987899017333984, 1.126953125) (0.00011093556213378906, 1.12890625) (0.00011165233612060546, 1.130859375) (0.00011197979736328124, 1.1328125) (0.00011185883331298827, 1.134765625) (0.00011121644592285156, 1.13671875) (0.00011004002380371094, 1.138671875) (0.00010835411071777344, 1.140625) (0.00010625883483886718, 1.142578125) (0.00010399142456054688, 1.14453125) (0.0001018145751953125, 1.146484375) (9.997816467285156e-05, 1.1484375) (9.875892639160155e-05, 1.150390625) (9.843844604492187e-05, 1.15234375) (9.919875335693359e-05, 1.154296875) (0.00010113661193847656, 1.15625) (0.00010415610504150391, 1.158203125) (0.000107871337890625, 1.16015625) (0.0001118741455078125, 1.162109375) (0.00011578783416748046, 1.1640625) (0.00011929908752441405, 1.166015625) (0.0001221495132446289, 1.16796875) (0.00012400445556640625, 1.169921875) (0.00012473385620117186, 1.171875) (0.00012466139221191405, 1.173828125) (0.00012443836212158203, 1.17578125) (0.0001256610107421875, 1.177734375) (0.00012996473693847657, 1.1796875) (0.00013764971923828123, 1.181640625) (0.00014971368408203125, 1.18359375) (0.000166010986328125, 1.185546875) (0.00018592672729492187, 1.1875) (0.00021228302001953124, 1.189453125) (0.00024564050292968747, 1.19140625) (0.000285665283203125, 1.193359375) (0.00033274969482421875, 1.1953125) (0.0003819200744628906, 1.197265625) (0.00043015539550781247, 1.19921875) (0.00047758282470703123, 1.201171875) (0.0005212789306640624, 1.203125) (0.0005593350830078124, 1.205078125) (0.0005863032226562499, 1.20703125) (0.000591159912109375, 1.208984375) (0.0005671550903320312, 1.2109375) (0.00051261767578125, 1.212890625) (0.00043189837646484373, 1.21484375) (0.00033503701782226563, 1.216796875) (0.00022987870788574217, 1.21875) (0.0001221111297607422, 1.220703125) (1.6208351135253904e-05, 1.22265625) (-8.193510437011718e-05, 1.224609375) (-0.000162306884765625, 1.2265625) (-0.00021778427124023438, 1.228515625) (-0.00024586793518066406, 1.23046875) (-0.00025047918701171873, 1.232421875) (-0.0002424505615234375, 1.234375) (-0.00022954002380371093, 1.236328125) (-0.00021537564086914062, 1.23828125) (-0.00020065005493164061, 1.240234375) (-0.0001822647705078125, 1.2421875) (-0.00015989805603027342, 1.244140625) (-0.00013593093872070312, 1.24609375) (-0.00011274091339111328, 1.248046875) (-9.339212799072265e-05, 1.25) (-7.91042022705078e-05, 1.251953125) (-6.920106506347656e-05, 1.25390625) (-6.280929565429688e-05, 1.255859375) (-5.8758209228515626e-05, 1.2578125) (-5.577667999267578e-05, 1.259765625) (-5.288764572143555e-05, 1.26171875) (-4.918099212646484e-05, 1.263671875) (-4.366492462158203e-05, 1.265625) (-3.590877532958984e-05, 1.267578125) (-2.6005165100097655e-05, 1.26953125) (-1.4227871894836424e-05, 1.271484375) (-1.1204490661621094e-06, 1.2734375) (1.2630643844604492e-05, 1.275390625) (2.6411773681640623e-05, 1.27734375) (3.957195281982422e-05, 1.279296875) (5.136898803710937e-05, 1.28125) (6.138069915771484e-05, 1.283203125) (6.947613525390624e-05, 1.28515625) (7.56264190673828e-05, 1.287109375) (7.999276733398437e-05, 1.2890625) (8.279502868652344e-05, 1.291015625) (8.422572326660156e-05, 1.29296875) (8.456169128417969e-05, 1.294921875) (8.414102935791015e-05, 1.296875) (8.319528198242187e-05, 1.298828125) (8.1867431640625e-05, 1.30078125) (8.026466369628906e-05, 1.302734375) (7.843788909912109e-05, 1.3046875) (7.645306396484375e-05, 1.306640625) (7.440269470214844e-05, 1.30859375) (7.23438720703125e-05, 1.310546875) (7.030928802490234e-05, 1.3125) (6.834449768066406e-05, 1.314453125) (6.64976577758789e-05, 1.31640625) (6.482633209228515e-05, 1.318359375) (6.339633178710937e-05, 1.3203125) (6.223434448242188e-05, 1.322265625) (6.133061981201172e-05, 1.32421875) (6.066304016113281e-05, 1.326171875) (6.019750595092773e-05, 1.328125) (5.990288543701172e-05, 1.330078125) (5.975879669189453e-05, 1.33203125) (5.9737091064453125e-05, 1.333984375) (5.979891204833984e-05, 1.3359375) (5.9909572601318355e-05, 1.337890625) (6.0037178039550775e-05, 1.33984375) (6.0157516479492183e-05, 1.341796875) (6.025663375854492e-05, 1.34375) (6.031378173828125e-05, 1.345703125) (6.030172729492187e-05, 1.34765625) (6.0189697265624995e-05, 1.349609375) (5.994566345214843e-05, 1.3515625) (5.95562629699707e-05, 1.353515625) (5.902602386474609e-05, 1.35546875) (5.836687088012695e-05, 1.357421875) (5.7597869873046876e-05, 1.359375) (5.673920059204101e-05, 1.361328125) (5.580986785888672e-05, 1.36328125) (5.483579635620117e-05, 1.365234375) (5.384897232055664e-05, 1.3671875) (5.287719345092773e-05, 1.369140625) (5.194527435302734e-05, 1.37109375) (5.1074012756347654e-05, 1.373046875) (5.0279125213623044e-05, 1.375) (4.958128356933593e-05, 1.376953125) (4.900506210327148e-05, 1.37890625) (4.85761604309082e-05, 1.380859375) (4.83212890625e-05, 1.3828125) (4.825886535644531e-05, 1.384765625) (4.839907455444336e-05, 1.38671875) (4.8748779296875e-05, 1.388671875) (4.931069183349609e-05, 1.390625) (5.0084239959716794e-05, 1.392578125) (5.106643676757812e-05, 1.39453125) (5.224890899658203e-05, 1.396484375) (5.361871337890625e-05, 1.3984375) (5.51644287109375e-05, 1.400390625) (5.687544250488281e-05, 1.40234375) (5.874109268188476e-05, 1.404296875) (6.075124359130859e-05, 1.40625) (6.289262390136718e-05, 1.408203125) (6.514932250976562e-05, 1.41015625) (6.750445556640625e-05, 1.412109375) (6.993971252441406e-05, 1.4140625) (7.243681335449218e-05, 1.416015625) (7.497774505615234e-05, 1.41796875) (7.754380798339844e-05, 1.419921875) (8.011597442626953e-05, 1.421875) (8.267581176757811e-05, 1.423828125) (8.520514678955078e-05, 1.42578125) (8.768676757812499e-05, 1.427734375) (9.010453033447266e-05, 1.4296875) (9.244160461425781e-05, 1.431640625) (9.468080139160155e-05, 1.43359375) (9.680529022216796e-05, 1.435546875) (9.87984161376953e-05, 1.4375) (0.0001006444091796875, 1.439453125) (0.00010232853698730468, 1.44140625) (0.0001038366241455078, 1.443359375) (0.00010515531921386718, 1.4453125) (0.000106272705078125, 1.447265625) (0.00010717826080322266, 1.44921875) (0.00010786283111572265, 1.451171875) (0.00010831875610351562, 1.453125) (0.00010853948211669921, 1.455078125) (0.00010851966857910156, 1.45703125) (0.00010825536346435547, 1.458984375) (0.00010774378967285155, 1.4609375) (0.00010698348236083984, 1.462890625) (0.00010597426605224608, 1.46484375) (0.00010471719360351562, 1.466796875) (0.000103214599609375, 1.46875) (0.00010147016143798828, 1.470703125) (9.948876953125e-05, 1.47265625) (9.727651977539062e-05, 1.474609375) (9.484070587158203e-05, 1.4765625) (9.218971252441406e-05, 1.478515625) (8.933291625976561e-05, 1.48046875) (8.628067016601563e-05, 1.482421875) (8.30440902709961e-05, 1.484375) (7.9635009765625e-05, 1.486328125) (7.606582641601563e-05, 1.48828125) (7.234941101074219e-05, 1.490234375) (6.849901580810547e-05, 1.4921875) (6.452819061279297e-05, 1.494140625) (6.045070648193359e-05, 1.49609375) (5.6280380249023434e-05, 1.498046875) (5.203103637695312e-05, 1.5) (4.771639633178711e-05, 1.501953125) (4.335004043579101e-05, 1.50390625) (3.8945304870605466e-05, 1.505859375) (3.451523208618164e-05, 1.5078125) (3.0072359085083008e-05, 1.509765625) (2.5628698348999023e-05, 1.51171875) (2.119572830200195e-05, 1.513671875) (1.6784368515014647e-05, 1.515625) (1.2404964447021484e-05, 1.517578125) (8.067268371582031e-06, 1.51953125) (3.780384302139282e-06, 1.521484375) (-4.4723677635192867e-07, 1.5234375) (-4.607773780822754e-06, 1.525390625) (-8.694071769714354e-06, 1.52734375) (-1.2699678421020508e-05, 1.529296875) (-1.6618865966796876e-05, 1.53125) (-2.0446695327758787e-05, 1.533203125) (-2.4178998947143552e-05, 1.53515625) (-2.781238555908203e-05, 1.537109375) (-3.134423828125e-05, 1.5390625) (-3.4772666931152345e-05, 1.541015625) (-3.809650421142578e-05, 1.54296875) (-4.1315208435058594e-05, 1.544921875) (-4.442889022827148e-05, 1.546875) (-4.743817901611328e-05, 1.548828125) (-5.034419631958008e-05, 1.55078125) (-5.3148502349853515e-05, 1.552734375) (-5.5853038787841796e-05, 1.5546875) (-5.846006774902343e-05, 1.556640625) (-6.0972099304199214e-05, 1.55859375) (-6.339184570312499e-05, 1.560546875) (-6.572215270996093e-05, 1.5625) (-6.796591186523437e-05, 1.564453125) (-7.012605285644531e-05, 1.56640625) (-7.220545959472657e-05, 1.568359375) (-7.42068862915039e-05, 1.5703125) (-7.613296508789062e-05, 1.572265625) (-7.798612976074219e-05, 1.57421875) (-7.976868438720702e-05, 1.576171875) (-8.148269653320312e-05, 1.578125) (-8.313005065917969e-05, 1.580078125) (-8.471246337890625e-05, 1.58203125) (-8.623141479492188e-05, 1.583984375) (-8.768824768066406e-05, 1.5859375) (-8.908409881591796e-05, 1.587890625) (-9.041993713378906e-05, 1.58984375) (-9.169645690917968e-05, 1.591796875) (-9.291419219970702e-05, 1.59375) (-9.407342529296875e-05, 1.595703125) (-9.517420196533203e-05, 1.59765625) (-9.621633911132812e-05, 1.599609375) (-9.719944763183594e-05, 1.6015625) (-9.812291717529297e-05, 1.603515625) (-9.89859619140625e-05, 1.60546875) (-9.978768920898437e-05, 1.607421875) (-0.00010052704620361328, 1.609375) (-0.00010120294952392578, 1.611328125) (-0.00010181424713134765, 1.61328125) (-0.00010235978698730468, 1.615234375) (-0.00010283839416503906, 1.6171875) (-0.00010324898529052733, 1.619140625) (-0.00010359056091308593, 1.62109375) (-0.00010386224365234375, 1.623046875) (-0.00010406331634521484, 1.625) (-0.00010419326782226562, 1.626953125) (-0.00010425182342529296, 1.62890625) (-0.00010423904418945312, 1.630859375) (-0.00010415530395507812, 1.6328125) (-0.0001040013656616211, 1.634765625) (-0.00010377831268310546, 1.63671875) (-0.00010348760986328125, 1.638671875) (-0.00010313107299804687, 1.640625) (-0.00010271084594726562, 1.642578125) (-0.00010222946166992187, 1.64453125) (-0.0001016896743774414, 1.646484375) (-0.00010109456634521484, 1.6484375) (-0.00010044744110107421, 1.650390625) (-9.975183868408202e-05, 1.65234375) (-9.901156616210937e-05, 1.654296875) (-9.823065185546875e-05, 1.65625) (-9.741331481933594e-05, 1.658203125) (-9.656398773193359e-05, 1.66015625) (-9.568727111816406e-05, 1.662109375) (-9.478791046142577e-05, 1.6640625) (-9.387077331542968e-05, 1.666015625) (-9.294084167480468e-05, 1.66796875) (-9.20031509399414e-05, 1.669921875) (-9.106274414062499e-05, 1.671875) (-9.012464141845702e-05, 1.673828125) (-8.919384002685546e-05, 1.67578125) (-8.827528381347656e-05, 1.677734375) (-8.737385559082031e-05, 1.6796875) (-8.649431610107422e-05, 1.681640625) (-8.564129638671875e-05, 1.68359375) (-8.481925201416015e-05, 1.685546875) (-8.403246307373047e-05, 1.6875) (-8.328496551513671e-05, 1.689453125) (-8.258050537109374e-05, 1.69140625) (-8.192252349853515e-05, 1.693359375) (-8.131405639648437e-05, 1.6953125) (-8.075773620605468e-05, 1.697265625) (-8.025582122802734e-05, 1.69921875) (-7.981010437011719e-05, 1.701171875) (-7.942196655273437e-05, 1.703125) (-7.909236907958984e-05, 1.705078125) (-7.882183837890625e-05, 1.70703125) (-7.86104736328125e-05, 1.708984375) (-7.84580078125e-05, 1.7109375) (-7.836377716064452e-05, 1.712890625) (-7.832673645019531e-05, 1.71484375) (-7.834544372558593e-05, 1.716796875) (-7.84180908203125e-05, 1.71875) (-7.854249572753906e-05, 1.720703125) (-7.871613311767577e-05, 1.72265625) (-7.893614196777344e-05, 1.724609375) (-7.919938659667969e-05, 1.7265625) (-7.950241088867187e-05, 1.728515625) (-7.984153747558594e-05, 1.73046875) (-8.021284484863281e-05, 1.732421875) (-8.061226654052734e-05, 1.734375) (-8.103553771972656e-05, 1.736328125) (-8.147828674316407e-05, 1.73828125) (-8.193600463867188e-05, 1.740234375) (-8.240408325195312e-05, 1.7421875) (-8.287783050537108e-05, 1.744140625) (-8.335250854492187e-05, 1.74609375) (-8.382333374023437e-05, 1.748046875) (-8.428552246093749e-05, 1.75) (-8.473435974121093e-05, 1.751953125) (-8.51651611328125e-05, 1.75390625) (-8.557341003417968e-05, 1.755859375) (-8.59547119140625e-05, 1.7578125) (-8.630488586425781e-05, 1.759765625) (-8.661998748779297e-05, 1.76171875) (-8.689627075195313e-05, 1.763671875) (-8.713026428222656e-05, 1.765625) (-8.731876373291016e-05, 1.767578125) (-8.745885467529297e-05, 1.76953125) (-8.754791259765625e-05, 1.771484375) (-8.758360290527344e-05, 1.7734375) (-8.756396484375e-05, 1.775390625) (-8.748731994628906e-05, 1.77734375) (-8.735240173339843e-05, 1.779296875) (-8.715825653076172e-05, 1.78125) (-8.690431213378906e-05, 1.783203125) (-8.659036254882813e-05, 1.78515625) (-8.621656036376952e-05, 1.787109375) (-8.578337860107421e-05, 1.7890625) (-8.529162597656249e-05, 1.791015625) (-8.4742431640625e-05, 1.79296875) (-8.413720703125e-05, 1.794921875) (-8.347767639160156e-05, 1.796875) (-8.276580047607422e-05, 1.798828125) (-8.200379943847655e-05, 1.80078125) (-8.119412994384766e-05, 1.802734375) (-8.033946228027343e-05, 1.8046875) (-7.944268798828124e-05, 1.806640625) (-7.850689697265625e-05, 1.80859375) (-7.753532409667968e-05, 1.810546875) (-7.653138732910156e-05, 1.8125) (-7.549861907958984e-05, 1.814453125) (-7.444065856933593e-05, 1.81640625) (-7.336125183105468e-05, 1.818359375) (-7.22642364501953e-05, 1.8203125) (-7.115353393554687e-05, 1.822265625) (-7.003305053710937e-05, 1.82421875) (-6.890681457519531e-05, 1.826171875) (-6.777882385253906e-05, 1.828125) (-6.665309143066407e-05, 1.830078125) (-6.553366088867187e-05, 1.83203125) (-6.442452239990234e-05, 1.833984375) (-6.332962799072266e-05, 1.8359375) (-6.225284576416015e-05, 1.837890625) (-6.11979866027832e-05, 1.83984375) (-6.0168754577636713e-05, 1.841796875) (-5.9168773651123044e-05, 1.84375) (-5.820153045654296e-05, 1.845703125) (-5.727041244506836e-05, 1.84765625) (-5.6378673553466793e-05, 1.849609375) (-5.552948760986328e-05, 1.8515625) (-5.472584533691406e-05, 1.853515625) (-5.397061157226562e-05, 1.85546875) (-5.326649856567383e-05, 1.857421875) (-5.261602783203125e-05, 1.859375) (-5.2021556854248045e-05, 1.861328125) (-5.148527908325195e-05, 1.86328125) (-5.100925827026367e-05, 1.865234375) (-5.059540557861328e-05, 1.8671875) (-5.024549865722656e-05, 1.869140625) (-4.996115493774414e-05, 1.87109375) (-4.974382400512695e-05, 1.873046875) (-4.959480285644531e-05, 1.875) (-4.95152473449707e-05, 1.876953125) (-4.950611877441406e-05, 1.87890625) (-4.956812286376953e-05, 1.880859375) (-4.970169448852539e-05, 1.8828125) (-4.990701293945312e-05, 1.884765625) (-5.018399047851562e-05, 1.88671875) (-5.053230667114258e-05, 1.888671875) (-5.0951332092285157e-05, 1.890625) (-5.144015502929687e-05, 1.892578125) (-5.1997570037841796e-05, 1.89453125) (-5.262205505371094e-05, 1.896484375) (-5.331187438964843e-05, 1.8984375) (-5.4064941406249995e-05, 1.900390625) (-5.487880325317383e-05, 1.90234375) (-5.575070571899414e-05, 1.904296875) (-5.667751693725586e-05, 1.90625) (-5.765569305419922e-05, 1.908203125) (-5.868134307861328e-05, 1.91015625) (-5.9750167846679686e-05, 1.912109375) (-6.085750579833984e-05, 1.9140625) (-6.19984130859375e-05, 1.916015625) (-6.316769409179687e-05, 1.91796875) (-6.435985565185547e-05, 1.919921875) (-6.556927490234375e-05, 1.921875) (-6.679013061523437e-05, 1.923828125) (-6.801640319824219e-05, 1.92578125) (-6.924186706542968e-05, 1.927734375) (-7.046011352539063e-05, 1.9296875) (-7.166455078124999e-05, 1.931640625) (-7.284847259521484e-05, 1.93359375) (-7.400518798828125e-05, 1.935546875) (-7.512786102294922e-05, 1.9375) (-7.620968627929687e-05, 1.939453125) (-7.724395751953125e-05, 1.94140625) (-7.822418975830078e-05, 1.943359375) (-7.91441421508789e-05, 1.9453125) (-7.999787139892578e-05, 1.947265625) (-8.07796630859375e-05, 1.94921875) (-8.148400878906249e-05, 1.951171875) (-8.21058349609375e-05, 1.953125) (-8.264045715332031e-05, 1.955078125) (-8.308361053466796e-05, 1.95703125) (-8.343150329589843e-05, 1.958984375) (-8.368075561523438e-05, 1.9609375) (-8.382865142822265e-05, 1.962890625) (-8.387338256835937e-05, 1.96484375) (-8.381371307373047e-05, 1.966796875) (-8.36491470336914e-05, 1.96875) (-8.338018035888671e-05, 1.970703125) (-8.300820922851562e-05, 1.97265625) (-8.253574371337891e-05, 1.974609375) (-8.196667480468749e-05, 1.9765625) (-8.13055419921875e-05, 1.978515625) (-8.055756378173828e-05, 1.98046875) (-7.972898864746093e-05, 1.982421875) (-7.882668304443359e-05, 1.984375) (-7.785800170898437e-05, 1.986328125) (-7.683092498779297e-05, 1.98828125) (-7.575337219238281e-05, 1.990234375) (-7.463306427001952e-05, 1.9921875) (-7.34781265258789e-05, 1.994140625) (-7.229681396484374e-05, 1.99609375) (-7.109780883789063e-05, 1.998046875) (-6.98905029296875e-05, 2.0) (-6.868460083007812e-05, 2.001953125) (-6.748989105224608e-05, 2.00390625) (-6.631571960449218e-05, 2.005859375) (-6.51709976196289e-05, 2.0078125) (-6.406403350830078e-05, 2.009765625) (-6.300282287597656e-05, 2.01171875) (-6.199401473999024e-05, 2.013671875) (-6.104206466674805e-05, 2.015625) (-6.0150951385498043e-05, 2.017578125) (-5.932407760620117e-05, 2.01953125) (-5.856694412231445e-05, 2.021484375) (-5.7887611389160155e-05, 2.0234375) (-5.729302215576172e-05, 2.025390625) (-5.678828811645508e-05, 2.02734375) (-5.63755874633789e-05, 2.029296875) (-5.6054481506347654e-05, 2.03125) (-5.582038116455078e-05, 2.033203125) (-5.566407775878906e-05, 2.03515625) (-5.557088851928711e-05, 2.037109375) (-5.5519168853759766e-05, 2.0390625) (-5.5485607147216795e-05, 2.041015625) (-5.5445968627929684e-05, 2.04296875) (-5.5378368377685544e-05, 2.044921875) (-5.526469039916992e-05, 2.046875) (-5.508641815185547e-05, 2.048828125) (-5.482482147216797e-05, 2.05078125) (-5.445391845703125e-05, 2.052734375) (-5.39433479309082e-05, 2.0546875) (-5.326431274414062e-05, 2.056640625) (-5.239125823974609e-05, 2.05859375) (-5.130797958374023e-05, 2.060546875) (-5.0002128601074214e-05, 2.0625) (-4.8473285675048824e-05, 2.064453125) (-4.67388801574707e-05, 2.06640625) (-4.483425903320312e-05, 2.068359375) (-4.281694030761719e-05, 2.0703125) (-4.0748382568359374e-05, 2.072265625) (-3.868404388427734e-05, 2.07421875) (-3.667842102050781e-05, 2.076171875) (-3.479225540161133e-05, 2.078125) (-3.308831024169922e-05, 2.080078125) (-3.163417053222656e-05, 2.08203125) (-3.0506799697875976e-05, 2.083984375) (-2.9761390686035154e-05, 2.0859375) (-2.94698486328125e-05, 2.087890625) (-2.97302131652832e-05, 2.08984375) (-3.0573139190673825e-05, 2.091796875) (-3.198214340209961e-05, 2.09375) (-3.385979461669922e-05, 2.095703125) (-3.597427749633789e-05, 2.09765625) (-3.808285140991211e-05, 2.099609375) (-3.996917724609375e-05, 2.1015625) (-4.134393692016602e-05, 2.103515625) (-4.1885406494140624e-05, 2.10546875) (-4.1391101837158204e-05, 2.107421875) (-3.972256469726562e-05, 2.109375) (-3.697069931030273e-05, 2.111328125) (-3.3547878265380854e-05, 2.11328125) (-2.9776407241821287e-05, 2.115234375) (-2.5915485382080078e-05, 2.1171875) (-2.2287220001220704e-05, 2.119140625) (-1.911992835998535e-05, 2.12109375) (-1.656790351867676e-05, 2.123046875) (-1.4692442893981934e-05, 2.125) (-1.3090378761291503e-05, 2.126953125) (-1.0851840972900391e-05, 2.12890625) (-7.103259563446044e-06, 2.130859375) (-8.813602924346923e-07, 2.1328125) (8.886730194091797e-06, 2.134765625) (2.3062702178955077e-05, 2.13671875) (4.259041213989258e-05, 2.138671875) (6.839900970458984e-05, 2.140625) (0.00010081336975097655, 2.142578125) (0.00013957968139648438, 2.14453125) (0.00018426666259765625, 2.146484375) (0.00023304331970214843, 2.1484375) (0.00028285760498046874, 2.150390625) (0.00033108569335937497, 2.15234375) (0.00037434326171875, 2.154296875) (0.00041126254272460936, 2.15625) (0.00044344332885742183, 2.158203125) (0.0004697401123046875, 2.16015625) (0.0004879562072753906, 2.162109375) (0.0004931572875976562, 2.1640625) (0.00047559692382812495, 2.166015625) (0.0004307633056640625, 2.16796875) (0.00035862582397460936, 2.169921875) (0.00026221728515625, 2.171875) (0.00015184890747070313, 2.173828125) (3.703776168823242e-05, 2.17578125) (-7.36444320678711e-05, 2.177734375) (-0.00016897793579101562, 2.1796875) (-0.0002413292999267578, 2.181640625) (-0.0002866905212402344, 2.18359375) (-0.0003047451171875, 2.185546875) (-0.0003024404602050781, 2.1875) (-0.0002890375061035156, 2.189453125) (-0.00027059350585937497, 2.19140625) (-0.00025082312011718747, 2.193359375) (-0.00022960574340820313, 2.1953125) (-0.00020449063110351563, 2.197265625) (-0.0001762471923828125, 2.19921875) (-0.00014705551147460938, 2.201171875) (-0.0001195351333618164, 2.203125) (-9.732689666748047e-05, 2.205078125) (-8.171060943603515e-05, 2.20703125) (-7.201712036132812e-05, 2.208984375) (-6.743109893798828e-05, 2.2109375) (-6.64636001586914e-05, 2.212890625) (-6.744747924804687e-05, 2.21484375) (-6.938462066650391e-05, 2.216796875) (-7.110736083984375e-05, 2.21875) (-7.106625366210937e-05, 2.220703125) (-6.852079772949218e-05, 2.22265625) (-6.332751846313477e-05, 2.224609375) (-5.5574100494384766e-05, 2.2265625) (-4.5907875061035154e-05, 2.228515625) (-3.515522003173828e-05, 2.23046875) (-2.389144515991211e-05, 2.232421875) (-1.2845915794372558e-05, 2.234375) (-2.9335877895355224e-06, 2.236328125) (5.390369415283203e-06, 2.23828125) (1.1955331802368163e-05, 2.240234375) (1.672300148010254e-05, 2.2421875) (1.9988666534423828e-05, 2.244140625) (2.207468032836914e-05, 2.24609375) (2.3214366912841796e-05, 2.248046875) (2.3761875152587888e-05, 2.25) (2.4095138549804688e-05, 2.251953125) (2.442368698120117e-05, 2.25390625) (2.4887231826782225e-05, 2.255859375) (2.5583694458007812e-05, 2.2578125) (2.653136444091797e-05, 2.259765625) (2.7787586212158202e-05, 2.26171875) (2.9431102752685544e-05, 2.263671875) (3.147360229492187e-05, 2.265625) (3.390802001953125e-05, 2.267578125) (3.672965240478516e-05, 2.26953125) (3.9919155120849605e-05, 2.271484375) (4.346362686157226e-05, 2.2734375) (4.7339916229248045e-05, 2.275390625) (5.149365615844726e-05, 2.27734375) (5.5854972839355464e-05, 2.279296875) (6.035552215576172e-05, 2.28125) (6.49397735595703e-05, 2.283203125) (6.956858825683594e-05, 2.28515625) (7.420932006835937e-05, 2.287109375) (7.881568908691406e-05, 2.2890625) (8.33311767578125e-05, 2.291015625) (8.76948471069336e-05, 2.29296875) (9.184668731689452e-05, 2.294921875) (9.574824523925781e-05, 2.296875) (9.937263488769531e-05, 2.298828125) (0.0001026992950439453, 2.30078125) (0.0001057193603515625, 2.302734375) (0.00010843184661865233, 2.3046875) (0.00011084790802001953, 2.306640625) (0.00011299046325683593, 2.30859375) (0.00011488821411132812, 2.310546875) (0.00011656674194335937, 2.3125) (0.00011804713439941406, 2.314453125) (0.00011934582519531249, 2.31640625) (0.00012047559356689453, 2.318359375) (0.00012145489501953125, 2.3203125) (0.0001223056182861328, 2.322265625) (0.0001230527572631836, 2.32421875) (0.00012372502136230468, 2.326171875) (0.00012434478759765626, 2.328125) (0.0001249302978515625, 2.330078125) (0.0001254990997314453, 2.33203125) (0.00012606515502929687, 2.333984375) (0.00012663967895507812, 2.3359375) (0.00012723120880126952, 2.337890625) (0.00012784345245361327, 2.33984375) (0.00012847653198242188, 2.341796875) (0.00012913308715820312, 2.34375) (0.00012981718444824217, 2.345703125) (0.00013053366088867186, 2.34765625) (0.0001312891845703125, 2.349609375) (0.00013208862304687498, 2.3515625) (0.00013293560791015626, 2.353515625) (0.00013383346557617186, 2.35546875) (0.00013478404235839843, 2.357421875) (0.00013578924560546875, 2.359375) (0.0001368511505126953, 2.361328125) (0.00013797109985351562, 2.36328125) (0.00013914993286132812, 2.365234375) (0.00014038856506347656, 2.3671875) (0.0001416876983642578, 2.369140625) (0.0001430484619140625, 2.37109375) (0.00014447264099121094, 2.373046875) (0.00014596080017089842, 2.375) (0.00014751234436035155, 2.376953125) (0.00014912605285644532, 2.37890625) (0.00015079983520507813, 2.380859375) (0.00015253134155273436, 2.3828125) (0.000154318115234375, 2.384765625) (0.00015615698242187498, 2.38671875) (0.00015804408264160155, 2.388671875) (0.00015997552490234373, 2.390625) (0.0001619473114013672, 2.392578125) (0.00016395529174804686, 2.39453125) (0.000165995361328125, 2.396484375) (0.00016806300354003906, 2.3984375) (0.00017015336608886718, 2.400390625) (0.00017226138305664063, 2.40234375) (0.00017438165283203125, 2.404296875) (0.00017650846862792967, 2.40625) (0.00017863600158691406, 2.408203125) (0.00018075817871093748, 2.41015625) (0.0001828686065673828, 2.412109375) (0.00018496054077148436, 2.4140625) (0.00018702684020996093, 2.416015625) (0.0001890601806640625, 2.41796875) (0.00019105307006835937, 2.419921875) (0.00019299777221679686, 2.421875) (0.00019488630676269531, 2.423828125) (0.00019671051025390624, 2.42578125) (0.0001984619140625, 2.427734375) (0.00020013188171386719, 2.4296875) (0.00020171173095703124, 2.431640625) (0.00020319247436523436, 2.43359375) (0.00020456500244140624, 2.435546875) (0.00020582003784179687, 2.4375) (0.00020694825744628904, 2.439453125) (0.00020794023132324218, 2.44140625) (0.00020878659057617187, 2.443359375) (0.00020947808837890625, 2.4453125) (0.00021000555419921875, 2.447265625) (0.00021036004638671875, 2.44921875) (0.000210532958984375, 2.451171875) (0.00021051583862304686, 2.453125) (0.00021030064392089842, 2.455078125) (0.00020987966918945312, 2.45703125) (0.00020924574279785154, 2.458984375) (0.0002083922119140625, 2.4609375) (0.00020731309509277343, 2.462890625) (0.00020600308227539061, 2.46484375) (0.00020445761108398437, 2.466796875) (0.00020267300415039062, 2.46875) (0.0002006465148925781, 2.470703125) (0.00019837635803222656, 2.47265625) (0.00019586166381835936, 2.474609375) (0.00019310260009765625, 2.4765625) (0.00019010037231445312, 2.478515625) (0.00018685716247558593, 2.48046875) (0.00018337620544433593, 2.482421875) (0.00017966175842285155, 2.484375) (0.00017571902465820312, 2.486328125) (0.0001715543212890625, 2.48828125) (0.00016717503356933593, 2.490234375) (0.0001625895080566406, 2.4921875) (0.0001578072052001953, 2.494140625) (0.00015283859252929687, 2.49609375) (0.000147695068359375, 2.498046875) (0.00014238896179199218, 2.5) (0.00013693350219726562, 2.501953125) (0.0001313428039550781, 2.50390625) (0.00012563175201416016, 2.505859375) (0.00011981590270996093, 2.5078125) (0.00011391143798828125, 2.509765625) (0.00010793508148193359, 2.51171875) (0.00010190406799316406, 2.513671875) (9.583600616455077e-05, 2.515625) (8.974890899658202e-05, 2.517578125) (8.366094207763672e-05, 2.51953125) (7.759022521972656e-05, 2.521484375) (7.155487823486328e-05, 2.5234375) (6.557288360595703e-05, 2.525390625) (5.966191482543945e-05, 2.52734375) (5.383927154541015e-05, 2.529296875) (4.812168121337891e-05, 2.53125) (4.252512741088867e-05, 2.533203125) (3.7064918518066405e-05, 2.53515625) (3.175565719604492e-05, 2.537109375) (2.6611095428466795e-05, 2.5390625) (2.1644073486328125e-05, 2.541015625) (1.6866519927978516e-05, 2.54296875) (1.2289306640625e-05, 2.544921875) (7.922340393066406e-06, 2.546875) (3.774610996246338e-06, 2.548828125) (-1.4604341983795166e-07, 2.55078125) (-3.832948207855225e-06, 2.552734375) (-7.280652046203613e-06, 2.5546875) (-1.0485028266906738e-05, 2.556640625) (-1.344316577911377e-05, 2.55859375) (-1.6153299331665038e-05, 2.560546875) (-1.861491012573242e-05, 2.5625) (-2.0828746795654295e-05, 2.564453125) (-2.279678726196289e-05, 2.56640625) (-2.452237319946289e-05, 2.568359375) (-2.6010009765624998e-05, 2.5703125) (-2.7265193939208982e-05, 2.572265625) (-2.8294677734375e-05, 2.57421875) (-2.9106403350830077e-05, 2.576171875) (-2.9709415435791013e-05, 2.578125) (-3.0114006042480467e-05, 2.580078125) (-3.033136177062988e-05, 2.58203125) (-3.0373264312744138e-05, 2.583984375) (-3.025237464904785e-05, 2.5859375) (-2.998218536376953e-05, 2.587890625) (-2.957666778564453e-05, 2.58984375) (-2.905033493041992e-05, 2.591796875) (-2.841801834106445e-05, 2.59375) (-2.769448471069336e-05, 2.595703125) (-2.689480209350586e-05, 2.59765625) (-2.6034389495849607e-05, 2.599609375) (-2.512860298156738e-05, 2.6015625) (-2.419263458251953e-05, 2.603515625) (-2.324171829223633e-05, 2.60546875) (-2.2290943145751952e-05, 2.607421875) (-2.1355531692504882e-05, 2.609375) (-2.045120048522949e-05, 2.611328125) (-1.9593360900878905e-05, 2.61328125) (-1.8796878814697264e-05, 2.615234375) (-1.8076221466064452e-05, 2.6171875) (-1.7445308685302735e-05, 2.619140625) (-1.691731262207031e-05, 2.62109375) (-1.65047492980957e-05, 2.623046875) (-1.6218849182128904e-05, 2.625) (-1.6068704605102538e-05, 2.626953125) (-1.6062219619750977e-05, 2.62890625) (-1.6206382751464844e-05, 2.630859375) (-1.6507244110107423e-05, 2.6328125) (-1.6970840454101562e-05, 2.634765625) (-1.7602231979370116e-05, 2.63671875) (-1.840421104431152e-05, 2.638671875) (-1.937821388244629e-05, 2.640625) (-2.0524080276489258e-05, 2.642578125) (-2.1839679718017577e-05, 2.64453125) (-2.3322343826293945e-05, 2.646484375) (-2.4966651916503905e-05, 2.6484375) (-2.6762462615966797e-05, 2.650390625) (-2.8698944091796875e-05, 2.65234375) (-3.07655029296875e-05, 2.654296875) (-3.295225143432617e-05, 2.65625) (-3.525411224365234e-05, 2.658203125) (-3.766563034057617e-05, 2.66015625) (-4.017565155029297e-05, 2.662109375) (-4.2772235870361325e-05, 2.6640625) (-4.5441322326660155e-05, 2.666015625) (-4.816318893432617e-05, 2.66796875) (-5.091767883300781e-05, 2.669921875) (-5.3679550170898435e-05, 2.671875) (-5.6413425445556636e-05, 2.673828125) (-5.908413314819336e-05, 2.67578125) (-6.165771484375e-05, 2.677734375) (-6.41014404296875e-05, 2.6796875) (-6.639204406738281e-05, 2.681640625) (-6.850646209716797e-05, 2.68359375) (-7.041434478759765e-05, 2.685546875) (-7.208451843261719e-05, 2.6875) (-7.347813415527343e-05, 2.689453125) (-7.4555908203125e-05, 2.69140625) (-7.529550170898436e-05, 2.693359375) (-7.567645263671874e-05, 2.6953125) (-7.568244171142578e-05, 2.697265625) (-7.531906127929688e-05, 2.69921875) (-7.460148620605468e-05, 2.701171875) (-7.356353759765625e-05, 2.703125) (-7.226815032958983e-05, 2.705078125) (-7.077445983886719e-05, 2.70703125) (-6.913985443115234e-05, 2.708984375) (-6.743635559082031e-05, 2.7109375) (-6.57275390625e-05, 2.712890625) (-6.408270263671875e-05, 2.71484375) (-6.258998107910156e-05, 2.716796875) (-6.131657028198242e-05, 2.71875) (-6.035212707519531e-05, 2.720703125) (-5.981967544555664e-05, 2.72265625) (-5.977108001708984e-05, 2.724609375) (-6.021357727050781e-05, 2.7265625) (-6.108460998535156e-05, 2.728515625) (-6.217471313476563e-05, 2.73046875) (-6.325084686279296e-05, 2.732421875) (-6.409474182128906e-05, 2.734375) (-6.439293670654297e-05, 2.736328125) (-6.380457305908203e-05, 2.73828125) (-6.211950302124023e-05, 2.740234375) (-5.9198986053466795e-05, 2.7421875) (-5.5153434753417964e-05, 2.744140625) (-5.045246124267578e-05, 2.74609375) (-4.554855346679687e-05, 2.748046875) (-4.089690017700195e-05, 2.75) (-3.700395202636719e-05, 2.751953125) (-3.423852157592773e-05, 2.75390625) (-3.283970260620117e-05, 2.755859375) (-3.288752746582031e-05, 2.7578125) (-3.3954460144042966e-05, 2.759765625) (-3.502693176269531e-05, 2.76171875) (-3.494670104980469e-05, 2.763671875) (-3.2269985198974606e-05, 2.765625) (-2.5477428436279296e-05, 2.767578125) (-1.3384866714477539e-05, 2.76953125) (5.341279983520508e-06, 2.771484375) (3.193852043151855e-05, 2.7734375) (6.693830108642577e-05, 2.775390625) (0.00011044975280761719, 2.77734375) (0.00016107742309570312, 2.779296875) (0.0002152000732421875, 2.78125) (0.0002693818359375, 2.783203125) (0.0003204748840332031, 2.78515625) (0.0003673056335449219, 2.787109375) (0.00041266561889648435, 2.7890625) (0.0004571197204589844, 2.791015625) (0.0004976265258789062, 2.79296875) (0.0005273892211914062, 2.794921875) (0.0005330772094726562, 2.796875) (0.0005042381896972656, 2.798828125) (0.00043772055053710934, 2.80078125) (0.0003350861206054687, 2.802734375) (0.0002069466094970703, 2.8046875) (6.757133483886718e-05, 2.806640625) (-7.086056518554688e-05, 2.80859375) (-0.00019422067260742187, 2.810546875) (-0.0002903663330078125, 2.8125) (-0.00035316690063476563, 2.814453125) (-0.0003799301147460937, 2.81640625) (-0.0003743227844238281, 2.818359375) (-0.0003483464660644531, 2.8203125) (-0.00031422918701171874, 2.822265625) (-0.00028284222412109375, 2.82421875) (-0.0002639591064453125, 2.826171875) (-0.00025793170166015623, 2.828125) (-0.0002602710266113281, 2.830078125) (-0.0002653546752929687, 2.83203125) (-0.0002644347229003906, 2.833984375) (-0.0002544396362304687, 2.8359375) (-0.00023745755004882813, 2.837890625) (-0.00021673574829101562, 2.83984375) (-0.000197574462890625, 2.841796875) (-0.00018242617797851562, 2.84375) (-0.00017057073974609374, 2.845703125) (-0.0001609398193359375, 2.84765625) (-0.00015221185302734374, 2.849609375) (-0.00014408863830566406, 2.8515625) (-0.00013696176147460937, 2.853515625) (-0.00013076412963867188, 2.85546875) (-0.0001251923370361328, 2.857421875) (-0.00011976962280273436, 2.859375) (-0.00011422711181640625, 2.861328125) (-0.00010868826293945312, 2.86328125) (-0.00010322077941894531, 2.865234375) (-9.780717468261719e-05, 2.8671875) (-9.253829956054687e-05, 2.869140625) (-8.760232543945312e-05, 2.87109375) (-8.33665542602539e-05, 2.873046875) (-8.03228759765625e-05, 2.875) (-7.867236328125e-05, 2.876953125) (-7.833563232421874e-05, 2.87890625) (-7.918655395507812e-05, 2.880859375) (-8.103136444091796e-05, 2.8828125) (-8.366473388671875e-05, 2.884765625) (-8.691778564453125e-05, 2.88671875) (-9.051313781738281e-05, 2.888671875) (-9.406693267822265e-05, 2.890625) (-9.731221771240234e-05, 2.892578125) (-0.00010007542419433593, 2.89453125) (-0.00010222894287109374, 2.896484375) (-0.0001037512969970703, 2.8984375) (-0.0001046235122680664, 2.900390625) (-0.00010480642700195312, 2.90234375) (-0.00010431983947753905, 2.904296875) (-0.00010321491241455078, 2.90625) (-0.00010154148864746094, 2.908203125) (-9.937165069580077e-05, 2.91015625) (-9.67740478515625e-05, 2.912109375) (-9.37979736328125e-05, 2.9140625) (-9.051146697998047e-05, 2.916015625) (-8.698155212402343e-05, 2.91796875) (-8.327101135253906e-05, 2.919921875) (-7.946661376953124e-05, 2.921875) (-7.564801025390625e-05, 2.923828125) (-7.188735198974609e-05, 2.92578125) (-6.826084899902343e-05, 2.927734375) (-6.481607055664062e-05, 2.9296875) (-6.157997894287109e-05, 2.931640625) (-5.8576774597167965e-05, 2.93359375) (-5.581311798095703e-05, 2.935546875) (-5.328241729736328e-05, 2.9375) (-5.0975772857666014e-05, 2.939453125) (-4.887058639526367e-05, 2.94140625) (-4.6936279296874994e-05, 2.943359375) (-4.514955902099609e-05, 2.9453125) (-4.348597717285156e-05, 2.947265625) (-4.192252349853515e-05, 2.94921875) (-4.0440422058105464e-05, 2.951171875) (-3.9012767791748045e-05, 2.953125) (-3.761098098754882e-05, 2.955078125) (-3.620789337158203e-05, 2.95703125) (-3.477399444580078e-05, 2.958984375) (-3.3288753509521485e-05, 2.9609375) (-3.174007797241211e-05, 2.962890625) (-3.011713600158691e-05, 2.96484375) (-2.841419982910156e-05, 2.966796875) (-2.6630586624145508e-05, 2.96875) (-2.476664352416992e-05, 2.970703125) (-2.282758903503418e-05, 2.97265625) (-2.08230037689209e-05, 2.974609375) (-1.875891876220703e-05, 2.9765625) (-1.663979721069336e-05, 2.978515625) (-1.4470237731933593e-05, 2.98046875) (-1.2252941131591796e-05, 2.982421875) (-9.992494583129883e-06, 2.984375) (-7.695651054382323e-06, 2.986328125) (-5.369208335876464e-06, 2.98828125) (-3.020716905593872e-06, 2.990234375) (-6.577042341232299e-07, 2.9921875) (1.7129271030426025e-06, 2.994140625) (4.0839200019836424e-06, 2.99609375) (6.447601318359375e-06, 2.998046875) (8.796632766723633e-06, 3.0) (1.1123882293701171e-05, 3.001953125) (1.3422754287719727e-05, 3.00390625) (1.5687273025512694e-05, 3.005859375) (1.7910369873046873e-05, 3.0078125) (2.0083915710449217e-05, 3.009765625) (2.2199420928955078e-05, 3.01171875) (2.4247982025146483e-05, 3.013671875) (2.622090721130371e-05, 3.015625) (2.810988616943359e-05, 3.017578125) (2.9906539916992186e-05, 3.01953125) (3.1602556228637693e-05, 3.021484375) (3.319036102294922e-05, 3.0234375) (3.466319274902344e-05, 3.025390625) (3.6014945983886715e-05, 3.02734375) (3.724033355712891e-05, 3.029296875) (3.833452606201172e-05, 3.03125) (3.929306793212891e-05, 3.033203125) (4.0111991882324216e-05, 3.03515625) (4.078786468505859e-05, 3.037109375) (4.1317665100097654e-05, 3.0390625) (4.169880676269531e-05, 3.041015625) (4.192924118041992e-05, 3.04296875) (4.2007282257080074e-05, 3.044921875) (4.193160247802734e-05, 3.046875) (4.1701412200927734e-05, 3.048828125) (4.131644058227539e-05, 3.05078125) (4.0776866912841796e-05, 3.052734375) (4.008341598510742e-05, 3.0546875) (3.923724746704101e-05, 3.056640625) (3.82398681640625e-05, 3.05859375) (3.709322357177734e-05, 3.060546875) (3.579972457885742e-05, 3.0625) (3.436212921142578e-05, 3.064453125) (3.278361511230469e-05, 3.06640625) (3.106772232055664e-05, 3.068359375) (2.9218376159667966e-05, 3.0703125) (2.723995780944824e-05, 3.072265625) (2.5137218475341795e-05, 3.07421875) (2.2915252685546874e-05, 3.076171875) (2.0579519271850586e-05, 3.078125) (1.813571548461914e-05, 3.080078125) (1.558976364135742e-05, 3.08203125) (1.2947778701782226e-05, 3.083984375) (1.0215909957885741e-05, 3.0859375) (7.4003100395202635e-06, 3.087890625) (4.507199764251709e-06, 3.08984375) (1.5428172349929809e-06, 3.091796875) (-1.4865598678588866e-06, 3.09375) (-4.574544429779053e-06, 3.095703125) (-7.714669227600097e-06, 3.09765625) (-1.0900382995605468e-05, 3.099609375) (-1.4124977111816406e-05, 3.1015625) (-1.738161849975586e-05, 3.103515625) (-2.0663402557373044e-05, 3.10546875) (-2.3963321685791016e-05, 3.107421875) (-2.7274295806884765e-05, 3.109375) (-3.05892219543457e-05, 3.111328125) (-3.3900932312011715e-05, 3.11328125) (-3.720223999023437e-05, 3.115234375) (-4.048594665527343e-05, 3.1171875) (-4.3744850158691404e-05, 3.119140625) (-4.697171401977539e-05, 3.12109375) (-5.015936660766601e-05, 3.123046875) (-5.330068969726562e-05, 3.125) (-5.638869476318359e-05, 3.126953125) (-5.94166145324707e-05, 3.12890625) (-6.237786483764649e-05, 3.130859375) (-6.526615905761718e-05, 3.1328125) (-6.807555389404296e-05, 3.134765625) (-7.080039978027343e-05, 3.13671875) (-7.343545532226563e-05, 3.138671875) (-7.597581481933594e-05, 3.140625) (-7.841693878173828e-05, 3.142578125) (-8.075465393066406e-05, 3.14453125) (-8.298509216308594e-05, 3.146484375) (-8.510478973388672e-05, 3.1484375) (-8.711062622070313e-05, 3.150390625) (-8.899989318847656e-05, 3.15234375) (-9.077028656005859e-05, 3.154296875) (-9.241995239257812e-05, 3.15625) (-9.394744873046874e-05, 3.158203125) (-9.535183715820313e-05, 3.16015625) (-9.663259887695312e-05, 3.162109375) (-9.778971862792969e-05, 3.1640625) (-9.882360839843749e-05, 3.166015625) (-9.973513793945312e-05, 3.16796875) (-0.00010052556610107421, 3.169921875) (-0.0001011966323852539, 3.171875) (-0.00010175051116943358, 3.173828125) (-0.00010218981170654297, 3.17578125) (-0.00010251756286621094, 3.177734375) (-0.00010273725128173827, 3.1796875) (-0.00010285274505615234, 3.181640625) (-0.00010286832427978514, 3.18359375) (-0.00010278858184814453, 3.185546875) (-0.00010261842346191405, 3.1875) (-0.00010236297607421874, 3.189453125) (-0.00010202752685546875, 3.19140625) (-0.00010161750030517577, 3.193359375) (-0.00010113833618164062, 3.1953125) (-0.00010059552001953124, 3.197265625) (-9.999456024169922e-05, 3.19921875) (-9.934090423583984e-05, 3.201171875) (-9.863995361328125e-05, 3.203125) (-9.789701843261718e-05, 3.205078125) (-9.71173095703125e-05, 3.20703125) (-9.630589294433594e-05, 3.208984375) (-9.546766662597656e-05, 3.2109375) (-9.460729217529296e-05, 3.212890625) (-9.372920227050781e-05, 3.21484375) (-9.283750915527344e-05, 3.216796875) (-9.193601989746094e-05, 3.21875) (-9.102827453613281e-05, 3.220703125) (-9.011744689941406e-05, 3.22265625) (-8.920639038085937e-05, 3.224609375) (-8.829765319824218e-05, 3.2265625) (-8.739349365234374e-05, 3.228515625) (-8.649586486816406e-05, 3.23046875) (-8.560638427734374e-05, 3.232421875) (-8.472640228271485e-05, 3.234375) (-8.385688781738281e-05, 3.236328125) (-8.299850463867187e-05, 3.23828125) (-8.215160369873047e-05, 3.240234375) (-8.131618499755859e-05, 3.2421875) (-8.049194335937499e-05, 3.244140625) (-7.967828369140624e-05, 3.24609375) (-7.887442016601562e-05, 3.248046875) (-7.807934570312499e-05, 3.25) (-7.729190826416015e-05, 3.251953125) (-7.651089477539062e-05, 3.25390625) (-7.573500061035156e-05, 3.255859375) (-7.49629669189453e-05, 3.2578125) (-7.41934814453125e-05, 3.259765625) (-7.342533111572266e-05, 3.26171875) (-7.265727996826171e-05, 3.263671875) (-7.188819885253906e-05, 3.265625) (-7.111705780029297e-05, 3.267578125) (-7.034293365478516e-05, 3.26953125) (-6.956511688232422e-05, 3.271484375) (-6.878311157226562e-05, 3.2734375) (-6.799671936035156e-05, 3.275390625) (-6.720600891113281e-05, 3.27734375) (-6.6411376953125e-05, 3.279296875) (-6.561357116699219e-05, 3.28125) (-6.481362915039062e-05, 3.283203125) (-6.401294708251953e-05, 3.28515625) (-6.321324157714843e-05, 3.287109375) (-6.241646575927734e-05, 3.2890625) (-6.162478637695312e-05, 3.291015625) (-6.084063720703125e-05, 3.29296875) (-6.006672668457031e-05, 3.294921875) (-5.930599594116211e-05, 3.296875) (-5.8561622619628906e-05, 3.298828125) (-5.7836975097656245e-05, 3.30078125) (-5.713558197021484e-05, 3.302734375) (-5.6461215972900385e-05, 3.3046875) (-5.5817802429199216e-05, 3.306640625) (-5.52093276977539e-05, 3.30859375) (-5.46397705078125e-05, 3.310546875) (-5.411305999755859e-05, 3.3125) (-5.363300704956055e-05, 3.314453125) (-5.3203292846679684e-05, 3.31640625) (-5.282737350463867e-05, 3.318359375) (-5.250842666625976e-05, 3.3203125) (-5.224928665161132e-05, 3.322265625) (-5.205249786376953e-05, 3.32421875) (-5.192033004760742e-05, 3.326171875) (-5.185472869873047e-05, 3.328125) (-5.18572769165039e-05, 3.330078125) (-5.192916870117187e-05, 3.33203125) (-5.2071109771728515e-05, 3.333984375) (-5.228327560424804e-05, 3.3359375) (-5.256526184082031e-05, 3.337890625) (-5.291613388061523e-05, 3.33984375) (-5.33343276977539e-05, 3.341796875) (-5.3817668914794916e-05, 3.34375) (-5.436336898803711e-05, 3.345703125) (-5.4968013763427734e-05, 3.34765625) (-5.562759780883789e-05, 3.349609375) (-5.6337715148925775e-05, 3.3515625) (-5.7093589782714844e-05, 3.353515625) (-5.788986587524414e-05, 3.35546875) (-5.872072601318359e-05, 3.357421875) (-5.957991027832031e-05, 3.359375) (-6.046070098876953e-05, 3.361328125) (-6.13561897277832e-05, 3.36328125) (-6.225914764404296e-05, 3.365234375) (-6.316200256347656e-05, 3.3671875) (-6.405696105957032e-05, 3.369140625) (-6.493617248535157e-05, 3.37109375) (-6.579193878173828e-05, 3.373046875) (-6.661669921875e-05, 3.375) (-6.740309143066406e-05, 3.376953125) (-6.81441650390625e-05, 3.37890625) (-6.883349609374999e-05, 3.380859375) (-6.946532440185546e-05, 3.3828125) (-7.003472137451172e-05, 3.384765625) (-7.053733825683593e-05, 3.38671875) (-7.096924591064453e-05, 3.388671875) (-7.13272247314453e-05, 3.390625) (-7.160899353027343e-05, 3.392578125) (-7.181254577636718e-05, 3.39453125) (-7.193641662597655e-05, 3.396484375) (-7.197950744628906e-05, 3.3984375) (-7.194059753417968e-05, 3.400390625) (-7.181926727294921e-05, 3.40234375) (-7.161614227294921e-05, 3.404296875) (-7.13323745727539e-05, 3.40625) (-7.096988677978516e-05, 3.408203125) (-7.053157043457031e-05, 3.41015625) (-7.002073669433593e-05, 3.412109375) (-6.944171142578124e-05, 3.4140625) (-6.88000259399414e-05, 3.416015625) (-6.810145568847655e-05, 3.41796875) (-6.735200500488281e-05, 3.419921875) (-6.655690002441406e-05, 3.421875) (-6.571977233886719e-05, 3.423828125) (-6.484492492675781e-05, 3.42578125) (-6.393741607666015e-05, 3.427734375) (-6.300383377075195e-05, 3.4296875) (-6.205386352539062e-05, 3.431640625) (-6.109552764892578e-05, 3.43359375) (-6.013419723510742e-05, 3.435546875) (-5.917565536499023e-05, 3.4375) (-5.822444915771484e-05, 3.439453125) (-5.728213500976562e-05, 3.44140625) (-5.634783172607422e-05, 3.443359375) (-5.541260528564453e-05, 3.4453125) (-5.4457328796386714e-05, 3.447265625) (-5.346281814575195e-05, 3.44921875) (-5.241000747680664e-05, 3.451171875) (-5.1281494140624997e-05, 3.453125) (-5.006614303588867e-05, 3.455078125) (-4.874967193603516e-05, 3.45703125) (-4.7315982818603516e-05, 3.458984375) (-4.574899673461914e-05, 3.4609375) (-4.4028175354003906e-05, 3.462890625) (-4.21401252746582e-05, 3.46484375) (-4.007920455932617e-05, 3.466796875) (-3.783835983276367e-05, 3.46875) (-3.54151496887207e-05, 3.470703125) (-3.281713485717773e-05, 3.47265625) (-3.006053352355957e-05, 3.474609375) (-2.7189897537231443e-05, 3.4765625) (-2.428354454040527e-05, 3.478515625) (-2.14185791015625e-05, 3.48046875) (-1.867496299743652e-05, 3.482421875) (-1.6129257202148435e-05, 3.484375) (-1.383682346343994e-05, 3.486328125) (-1.1870806694030762e-05, 3.48828125) (-1.031456470489502e-05, 3.490234375) (-9.241788864135743e-06, 3.4921875) (-8.731650352478027e-06, 3.494140625) (-8.843288421630859e-06, 3.49609375) (-9.604896545410155e-06, 3.498046875) (-1.1060274124145508e-05, 3.5) (-1.3258716583251952e-05, 3.501953125) (-1.618138313293457e-05, 3.50390625) (-1.9743568420410154e-05, 3.505859375) (-2.374271011352539e-05, 3.5078125) (-2.7831825256347656e-05, 3.509765625) (-3.1667415618896484e-05, 3.51171875) (-3.493482208251953e-05, 3.513671875) (-3.72997817993164e-05, 3.515625) (-3.8450344085693355e-05, 3.517578125) (-3.8146415710449215e-05, 3.51953125) (-3.625837326049805e-05, 3.521484375) (-3.293369674682617e-05, 3.5234375) (-2.859058380126953e-05, 3.525390625) (-2.3706418991088867e-05, 3.52734375) (-1.8765840530395506e-05, 3.529296875) (-1.4133657455444336e-05, 3.53125) (-1.0006946563720703e-05, 3.533203125) (-6.61506700515747e-06, 3.53515625) (-4.090782642364501e-06, 3.537109375) (-1.965770483016968e-06, 3.5390625) (5.672498941421509e-07, 3.541015625) (5.128050327301025e-06, 3.54296875) (1.4231989860534668e-05, 3.544921875) (2.89598331451416e-05, 3.546875) (4.955104064941406e-05, 3.548828125) (7.538310241699218e-05, 3.55078125) (0.00010401576232910156, 3.552734375) (0.0001355068359375, 3.5546875) (0.00017151628112792967, 3.556640625) (0.00021315798950195312, 3.55859375) (0.00026274536132812496, 3.560546875) (0.000319334228515625, 3.5625) (0.0003795440979003906, 3.564453125) (0.00044001840209960933, 3.56640625) (0.0004939823913574219, 3.568359375) (0.0005336367187499999, 3.5703125) (0.0005500955810546874, 3.572265625) (0.00053488623046875, 3.57421875) (0.0004858430786132812, 3.576171875) (0.00040654577636718746, 3.578125) (0.0003056800842285156, 3.580078125) (0.00019253849792480468, 3.58203125) (7.27943344116211e-05, 3.583984375) (-4.836036682128906e-05, 3.5859375) (-0.00016542803955078123, 3.587890625) (-0.0002693646545410156, 3.58984375) (-0.0003478098449707031, 3.591796875) (-0.0003938546447753906, 3.59375) (-0.0004061241760253906, 3.595703125) (-0.00038953924560546874, 3.59765625) (-0.0003562550048828125, 3.599609375) (-0.0003154511108398437, 3.6015625) (-0.0002747348327636719, 3.603515625) (-0.00024148397827148437, 3.60546875) (-0.00021614425659179686, 3.607421875) (-0.00019858520507812498, 3.609375) (-0.00018685404968261718, 3.611328125) (-0.00017456201171874998, 3.61328125) (-0.00015976637268066407, 3.615234375) (-0.0001425601043701172, 3.6171875) (-0.00012395970916748047, 3.619140625) (-0.00010815875244140625, 3.62109375) (-9.65140380859375e-05, 3.623046875) (-8.807600402832031e-05, 3.625) (-8.200015258789062e-05, 3.626953125) (-7.622399139404297e-05, 3.62890625) (-6.963676452636719e-05, 3.630859375) (-6.233027648925781e-05, 3.6328125) (-5.410885620117187e-05, 3.634765625) (-4.514054489135742e-05, 3.63671875) (-3.5866806030273435e-05, 3.638671875) (-2.6537868499755857e-05, 3.640625) (-1.747962188720703e-05, 3.642578125) (-9.124138832092284e-06, 3.64453125) (-1.734584093093872e-06, 3.646484375) (4.427910804748535e-06, 3.6484375) (8.975265502929686e-06, 3.650390625) (1.1779415130615234e-05, 3.65234375) (1.2949125289916992e-05, 3.654296875) (1.264553165435791e-05, 3.65625) (1.1141833305358887e-05, 3.658203125) (8.7285099029541e-06, 3.66015625) (5.608216285705566e-06, 3.662109375) (2.0409045219421387e-06, 3.6640625) (-1.6233731508255003e-06, 3.666015625) (-5.136934757232666e-06, 3.66796875) (-8.329150199890136e-06, 3.669921875) (-1.1065438270568847e-05, 3.671875) (-1.3295999526977538e-05, 3.673828125) (-1.4982542037963867e-05, 3.67578125) (-1.6075490951538085e-05, 3.677734375) (-1.6576839447021482e-05, 3.6796875) (-1.653192710876465e-05, 3.681640625) (-1.598554992675781e-05, 3.68359375) (-1.4996435165405274e-05, 3.685546875) (-1.362563705444336e-05, 3.6875) (-1.191982078552246e-05, 3.689453125) (-9.940887451171875e-06, 3.69140625) (-7.756531238555907e-06, 3.693359375) (-5.429114341735839e-06, 3.6953125) (-3.0286221504211424e-06, 3.697265625) (-6.238958835601806e-07, 3.69921875) (1.7253212928771972e-06, 3.701171875) (3.956590890884399e-06, 3.703125) (6.010128498077393e-06, 3.705078125) (7.849699974060059e-06, 3.70703125) (9.453692436218262e-06, 3.708984375) (1.0814814567565917e-05, 3.7109375) (1.1946330070495604e-05, 3.712890625) (1.286625576019287e-05, 3.71484375) (1.3596939086914061e-05, 3.716796875) (1.4170408248901366e-05, 3.71875) (1.4621437072753906e-05, 3.720703125) (1.4982975006103515e-05, 3.72265625) (1.5287272453308105e-05, 3.724609375) (1.5562740325927733e-05, 3.7265625) (1.583455657958984e-05, 3.728515625) (1.6131319046020507e-05, 3.73046875) (1.648147201538086e-05, 3.732421875) (1.6914390563964844e-05, 3.734375) (1.7461305618286132e-05, 3.736328125) (1.814432716369629e-05, 3.73828125) (1.8978492736816406e-05, 3.740234375) (1.997500991821289e-05, 3.7421875) (2.1138179779052732e-05, 3.744140625) (2.2469362258911133e-05, 3.74609375) (2.3968536376953125e-05, 3.748046875) (2.5630086898803708e-05, 3.75) (2.7444442749023435e-05, 3.751953125) (2.940407562255859e-05, 3.75390625) (3.150176811218262e-05, 3.755859375) (3.3730857849121095e-05, 3.7578125) (3.60866470336914e-05, 3.759765625) (3.856159210205078e-05, 3.76171875) (4.1145881652832026e-05, 3.763671875) (4.382913970947265e-05, 3.765625) (4.659938812255859e-05, 3.767578125) (4.94447021484375e-05, 3.76953125) (5.2353759765625e-05, 3.771484375) (5.5314331054687494e-05, 3.7734375) (5.831362152099609e-05, 3.775390625) (6.133926010131836e-05, 3.77734375) (6.437883758544921e-05, 3.779296875) (6.742053222656249e-05, 3.78125) (7.045343780517578e-05, 3.783203125) (7.346553802490234e-05, 3.78515625) (7.644387817382812e-05, 3.787109375) (7.937548065185547e-05, 3.7890625) (8.224697875976562e-05, 3.791015625) (8.504531860351562e-05, 3.79296875) (8.77580337524414e-05, 3.794921875) (9.037261199951172e-05, 3.796875) (9.287660217285156e-05, 3.798828125) (9.525851440429687e-05, 3.80078125) (9.75076675415039e-05, 3.802734375) (9.96141357421875e-05, 3.8046875) (0.00010156900024414062, 3.806640625) (0.00010336389923095702, 3.80859375) (0.00010499092102050781, 3.810546875) (0.00010644302368164062, 3.8125) (0.00010771390533447265, 3.814453125) (0.00010879786682128906, 3.81640625) (0.00010969007110595702, 3.818359375) (0.00011038629150390624, 3.8203125) (0.00011088287353515625, 3.822265625) (0.00011117697143554687, 3.82421875) (0.00011126656341552734, 3.826171875) (0.00011115030670166015, 3.828125) (0.00011082772064208984, 3.830078125) (0.00011029901123046874, 3.83203125) (0.00010956498718261718, 3.833984375) (0.00010862718963623047, 3.8359375) (0.00010748783874511718, 3.837890625) (0.00010614967346191406, 3.83984375) (0.0001046159439086914, 3.841796875) (0.00010289039611816405, 3.84375) (0.0001009771728515625, 3.845703125) (9.888089752197265e-05, 3.84765625) (9.660672760009765e-05, 3.849609375) (9.416015624999999e-05, 3.8515625) (9.154710388183594e-05, 3.853515625) (8.877389526367187e-05, 3.85546875) (8.584720611572265e-05, 3.857421875) (8.277413177490234e-05, 3.859375) (7.956209564208984e-05, 3.861328125) (7.621869659423827e-05, 3.86328125) (7.275172424316405e-05, 3.865234375) (6.916914367675782e-05, 3.8671875) (6.54791259765625e-05, 3.869140625) (6.169003295898438e-05, 3.87109375) (5.7810470581054684e-05, 3.873046875) (5.384915924072265e-05, 3.875) (4.981501388549805e-05, 3.876953125) (4.5717155456542966e-05, 3.87890625) (4.156489562988281e-05, 3.880859375) (3.736770629882812e-05, 3.8828125) (3.313519287109375e-05, 3.884765625) (2.887697410583496e-05, 3.88671875) (2.4602680206298828e-05, 3.888671875) (2.0321956634521484e-05, 3.890625) (1.604440689086914e-05, 3.892578125) (1.177956485748291e-05, 3.89453125) (7.5368876457214355e-06, 3.896484375) (3.3256969451904295e-06, 3.8984375) (-8.448151350021362e-07, 3.900390625) (-4.9655704498291015e-06, 3.90234375) (-9.027641296386718e-06, 3.904296875) (-1.3022294044494628e-05, 3.90625) (-1.6941024780273437e-05, 3.908203125) (-2.0775630950927732e-05, 3.91015625) (-2.451822280883789e-05, 3.912109375) (-2.8161237716674802e-05, 3.9140625) (-3.169748497009277e-05, 3.916015625) (-3.512018585205078e-05, 3.91796875) (-3.842301940917969e-05, 3.919921875) (-4.1600116729736325e-05, 3.921875) (-4.464610290527343e-05, 3.923828125) (-4.755604553222656e-05, 3.92578125) (-5.032548522949218e-05, 3.927734375) (-5.295050048828125e-05, 3.9296875) (-5.5427734374999996e-05, 3.931640625) (-5.775441741943359e-05, 3.93359375) (-5.9928348541259764e-05, 3.935546875) (-6.194792938232421e-05, 3.9375) (-6.381217575073241e-05, 3.939453125) (-6.5520751953125e-05, 3.94140625) (-6.707398223876953e-05, 3.943359375) (-6.84727783203125e-05, 3.9453125) (-6.971865081787108e-05, 3.947265625) (-7.081366729736328e-05, 3.94921875) (-7.176038360595702e-05, 3.951171875) (-7.256189727783203e-05, 3.953125) (-7.322183227539062e-05, 3.955078125) (-7.374430847167968e-05, 3.95703125) (-7.413380432128906e-05, 3.958984375) (-7.439530944824219e-05, 3.9609375) (-7.453418731689453e-05, 3.962890625) (-7.455621337890624e-05, 3.96484375) (-7.446759033203124e-05, 3.966796875) (-7.427479553222656e-05, 3.96875) (-7.398458099365235e-05, 3.970703125) (-7.360388946533203e-05, 3.97265625) (-7.313983154296875e-05, 3.974609375) (-7.259966278076171e-05, 3.9765625) (-7.199078369140625e-05, 3.978515625) (-7.132059478759765e-05, 3.98046875) (-7.059652709960938e-05, 3.982421875) (-6.982601928710938e-05, 3.984375) (-6.901644897460937e-05, 3.986328125) (-6.817514038085937e-05, 3.98828125) (-6.73094024658203e-05, 3.990234375) (-6.642634582519531e-05, 3.9921875) (-6.553289794921875e-05, 3.994140625) (-6.463572692871093e-05, 3.99609375) (-6.374121856689453e-05, 3.998046875) (-6.285548400878906e-05, 4.0) (-6.19843292236328e-05, 4.001953125) (-6.113317108154296e-05, 4.00390625) (-6.0307014465332026e-05, 4.005859375) (-5.951049041748047e-05, 4.0078125) (-5.874786376953125e-05, 4.009765625) (-5.8023002624511716e-05, 4.01171875) (-5.7339454650878903e-05, 4.013671875) (-5.6700283050537106e-05, 4.015625) (-5.6108032226562495e-05, 4.017578125) (-5.556478881835937e-05, 4.01953125) (-5.507218933105468e-05, 4.021484375) (-5.463134765625e-05, 4.0234375) (-5.424286651611328e-05, 4.025390625) (-5.390676879882812e-05, 4.02734375) (-5.36224250793457e-05, 4.029296875) (-5.3388801574707026e-05, 4.03125) (-5.3204505920410153e-05, 4.033203125) (-5.306772613525391e-05, 4.03515625) (-5.297637557983398e-05, 4.037109375) (-5.292796325683593e-05, 4.0390625) (-5.291959762573242e-05, 4.041015625) (-5.29481201171875e-05, 4.04296875) (-5.3010143280029296e-05, 4.044921875) (-5.310196304321289e-05, 4.046875) (-5.32195930480957e-05, 4.048828125) (-5.3358760833740234e-05, 4.05078125) (-5.351482391357422e-05, 4.052734375) (-5.368302536010742e-05, 4.0546875) (-5.385856628417968e-05, 4.056640625) (-5.403650665283203e-05, 4.05859375) (-5.42119140625e-05, 4.060546875) (-5.437981033325195e-05, 4.0625) (-5.4535121917724606e-05, 4.064453125) (-5.467284393310547e-05, 4.06640625) (-5.478815460205078e-05, 4.068359375) (-5.4876258850097655e-05, 4.0703125) (-5.493231201171875e-05, 4.072265625) (-5.495168304443359e-05, 4.07421875) (-5.4929801940917964e-05, 4.076171875) (-5.486246109008789e-05, 4.078125) (-5.474618148803711e-05, 4.080078125) (-5.457781982421875e-05, 4.08203125) (-5.4354667663574216e-05, 4.083984375) (-5.407483673095703e-05, 4.0859375) (-5.3737236022949215e-05, 4.087890625) (-5.334175872802734e-05, 4.08984375) (-5.288959503173828e-05, 4.091796875) (-5.238232421875e-05, 4.09375) (-5.1821624755859376e-05, 4.095703125) (-5.1210033416748046e-05, 4.09765625) (-5.055072784423828e-05, 4.099609375) (-4.98473892211914e-05, 4.1015625) (-4.9104572296142574e-05, 4.103515625) (-4.832668304443359e-05, 4.10546875) (-4.751786804199219e-05, 4.107421875) (-4.6683361053466794e-05, 4.109375) (-4.5829307556152344e-05, 4.111328125) (-4.496258544921875e-05, 4.11328125) (-4.409119415283203e-05, 4.115234375) (-4.3222885131835936e-05, 4.1171875) (-4.2364768981933593e-05, 4.119140625) (-4.152476119995117e-05, 4.12109375) (-4.07111701965332e-05, 4.123046875) (-3.9932479858398436e-05, 4.125) (-3.91982421875e-05, 4.126953125) (-3.8516517639160155e-05, 4.12890625) (-3.7892791748046874e-05, 4.130859375) (-3.733357238769531e-05, 4.1328125) (-3.6845741271972654e-05, 4.134765625) (-3.6437004089355465e-05, 4.13671875) (-3.611739349365234e-05, 4.138671875) (-3.589332962036132e-05, 4.140625) (-3.576641464233398e-05, 4.142578125) (-3.57369155883789e-05, 4.14453125) (-3.5803478240966796e-05, 4.146484375) (-3.5962799072265623e-05, 4.1484375) (-3.621018600463867e-05, 4.150390625) (-3.653481674194336e-05, 4.15234375) (-3.6917961120605465e-05, 4.154296875) (-3.7339939117431636e-05, 4.15625) (-3.777945327758789e-05, 4.158203125) (-3.821762466430664e-05, 4.16015625) (-3.8640991210937496e-05, 4.162109375) (-3.903214645385742e-05, 4.1640625) (-3.937161254882812e-05, 4.166015625) (-3.963782501220703e-05, 4.16796875) (-3.9805976867675776e-05, 4.169921875) (-3.985802841186523e-05, 4.171875) (-3.9783477783203126e-05, 4.173828125) (-3.9574211120605465e-05, 4.17578125) (-3.9222347259521484e-05, 4.177734375) (-3.872516632080078e-05, 4.1796875) (-3.808766174316406e-05, 4.181640625) (-3.732875061035156e-05, 4.18359375) (-3.648587417602539e-05, 4.185546875) (-3.5603946685791016e-05, 4.1875) (-3.4735538482666015e-05, 4.189453125) (-3.392963790893555e-05, 4.19140625) (-3.3231849670410155e-05, 4.193359375) (-3.2687530517578124e-05, 4.1953125) (-3.23289794921875e-05, 4.197265625) (-3.2199745178222657e-05, 4.19921875) (-3.2351341247558594e-05, 4.201171875) (-3.282534790039062e-05, 4.203125) (-3.366753387451172e-05, 4.205078125) (-3.491297149658203e-05, 4.20703125) (-3.6573261260986326e-05, 4.208984375) (-3.867588424682617e-05, 4.2109375) (-4.1261634826660156e-05, 4.212890625) (-4.4298995971679683e-05, 4.21484375) (-4.76736946105957e-05, 4.216796875) (-5.116636276245117e-05, 4.21875) (-5.4411430358886715e-05, 4.220703125) (-5.703382873535156e-05, 4.22265625) (-5.8720409393310546e-05, 4.224609375) (-5.912001037597656e-05, 4.2265625) (-5.787309646606445e-05, 4.228515625) (-5.475563049316406e-05, 4.23046875) (-4.971338272094726e-05, 4.232421875) (-4.301765441894531e-05, 4.234375) (-3.532388305664062e-05, 4.236328125) (-2.739352798461914e-05, 4.23828125) (-1.9889015197753906e-05, 4.240234375) (-1.3418561935424803e-05, 4.2421875) (-8.536693572998046e-06, 4.244140625) (-5.5115008354187005e-06, 4.24609375) (-4.247883796691894e-06, 4.248046875) (-4.074231147766113e-06, 4.25) (-3.6246588230133056e-06, 4.251953125) (-1.093998908996582e-06, 4.25390625) (5.326501846313477e-06, 4.255859375) (1.7254798889160155e-05, 4.2578125) (3.640198516845703e-05, 4.259765625) (6.414783477783203e-05, 4.26171875) (0.00010127296447753905, 4.263671875) (0.00014808956909179686, 4.265625) (0.00020287040710449217, 4.267578125) (0.0002616676635742187, 4.26953125) (0.0003208311767578125, 4.271484375) (0.0003768489990234375, 4.2734375) (0.00042872259521484375, 4.275390625) (0.0004788475341796875, 4.27734375) (0.0005261096801757812, 4.279296875) (0.0005657282104492187, 4.28125) (0.0005883854370117188, 4.283203125) (0.0005811718139648437, 4.28515625) (0.0005385547485351562, 4.287109375) (0.0004627613830566406, 4.2890625) (0.00036213250732421875, 4.291015625) (0.00024850340270996093, 4.29296875) (0.0001288021545410156, 4.294921875) (7.889076232910155e-06, 4.296875) (-0.00010872472381591797, 4.298828125) (-0.00021300897216796873, 4.30078125) (-0.0002925555725097656, 4.302734375) (-0.00033935137939453125, 4.3046875) (-0.00035136892700195313, 4.306640625) (-0.00033307476806640626, 4.30859375) (-0.00029707861328125, 4.310546875) (-0.0002535970764160156, 4.3125) (-0.0002110623779296875, 4.314453125) (-0.00017716763305664063, 4.31640625) (-0.00015195379638671875, 4.318359375) (-0.00013482138061523437, 4.3203125) (-0.0001236852569580078, 4.322265625) (-0.00011234693908691405, 4.32421875) (-9.933896636962891e-05, 4.326171875) (-8.49125518798828e-05, 4.328125) (-6.969248962402344e-05, 4.330078125) (-5.742168807983398e-05, 4.33203125) (-4.9137062072753906e-05, 4.333984375) (-4.353554534912109e-05, 4.3359375) (-3.950752258300781e-05, 4.337890625) (-3.476189804077148e-05, 4.33984375) (-2.7820386886596678e-05, 4.341796875) (-1.883819770812988e-05, 4.34375) (-8.16065788269043e-06, 4.345703125) (3.668828248977661e-06, 4.34765625) (1.5949596405029295e-05, 4.349609375) (2.817388916015625e-05, 4.3515625) (3.9903892517089844e-05, 4.353515625) (5.051315307617187e-05, 4.35546875) (5.939026641845703e-05, 4.357421875) (6.62998809814453e-05, 4.359375) (7.122630310058593e-05, 4.361328125) (7.429485321044921e-05, 4.36328125) (7.581796264648437e-05, 4.365234375) (7.608939361572265e-05, 4.3671875) (7.535545349121093e-05, 4.369140625) (7.396616363525391e-05, 4.37109375) (7.228526306152343e-05, 4.373046875) (7.055441284179687e-05, 4.375) (6.896519470214843e-05, 4.376953125) (6.765073394775391e-05, 4.37890625) (6.666978454589843e-05, 4.380859375) (6.611000061035156e-05, 4.3828125) (6.606742858886719e-05, 4.384765625) (6.657887268066406e-05, 4.38671875) (6.765304565429687e-05, 4.388671875) (6.928136444091797e-05, 4.390625) (7.142593383789062e-05, 4.392578125) (7.405128479003906e-05, 4.39453125) (7.711830139160157e-05, 4.396484375) (8.056193542480469e-05, 4.3984375) (8.430751037597655e-05, 4.400390625) (8.827669525146485e-05, 4.40234375) (9.239318847656249e-05, 4.404296875) (9.659442138671875e-05, 4.40625) (0.00010082160186767578, 4.408203125) (0.00010501116943359374, 4.41015625) (0.0001091033706665039, 4.412109375) (0.00011303591156005859, 4.4140625) (0.00011674748992919922, 4.416015625) (0.00012020098114013671, 4.41796875) (0.00012337403106689451, 4.419921875) (0.0001262562713623047, 4.421875) (0.00012885644531249998, 4.423828125) (0.00013118836975097655, 4.42578125) (0.0001332706298828125, 4.427734375) (0.00013513302612304688, 4.4296875) (0.00013680950927734374, 4.431640625) (0.00013833177185058594, 4.43359375) (0.000139730712890625, 4.435546875) (0.00014103152465820313, 4.4375) (0.00014225440979003906, 4.439453125) (0.00014342416381835936, 4.44140625) (0.00014456655883789062, 4.443359375) (0.0001457094268798828, 4.4453125) (0.00014688398742675781, 4.447265625) (0.0001481129150390625, 4.44921875) (0.00014941250610351562, 4.451171875) (0.00015079666137695312, 4.453125) (0.0001522733917236328, 4.455078125) (0.00015384811401367187, 4.45703125) (0.0001555251770019531, 4.458984375) (0.00015730328369140624, 4.4609375) (0.00015917710876464842, 4.462890625) (0.0001611436309814453, 4.46484375) (0.00016320025634765625, 4.466796875) (0.00016534523010253906, 4.46875) (0.00016757894897460936, 4.470703125) (0.00016989909362792968, 4.47265625) (0.00017230123901367187, 4.474609375) (0.00017478024291992187, 4.4765625) (0.00017732940673828123, 4.478515625) (0.00017994181823730468, 4.48046875) (0.0001826111602783203, 4.482421875) (0.00018532995605468749, 4.484375) (0.00018809002685546875, 4.486328125) (0.00019088331604003906, 4.48828125) (0.00019370152282714842, 4.490234375) (0.0001965368194580078, 4.4921875) (0.00019938211059570312, 4.494140625) (0.00020222906494140623, 4.49609375) (0.0002050682373046875, 4.498046875) (0.00020788981628417968, 4.5) (0.0002106834716796875, 4.501953125) (0.00021343878173828124, 4.50390625) (0.00021614575195312498, 4.505859375) (0.00021879391479492187, 4.5078125) (0.00022137265014648437, 4.509765625) (0.00022387193298339844, 4.51171875) (0.0002262822570800781, 4.513671875) (0.00022859461975097655, 4.515625) (0.00023080081176757812, 4.517578125) (0.00023289306640625, 4.51953125) (0.00023486390686035155, 4.521484375) (0.0002367066650390625, 4.5234375) (0.000238415283203125, 4.525390625) (0.000239984375, 4.52734375) (0.00024140934753417968, 4.529296875) (0.0002426862335205078, 4.53125) (0.00024381169128417967, 4.533203125) (0.0002447830200195312, 4.53515625) (0.00024559844970703125, 4.537109375) (0.0002462568359375, 4.5390625) (0.0002467579040527344, 4.541015625) (0.0002471022338867187, 4.54296875) (0.00024729107666015627, 4.544921875) (0.0002473265075683594, 4.546875) (0.00024721142578125, 4.548828125) (0.0002469494934082031, 4.55078125) (0.0002465450134277344, 4.552734375) (0.0002460029144287109, 4.5546875) (0.0002453286590576172, 4.556640625) (0.00024452816772460936, 4.55859375) (0.0002436081085205078, 4.560546875) (0.00024257554626464843, 4.5625) (0.00024143801879882812, 4.564453125) (0.00024020362854003906, 4.56640625) (0.00023888088989257813, 4.568359375) (0.0002374788818359375, 4.5703125) (0.00023600714111328124, 4.572265625) (0.00023447555541992185, 4.57421875) (0.00023289407348632812, 4.576171875) (0.00023127291870117186, 4.578125) (0.00022962237548828125, 4.580078125) (0.0002279527587890625, 4.58203125) (0.00022627430725097656, 4.583984375) (0.00022459700012207031, 4.5859375) (0.0002229306182861328, 4.587890625) (0.00022128466796874998, 4.58984375) (0.00021966838073730468, 4.591796875) (0.00021809075927734374, 4.59375) (0.0002165603332519531, 4.595703125) (0.00021508551025390624, 4.59765625) (0.00021367420959472654, 4.599609375) (0.00021233395385742186, 4.6015625) (0.0002110718536376953, 4.603515625) (0.00020989433288574218, 4.60546875) (0.00020880726623535156, 4.607421875) (0.0002078157958984375, 4.609375) (0.00020692416381835936, 4.611328125) (0.00020613584899902343, 4.61328125) (0.00020545343017578125, 4.615234375) (0.00020487899780273437, 4.6171875) (0.0002044140167236328, 4.619140625) (0.00020405918884277343, 4.62109375) (0.00020381460571289062, 4.623046875) (0.0002036797180175781, 4.625) (0.0002036535186767578, 4.626953125) (0.00020373416137695313, 4.62890625) (0.00020391909790039062, 4.630859375) (0.00020420500183105468, 4.6328125) (0.00020458746337890623, 4.634765625) (0.00020506146240234374, 4.63671875) (0.0002056214141845703, 4.638671875) (0.00020626095581054686, 4.640625) (0.00020697288513183592, 4.642578125) (0.00020774984741210936, 4.64453125) (0.00020858413696289062, 4.646484375) (0.00020946810913085936, 4.6484375) (0.00021039453125, 4.650390625) (0.00021135636901855467, 4.65234375) (0.00021234661865234374, 4.654296875) (0.00021335902404785156, 4.65625) (0.00021438790893554686, 4.658203125) (0.0002154276123046875, 4.66015625) (0.0002164729766845703, 4.662109375) (0.00021751867675781248, 4.6640625) (0.00021855911254882812, 4.666015625) (0.00021958859252929687, 4.66796875) (0.00022060177612304686, 4.669921875) (0.00022159405517578124, 4.671875) (0.00022256182861328123, 4.673828125) (0.00022350328063964843, 4.67578125) (0.00022441769409179687, 4.677734375) (0.00022530535888671874, 4.6796875) (0.0002261675109863281, 4.681640625) (0.00022700717163085936, 4.68359375) (0.00022782873535156248, 4.685546875) (0.00022863531494140624, 4.6875) (0.00022942900085449217, 4.689453125) (0.00023020960998535155, 4.69140625) (0.00023097589111328125, 4.693359375) (0.00023173019409179687, 4.6953125) (0.00023247779846191405, 4.697265625) (0.00023322752380371093, 4.69921875) (0.0002339906463623047, 4.701171875) (0.00023478234863281248, 4.703125) (0.00023562149047851562, 4.705078125) (0.0002365281524658203, 4.70703125) (0.00023752275085449218, 4.708984375) (0.0002386219482421875, 4.7109375) (0.00023983734130859373, 4.712890625) (0.00024117213439941404, 4.71484375) (0.000242625, 4.716796875) (0.00024419580078125, 4.71875) (0.00024588381958007814, 4.720703125) (0.00024769943237304686, 4.72265625) (0.0002496568908691406, 4.724609375) (0.0002517617950439453, 4.7265625) (0.00025401684570312496, 4.728515625) (0.00025641839599609373, 4.73046875) (0.00025895419311523435, 4.732421875) (0.0002616021118164062, 4.734375) (0.000264325927734375, 4.736328125) (0.0002670728759765625, 4.73828125) (0.00026978439331054686, 4.740234375) (0.00027241033935546875, 4.7421875) (0.00027490988159179684, 4.744140625) (0.00027726473999023434, 4.74609375) (0.0002794671020507812, 4.748046875) (0.0002815098266601562, 4.75) (0.00028339276123046873, 4.751953125) (0.0002850965881347656, 4.75390625) (0.0002865991516113281, 4.755859375) (0.0002878968505859375, 4.7578125) (0.000288984619140625, 4.759765625) (0.00028986264038085934, 4.76171875) (0.00029053955078125, 4.763671875) (0.00029102441406249997, 4.765625) (0.00029135595703124996, 4.767578125) (0.000291623779296875, 4.76953125) (0.0002919326782226562, 4.771484375) (0.00029238916015624997, 4.7734375) (0.00029308935546875, 4.775390625) (0.00029407366943359374, 4.77734375) (0.0002953880615234375, 4.779296875) (0.00029710076904296875, 4.78125) (0.0002992042236328125, 4.783203125) (0.0003016564025878906, 4.78515625) (0.0003043468017578125, 4.787109375) (0.00030703244018554686, 4.7890625) (0.0003095095520019531, 4.791015625) (0.0003116484985351562, 4.79296875) (0.0003132626342773437, 4.794921875) (0.0003142108764648437, 4.796875) (0.0003145292358398437, 4.798828125) (0.0003143163452148437, 4.80078125) (0.00031386874389648437, 4.802734375) (0.00031372271728515624, 4.8046875) (0.00031422564697265623, 4.806640625) (0.00031559091186523434, 4.80859375) (0.0003180403137207031, 4.810546875) (0.0003214307250976562, 4.8125) (0.00032517321777343747, 4.814453125) (0.0003283937377929687, 4.81640625) (0.000329766357421875, 4.818359375) (0.0003276920166015625, 4.8203125) (0.00032091351318359375, 4.822265625) (0.00030832736206054686, 4.82421875) (0.0002888907775878906, 4.826171875) (0.00026229498291015625, 4.828125) (0.00022895361328124998, 4.830078125) (0.00018984017944335935, 4.83203125) (0.00014667039489746093, 4.833984375) (0.0001014937744140625, 4.8359375) (5.613114547729492e-05, 4.837890625) (1.2502477645874023e-05, 4.83984375) (-2.736803436279297e-05, 4.841796875) (-6.218082427978515e-05, 4.84375) (-9.128899383544921e-05, 4.845703125) (-0.00011456842803955078, 4.84765625) (-0.00013262998962402343, 4.849609375) (-0.0001463560791015625, 4.8515625) (-0.0001565772705078125, 4.853515625) (-0.00016446511840820312, 4.85546875) (-0.0001714527893066406, 4.857421875) (-0.00017851019287109374, 4.859375) (-0.00018622088623046875, 4.861328125) (-0.0001948727111816406, 4.86328125) (-0.00020429693603515623, 4.865234375) (-0.00021424305725097656, 4.8671875) (-0.00022449841308593748, 4.869140625) (-0.0002345908203125, 4.87109375) (-0.00024389108276367185, 4.873046875) (-0.00025203890991210937, 4.875) (-0.00025889447021484375, 4.876953125) (-0.00026448590087890626, 4.87890625) (-0.00026906536865234376, 4.880859375) (-0.0002728782653808594, 4.8828125) (-0.0002761253662109375, 4.884765625) (-0.000279091552734375, 4.88671875) (-0.00028208514404296875, 4.888671875) (-0.00028529595947265624, 4.890625) (-0.0002888172912597656, 4.892578125) (-0.000292662353515625, 4.89453125) (-0.00029675830078125, 4.896484375) (-0.00030104217529296873, 4.8984375) (-0.0003054714965820312, 4.900390625) (-0.0003099839172363281, 4.90234375) (-0.00031451422119140623, 4.904296875) (-0.00031900598144531247, 4.90625) (-0.00032340032958984375, 4.908203125) (-0.00032764666748046875, 4.91015625) (-0.00033170687866210935, 4.912109375) (-0.0003355331115722656, 4.9140625) (-0.00033907275390625, 4.916015625) (-0.00034228790283203123, 4.91796875) (-0.0003451504821777344, 4.919921875) (-0.000347647705078125, 4.921875) (-0.00034978668212890624, 4.923828125) (-0.000351576171875, 4.92578125) (-0.00035302441406249996, 4.927734375) (-0.00035414389038085933, 4.9296875) (-0.00035494332885742185, 4.931640625) (-0.00035543002319335935, 4.93359375) (-0.00035561199951171876, 4.935546875) (-0.00035549871826171876, 4.9375) (-0.0003551031799316406, 4.939453125) (-0.00035444238281249997, 4.94140625) (-0.00035353387451171874, 4.943359375) (-0.0003523913879394531, 4.9453125) (-0.00035102764892578123, 4.947265625) (-0.0003494505920410156, 4.94921875) (-0.0003476669311523437, 4.951171875) (-0.0003456845703125, 4.953125) (-0.0003435045471191406, 4.955078125) (-0.0003411389770507812, 4.95703125) (-0.0003386170349121094, 4.958984375) (-0.0003359802551269531, 4.9609375) (-0.0003332901000976562, 4.962890625) (-0.00033061044311523435, 4.96484375) (-0.00032799514770507813, 4.966796875) (-0.0003255023193359375, 4.96875) (-0.0003232002258300781, 4.970703125) (-0.00032115527343749996, 4.97265625) (-0.00031943792724609376, 4.974609375) (-0.0003181221618652344, 4.9765625) (-0.00031725201416015625, 4.978515625) (-0.0003168863525390625, 4.98046875) (-0.0003171087646484375, 4.982421875) (-0.0003179363098144531, 4.984375) (-0.00031934765624999997, 4.986328125) (-0.0003212499084472656, 4.98828125) (-0.00032341644287109373, 4.990234375) (-0.00032561370849609376, 4.9921875) (-0.00032764224243164063, 4.994140625) (-0.0003292274169921875, 4.99609375) (-0.00033005853271484374, 4.998046875) (-0.00032993576049804687, 5.0) (-0.00032868505859374997, 5.001953125) (-0.00032630865478515625, 5.00390625) (-0.00032312799072265624, 5.005859375) (-0.00031939984130859375, 5.0078125) (-0.0003153287353515625, 5.009765625) (-0.00031123260498046876, 5.01171875) (-0.00030737774658203123, 5.013671875) (-0.0003039525146484375, 5.015625) (-0.0003011376953125, 5.017578125) (-0.0002987823791503906, 5.01953125) (-0.000296215576171875, 5.021484375) (-0.0002927183837890625, 5.0234375) (-0.00028746838378906247, 5.025390625) (-0.000279488525390625, 5.02734375) (-0.00026779583740234374, 5.029296875) (-0.0002512199096679687, 5.03125) (-0.00022859005737304686, 5.033203125) (-0.0001989631652832031, 5.03515625) (-0.00016265988159179688, 5.037109375) (-0.00012144873809814453, 5.0390625) (-7.727291870117187e-05, 5.041015625) (-3.229744720458984e-05, 5.04296875) (1.2935222625732421e-05, 5.044921875) (6.032494354248047e-05, 5.046875) (0.00010973916625976563, 5.048828125) (0.00015772958374023438, 5.05078125) (0.00019673886108398437, 5.052734375) (0.00021439019775390625, 5.0546875) (0.00020162353515625, 5.056640625) (0.00015681137084960938, 5.05859375) (8.432762145996093e-05, 5.060546875) (-5.789234161376953e-06, 5.0625) (-0.00010543702697753906, 5.064453125) (-0.0002115272216796875, 5.06640625) (-0.00032106295776367186, 5.068359375) (-0.0004294096374511719, 5.0703125) (-0.000527114501953125, 5.072265625) (-0.0006018715209960937, 5.07421875) (-0.000646310302734375, 5.076171875) (-0.000659904296875, 5.078125) (-0.00064883984375, 5.080078125) (-0.0006228301391601563, 5.08203125) (-0.0005891951904296875, 5.083984375) (-0.0005532731323242187, 5.0859375) (-0.000519669677734375, 5.087890625) (-0.0004911718139648438, 5.08984375) (-0.000470035400390625, 5.091796875) (-0.0004560608215332031, 5.09375) (-0.00044508999633789063, 5.095703125) (-0.000433528564453125, 5.09765625) (-0.00041952682495117186, 5.099609375) (-0.0004031537170410156, 5.1015625) (-0.00038722912597656246, 5.103515625) (-0.0003735704345703125, 5.10546875) (-0.0003617569885253906, 5.107421875) (-0.0003506242370605469, 5.109375) (-0.0003384212646484375, 5.111328125) (-0.00032410101318359374, 5.11328125) (-0.0003079032897949219, 5.115234375) (-0.0002904400024414062, 5.1171875) (-0.00027241192626953125, 5.119140625) (-0.0002545322875976562, 5.12109375) (-0.00023749050903320313, 5.123046875) (-0.00022194839477539062, 5.125) (-0.00020839315795898438, 5.126953125) (-0.0001971492462158203, 5.12890625) (-0.00018829150390625, 5.130859375) (-0.00018171194458007812, 5.1328125) (-0.00017726022338867187, 5.134765625) (-0.0001746714172363281, 5.13671875) (-0.00017358551025390624, 5.138671875) (-0.00017361439514160156, 5.140625) (-0.00017442021179199217, 5.142578125) (-0.00017576072692871092, 5.14453125) (-0.00017746278381347656, 5.146484375) (-0.00017937646484375, 5.1484375) (-0.00018135238647460936, 5.150390625) (-0.00018325439453125, 5.15234375) (-0.00018496470642089842, 5.154296875) (-0.00018640289306640624, 5.15625) (-0.0001874901123046875, 5.158203125) (-0.00018812608337402342, 5.16015625) (-0.00018824273681640623, 5.162109375) (-0.00018780416870117187, 5.1640625) (-0.00018680694580078125, 5.166015625) (-0.00018529669189453125, 5.16796875) (-0.0001833302001953125, 5.169921875) (-0.0001809641418457031, 5.171875) (-0.00017826803588867187, 5.173828125) (-0.0001753059844970703, 5.17578125) (-0.0001721398468017578, 5.177734375) (-0.0001688439178466797, 5.1796875) (-0.00016548184204101562, 5.181640625) (-0.00016210324096679687, 5.18359375) (-0.0001587641906738281, 5.185546875) (-0.00015551307678222655, 5.1875) (-0.0001523976593017578, 5.189453125) (-0.000149478271484375, 5.19140625) (-0.00014678977966308594, 5.193359375) (-0.00014433935546875, 5.1953125) (-0.00014212387084960938, 5.197265625) (-0.00014012188720703125, 5.19921875) (-0.00013830572509765623, 5.201171875) (-0.00013665043640136718, 5.203125) (-0.00013512161254882813, 5.205078125) (-0.00013367831420898438, 5.20703125) (-0.0001322850341796875, 5.208984375) (-0.0001309071807861328, 5.2109375) (-0.00012951469421386717, 5.212890625) (-0.00012808567810058594, 5.21484375) (-0.00012659334564208983, 5.216796875) (-0.00012500875854492188, 5.21875) (-0.0001233030548095703, 5.220703125) (-0.00012144332885742187, 5.22265625) (-0.00011940630340576171, 5.224609375) (-0.00011718006134033202, 5.2265625) (-0.00011475611877441406, 5.228515625) (-0.0001121313247680664, 5.23046875) (-0.00010930654907226561, 5.232421875) (-0.00010628366088867187, 5.234375) (-0.0001030700912475586, 5.236328125) (-9.967944335937499e-05, 5.23828125) (-9.612299346923827e-05, 5.240234375) (-9.241009521484375e-05, 5.2421875) (-8.854996490478515e-05, 5.244140625) (-8.455016326904296e-05, 5.24609375) (-8.042105102539063e-05, 5.248046875) (-7.617613983154296e-05, 5.25) (-7.182959747314453e-05, 5.251953125) (-6.739646911621094e-05, 5.25390625) (-6.28917465209961e-05, 5.255859375) (-5.832997894287109e-05, 5.2578125) (-5.372650527954101e-05, 5.259765625) (-4.9097309112548825e-05, 5.26171875) (-4.445796585083008e-05, 5.263671875) (-3.98238525390625e-05, 5.265625) (-3.5209747314453126e-05, 5.267578125) (-3.062965393066406e-05, 5.26953125) (-2.6098745346069335e-05, 5.271484375) (-2.1633150100708007e-05, 5.2734375) (-1.7249050140380858e-05, 5.275390625) (-1.2962780952453613e-05, 5.27734375) (-8.790245056152344e-06, 5.279296875) (-4.746701240539551e-06, 5.28125) (-8.472793102264404e-07, 5.283203125) (2.8931121826171874e-06, 5.28515625) (6.460664749145507e-06, 5.287109375) (9.842739105224609e-06, 5.2890625) (1.3027688980102538e-05, 5.291015625) (1.600491714477539e-05, 5.29296875) (1.8764629364013672e-05, 5.294921875) (2.129781150817871e-05, 5.296875) (2.3596513748168945e-05, 5.298828125) (2.565398025512695e-05, 5.30078125) (2.7464445114135742e-05, 5.302734375) (2.902296447753906e-05, 5.3046875) (3.032558250427246e-05, 5.306640625) (3.136928939819336e-05, 5.30859375) (3.215211868286133e-05, 5.310546875) (3.267322540283203e-05, 5.3125) (3.293278503417969e-05, 5.314453125) (3.293187713623047e-05, 5.31640625) (3.267261505126953e-05, 5.318359375) (3.215814590454101e-05, 5.3203125) (3.1392665863037106e-05, 5.322265625) (3.0381408691406248e-05, 5.32421875) (2.913056182861328e-05, 5.326171875) (2.7647155761718747e-05, 5.328125) (2.593910217285156e-05, 5.330078125) (2.4015140533447265e-05, 5.33203125) (2.1884840011596678e-05, 5.333984375) (1.9558595657348632e-05, 5.3359375) (1.7047466278076173e-05, 5.337890625) (1.4363113403320312e-05, 5.33984375) (1.1517842292785644e-05, 5.341796875) (8.524509429931641e-06, 5.34375) (5.396511077880859e-06, 5.345703125) (2.1477575302124023e-06, 5.34765625) (-1.2075917720794677e-06, 5.349609375) (-4.655206680297851e-06, 5.3515625) (-8.180562019348144e-06, 5.353515625) (-1.1769020080566406e-05, 5.35546875) (-1.5405870437622068e-05, 5.357421875) (-1.9076364517211915e-05, 5.359375) (-2.2765832901000976e-05, 5.361328125) (-2.6459747314453123e-05, 5.36328125) (-3.01436653137207e-05, 5.365234375) (-3.380324172973633e-05, 5.3671875) (-3.742431259155273e-05, 5.369140625) (-4.099291610717773e-05, 5.37109375) (-4.449540710449219e-05, 5.373046875) (-4.7918544769287106e-05, 5.375) (-5.1249477386474606e-05, 5.376953125) (-5.447586059570312e-05, 5.37890625) (-5.75859260559082e-05, 5.380859375) (-6.056853103637695e-05, 5.3828125) (-6.341326904296874e-05, 5.384765625) (-6.611050415039063e-05, 5.38671875) (-6.865140533447266e-05, 5.388671875) (-7.102797698974609e-05, 5.390625) (-7.323309326171875e-05, 5.392578125) (-7.526055908203125e-05, 5.39453125) (-7.710508728027344e-05, 5.396484375) (-7.876240539550782e-05, 5.3984375) (-8.022923278808593e-05, 5.400390625) (-8.150328063964844e-05, 5.40234375) (-8.25833282470703e-05, 5.404296875) (-8.346917724609375e-05, 5.40625) (-8.41616973876953e-05, 5.408203125) (-8.466277313232422e-05, 5.41015625) (-8.497528076171874e-05, 5.412109375) (-8.51030044555664e-05, 5.4140625) (-8.50506591796875e-05, 5.416015625) (-8.482376098632812e-05, 5.41796875) (-8.442863464355468e-05, 5.419921875) (-8.387234497070313e-05, 5.421875) (-8.316266632080078e-05, 5.423828125) (-8.230800628662108e-05, 5.42578125) (-8.131742095947265e-05, 5.427734375) (-8.02005615234375e-05, 5.4296875) (-7.896759033203124e-05, 5.431640625) (-7.762921142578125e-05, 5.43359375) (-7.619650268554687e-05, 5.435546875) (-7.468090820312499e-05, 5.4375) (-7.309408569335937e-05, 5.439453125) (-7.14478759765625e-05, 5.44140625) (-6.975418090820313e-05, 5.443359375) (-6.802487182617187e-05, 5.4453125) (-6.627169036865234e-05, 5.447265625) (-6.45062255859375e-05, 5.44921875) (-6.27398223876953e-05, 5.451171875) (-6.09834976196289e-05, 5.453125) (-5.924790573120117e-05, 5.455078125) (-5.754322433471679e-05, 5.45703125) (-5.587912368774414e-05, 5.458984375) (-5.426467132568359e-05, 5.4609375) (-5.2708263397216795e-05, 5.462890625) (-5.1217563629150386e-05, 5.46484375) (-4.979939270019531e-05, 5.466796875) (-4.845973205566406e-05, 5.46875) (-4.720366668701172e-05, 5.470703125) (-4.603538131713867e-05, 5.47265625) (-4.495815658569336e-05, 5.474609375) (-4.397437286376953e-05, 5.4765625) (-4.308551025390625e-05, 5.478515625) (-4.2292205810546876e-05, 5.48046875) (-4.159423828125e-05, 5.482421875) (-4.099058151245117e-05, 5.484375) (-4.047940826416015e-05, 5.486328125) (-4.0058082580566403e-05, 5.48828125) (-3.972320556640625e-05, 5.490234375) (-3.947063446044922e-05, 5.4921875) (-3.929554748535156e-05, 5.494140625) (-3.919247055053711e-05, 5.49609375) (-3.915533447265625e-05, 5.498046875) (-3.917755889892578e-05, 5.5) (-3.9252094268798825e-05, 5.501953125) (-3.9371524810791016e-05, 5.50390625) (-3.9528144836425776e-05, 5.505859375) (-3.971400451660156e-05, 5.5078125) (-3.992098236083984e-05, 5.509765625) (-4.014080810546875e-05, 5.51171875) (-4.036514282226562e-05, 5.513671875) (-4.058563613891601e-05, 5.515625) (-4.079400634765625e-05, 5.517578125) (-4.098209762573242e-05, 5.51953125) (-4.11419563293457e-05, 5.521484375) (-4.126591110229492e-05, 5.5234375) (-4.134664916992187e-05, 5.525390625) (-4.1377323150634765e-05, 5.52734375) (-4.135161590576172e-05, 5.529296875) (-4.1263790130615234e-05, 5.53125) (-4.1108734130859375e-05, 5.533203125) (-4.088197708129883e-05, 5.53515625) (-4.057971954345703e-05, 5.537109375) (-4.019886779785156e-05, 5.5390625) (-3.973700714111328e-05, 5.541015625) (-3.919245910644531e-05, 5.54296875) (-3.856421661376953e-05, 5.544921875) (-3.785197448730469e-05, 5.546875) (-3.705613327026367e-05, 5.548828125) (-3.617779541015625e-05, 5.55078125) (-3.521872329711914e-05, 5.552734375) (-3.418134307861328e-05, 5.5546875) (-3.3068660736083986e-05, 5.556640625) (-3.188420104980469e-05, 5.55859375) (-3.063201332092285e-05, 5.560546875) (-2.9316612243652344e-05, 5.5625) (-2.7942924499511716e-05, 5.564453125) (-2.6516227722167967e-05, 5.56640625) (-2.504212188720703e-05, 5.568359375) (-2.3526473999023437e-05, 5.5703125) (-2.1975448608398437e-05, 5.572265625) (-2.039546203613281e-05, 5.57421875) (-1.8793142318725585e-05, 5.576171875) (-1.7175256729125976e-05, 5.578125) (-1.554867458343506e-05, 5.580078125) (-1.3920300483703612e-05, 5.58203125) (-1.2297033309936523e-05, 5.583984375) (-1.0685724258422851e-05, 5.5859375) (-9.093092918395996e-06, 5.587890625) (-7.525668144226074e-06, 5.58984375) (-5.98968505859375e-06, 5.591796875) (-4.491062164306641e-06, 5.59375) (-3.035372972488403e-06, 5.595703125) (-1.627822995185852e-06, 5.59765625) (-2.73216187953949e-07, 5.599609375) (1.024101734161377e-06, 5.6015625) (2.260322093963623e-06, 5.603515625) (3.432195901870727e-06, 5.60546875) (4.536975383758544e-06, 5.607421875) (5.572443008422851e-06, 5.609375) (6.536933898925781e-06, 5.611328125) (7.429340362548828e-06, 5.61328125) (8.249143600463867e-06, 5.615234375) (8.996339797973633e-06, 5.6171875) (9.671342849731445e-06, 5.619140625) (1.0274949073791504e-05, 5.62109375) (1.0808365821838378e-05, 5.623046875) (1.1273223876953124e-05, 5.625) (1.1671530723571777e-05, 5.626953125) (1.2005637168884277e-05, 5.62890625) (1.2278249740600585e-05, 5.630859375) (1.2492424011230467e-05, 5.6328125) (1.2651609420776367e-05, 5.634765625) (1.2759695053100586e-05, 5.63671875) (1.2820913314819336e-05, 5.638671875) (1.283976364135742e-05, 5.640625) (1.2820999145507813e-05, 5.642578125) (1.276959228515625e-05, 5.64453125) (1.2690688133239745e-05, 5.646484375) (1.258963108062744e-05, 5.6484375) (1.2471946716308593e-05, 5.650390625) (1.2343259811401367e-05, 5.65234375) (1.2209186553955077e-05, 5.654296875) (1.207536506652832e-05, 5.65625) (1.1947404861450195e-05, 5.658203125) (1.1830879211425781e-05, 5.66015625) (1.1731328964233399e-05, 5.662109375) (1.165410041809082e-05, 5.6640625) (1.1604153633117675e-05, 5.666015625) (1.1586065292358397e-05, 5.66796875) (1.1604147911071777e-05, 5.669921875) (1.1662373542785645e-05, 5.671875) (1.1764360427856444e-05, 5.673828125) (1.191327953338623e-05, 5.67578125) (1.2111711502075195e-05, 5.677734375) (1.2361824989318848e-05, 5.6796875) (1.2665472030639648e-05, 5.681640625) (1.3024205207824706e-05, 5.68359375) (1.3439178466796874e-05, 5.685546875) (1.3910929679870604e-05, 5.6875) (1.443949794769287e-05, 5.689453125) (1.5024534225463866e-05, 5.69140625) (1.5665042877197266e-05, 5.693359375) (1.6359411239624023e-05, 5.6953125) (1.7105327606201173e-05, 5.697265625) (1.7899358749389647e-05, 5.69921875) (1.873737144470215e-05, 5.701171875) (1.9614845275878906e-05, 5.703125) (2.0526441574096678e-05, 5.705078125) (2.1466213226318357e-05, 5.70703125) (2.2428085327148436e-05, 5.708984375) (2.3405385971069335e-05, 5.7109375) (2.4391294479370116e-05, 5.712890625) (2.537942886352539e-05, 5.71484375) (2.63629035949707e-05, 5.716796875) (2.733465576171875e-05, 5.71875) (2.828772163391113e-05, 5.720703125) (2.9214277267456053e-05, 5.72265625) (3.0106254577636718e-05, 5.724609375) (3.0955625534057615e-05, 5.7265625) (3.175394821166992e-05, 5.728515625) (3.249345016479492e-05, 5.73046875) (3.316712188720703e-05, 5.732421875) (3.3768085479736326e-05, 5.734375) (3.429131317138672e-05, 5.736328125) (3.4733940124511715e-05, 5.73828125) (3.509309387207031e-05, 5.740234375) (3.536713409423828e-05, 5.7421875) (3.55535659790039e-05, 5.744140625) (3.564677810668945e-05, 5.74609375) (3.564377212524414e-05, 5.748046875) (3.5542881011962886e-05, 5.75) (3.534204483032226e-05, 5.751953125) (3.504291534423828e-05, 5.75390625) (3.464936828613281e-05, 5.755859375) (3.4167938232421876e-05, 5.7578125) (3.361358642578125e-05, 5.759765625) (3.300677490234375e-05, 5.76171875) (3.236716842651367e-05, 5.763671875) (3.171655654907226e-05, 5.765625) (3.107411766052246e-05, 5.767578125) (3.045427322387695e-05, 5.76953125) (2.9876243591308593e-05, 5.771484375) (2.9357767105102537e-05, 5.7734375) (2.89180793762207e-05, 5.775390625) (2.8584178924560544e-05, 5.77734375) (2.8375396728515625e-05, 5.779296875) (2.830938911437988e-05, 5.78125) (2.840637397766113e-05, 5.783203125) (2.8676723480224607e-05, 5.78515625) (2.912557601928711e-05, 5.787109375) (2.9747400283813475e-05, 5.7890625) (3.050758361816406e-05, 5.791015625) (3.1355384826660156e-05, 5.79296875) (3.224224853515625e-05, 5.794921875) (3.3116775512695314e-05, 5.796875) (3.393988037109375e-05, 5.798828125) (3.467262649536133e-05, 5.80078125) (3.524949645996094e-05, 5.802734375) (3.5607810974121095e-05, 5.8046875) (3.568171691894531e-05, 5.806640625) (3.54011001586914e-05, 5.80859375) (3.47327880859375e-05, 5.810546875) (3.361643981933594e-05, 5.8125) (3.195528030395508e-05, 5.814453125) (2.9725141525268553e-05, 5.81640625) (2.6960481643676757e-05, 5.818359375) (2.3797023773193357e-05, 5.8203125) (2.0525505065917966e-05, 5.822265625) (1.7419620513916014e-05, 5.82421875) (1.4676835060119628e-05, 5.826171875) (1.2563966751098632e-05, 5.828125) (1.137330150604248e-05, 5.830078125) (1.1306158065795899e-05, 5.83203125) (1.2505634307861327e-05, 5.833984375) (1.4776165962219238e-05, 5.8359375) (1.758880043029785e-05, 5.837890625) (2.053686714172363e-05, 5.83984375) (2.3298744201660155e-05, 5.841796875) (2.5616994857788086e-05, 5.84375) (2.7330810546874998e-05, 5.845703125) (2.8223020553588864e-05, 5.84765625) (2.8221744537353516e-05, 5.849609375) (2.793803596496582e-05, 5.8515625) (2.8481071472167967e-05, 5.853515625) (3.0932479858398434e-05, 5.85546875) (3.644876861572266e-05, 5.857421875) (4.592264556884765e-05, 5.859375) (6.010354614257812e-05, 5.861328125) (8.013708496093749e-05, 5.86328125) (0.00010687469482421874, 5.865234375) (0.00014018350219726562, 5.8671875) (0.00017935113525390623, 5.869140625) (0.00022329237365722654, 5.87109375) (0.0002703208618164062, 5.873046875) (0.0003187240295410156, 5.875) (0.00036583477783203125, 5.876953125) (0.0004074292602539062, 5.87890625) (0.0004396700439453125, 5.880859375) (0.0004599578857421875, 5.8828125) (0.00046806866455078124, 5.884765625) (0.0004652372436523437, 5.88671875) (0.00045200952148437496, 5.888671875) (0.0004276730041503906, 5.890625) (0.00038805621337890625, 5.892578125) (0.0003291131896972656, 5.89453125) (0.0002494901580810547, 5.896484375) (0.00014941212463378905, 5.8984375) (3.6010326385498044e-05, 5.900390625) (-7.93766860961914e-05, 5.90234375) (-0.00018560296630859373, 5.904296875) (-0.00026992135620117186, 5.90625) (-0.00032459173583984375, 5.908203125) (-0.00034887704467773437, 5.91015625) (-0.0003443367614746094, 5.912109375) (-0.00031727130126953123, 5.9140625) (-0.0002768760375976562, 5.916015625) (-0.0002312237548828125, 5.91796875) (-0.0001898291320800781, 5.919921875) (-0.00015968997192382812, 5.921875) (-0.00014152978515624999, 5.923828125) (-0.00013220523071289062, 5.92578125) (-0.00012461054229736328, 5.927734375) (-0.00011253990936279297, 5.9296875) (-9.477658081054688e-05, 5.931640625) (-7.348857116699219e-05, 5.93359375) (-5.334040832519531e-05, 5.935546875) (-3.764554977416992e-05, 5.9375) (-2.666465377807617e-05, 5.939453125) (-1.9317602157592772e-05, 5.94140625) (-1.3489459991455078e-05, 5.943359375) (-7.647957801818848e-06, 5.9453125) (-1.357668399810791e-06, 5.947265625) (5.697824478149414e-06, 5.94921875) (1.3473920822143555e-05, 5.951171875) (2.1705856323242187e-05, 5.953125) (3.0229705810546874e-05, 5.955078125) (3.884023284912109e-05, 5.95703125) (4.7223388671875e-05, 5.958984375) (5.504351806640625e-05, 5.9609375) (6.190294647216796e-05, 5.962890625) (6.729380798339843e-05, 5.96484375) (7.095527648925781e-05, 5.966796875) (7.293562316894531e-05, 5.96875) (7.337913513183594e-05, 5.970703125) (7.252115631103515e-05, 5.97265625) (7.062648010253906e-05, 5.974609375) (6.790499114990234e-05, 5.9765625) (6.463082122802734e-05, 5.978515625) (6.11766128540039e-05, 5.98046875) (5.7812953948974604e-05, 5.982421875) (5.4706420898437496e-05, 5.984375) (5.198271942138672e-05, 5.986328125) (4.968881225585937e-05, 5.98828125) (4.78590087890625e-05, 5.990234375) (4.654750061035156e-05, 5.9921875) (4.575879669189453e-05, 5.994140625) (4.5451423645019526e-05, 5.99609375) (4.558817672729492e-05, 5.998046875) (4.611965942382812e-05, 6.0) (4.6994537353515624e-05, 6.001953125) (4.817583847045898e-05, 6.00390625) (4.960913848876953e-05, 6.005859375) (5.123248291015625e-05, 6.0078125) (5.298918914794922e-05, 6.009765625) (5.481477355957031e-05, 6.01171875) (5.664569854736328e-05, 6.013671875) (5.84276008605957e-05, 6.015625) (6.01016845703125e-05, 6.017578125) (6.161111831665039e-05, 6.01953125) (6.292258453369141e-05, 6.021484375) (6.401513671875e-05, 6.0234375) (6.48816909790039e-05, 6.025390625) (6.553564453125e-05, 6.02734375) (6.599438476562499e-05, 6.029296875) (6.628042602539062e-05, 6.03125) (6.642673492431641e-05, 6.033203125) (6.646929931640624e-05, 6.03515625) (6.644291687011718e-05, 6.037109375) (6.638220214843749e-05, 6.0390625) (6.631787109375e-05, 6.041015625) (6.627726745605469e-05, 6.04296875) (6.629114532470703e-05, 6.044921875) (6.638975524902344e-05, 6.046875) (6.660429382324219e-05, 6.048828125) (6.69678497314453e-05, 6.05078125) (6.750414276123046e-05, 6.052734375) (6.82298583984375e-05, 6.0546875) (6.915786743164062e-05, 6.056640625) (7.029403686523438e-05, 6.05859375) (7.164131164550781e-05, 6.060546875) (7.32010498046875e-05, 6.0625) (7.496866607666015e-05, 6.064453125) (7.693529510498046e-05, 6.06640625) (7.909381103515624e-05, 6.068359375) (8.143711090087891e-05, 6.0703125) (8.395838928222656e-05, 6.072265625) (8.665261840820311e-05, 6.07421875) (8.951168060302734e-05, 6.076171875) (9.252500915527344e-05, 6.078125) (9.56812744140625e-05, 6.080078125) (9.896733856201171e-05, 6.08203125) (0.0001023699493408203, 6.083984375) (0.00010587626647949219, 6.0859375) (0.00010947227478027343, 6.087890625) (0.00011314313507080077, 6.08984375) (0.00011687411499023437, 6.091796875) (0.00012065013885498046, 6.09375) (0.00012445648193359376, 6.095703125) (0.00012827903747558594, 6.09765625) (0.0001321024169921875, 6.099609375) (0.00013591012573242186, 6.1015625) (0.00013968539428710938, 6.103515625) (0.00014341104125976562, 6.10546875) (0.00014707008361816406, 6.107421875) (0.00015064608764648436, 6.109375) (0.0001541224822998047, 6.111328125) (0.00015748275756835936, 6.11328125) (0.00016071121215820313, 6.115234375) (0.00016379290771484375, 6.1171875) (0.00016671357727050782, 6.119140625) (0.00016946002197265625, 6.12109375) (0.0001720194396972656, 6.123046875) (0.00017437969970703125, 6.125) (0.00017652944946289063, 6.126953125) (0.00017845837402343748, 6.12890625) (0.00018015687561035156, 6.130859375) (0.00018161654663085937, 6.1328125) (0.00018282984924316407, 6.134765625) (0.0001837900695800781, 6.13671875) (0.00018449160766601563, 6.138671875) (0.00018492999267578125, 6.140625) (0.00018510179138183592, 6.142578125) (0.00018500473022460936, 6.14453125) (0.00018463761901855468, 6.146484375) (0.00018400030517578124, 6.1484375) (0.00018309375, 6.150390625) (0.00018192008972167968, 6.15234375) (0.00018048251342773437, 6.154296875) (0.00017878521728515625, 6.15625) (0.00017683343505859374, 6.158203125) (0.0001746332244873047, 6.16015625) (0.00017219163513183594, 6.162109375) (0.00016951658630371094, 6.1640625) (0.00016661676025390623, 6.166015625) (0.0001635015869140625, 6.16796875) (0.00016018125915527343, 6.169921875) (0.00015666668701171875, 6.171875) (0.00015296946716308592, 6.173828125) (0.00014910186767578125, 6.17578125) (0.0001450766906738281, 6.177734375) (0.00014090728759765623, 6.1796875) (0.0001366074523925781, 6.181640625) (0.00013219143676757811, 6.18359375) (0.00012767385864257812, 6.185546875) (0.00012306968688964844, 6.1875) (0.00011839404296875, 6.189453125) (0.00011366226196289063, 6.19140625) (0.0001088897705078125, 6.193359375) (0.00010409202575683593, 6.1953125) (9.928446960449218e-05, 6.197265625) (9.448245239257812e-05, 6.19921875) (8.97011489868164e-05, 6.201171875) (8.49554443359375e-05, 6.203125) (8.025990295410156e-05, 6.205078125) (7.56287612915039e-05, 6.20703125) (7.107570648193359e-05, 6.208984375) (6.661392974853515e-05, 6.2109375) (6.225600051879883e-05, 6.212890625) (5.801385116577148e-05, 6.21484375) (5.389872360229492e-05, 6.216796875) (4.9921134948730466e-05, 6.21875) (4.609086227416992e-05, 6.220703125) (4.241692733764648e-05, 6.22265625) (3.890754699707031e-05, 6.224609375) (3.557015228271484e-05, 6.2265625) (3.241136169433594e-05, 6.228515625) (2.9436941146850585e-05, 6.23046875) (2.6651756286621093e-05, 6.232421875) (2.4059757232666014e-05, 6.234375) (2.1663932800292966e-05, 6.236328125) (1.9466306686401365e-05, 6.23828125) (1.746794319152832e-05, 6.240234375) (1.5668933868408202e-05, 6.2421875) (1.4068398475646973e-05, 6.244140625) (1.2664514541625976e-05, 6.24609375) (1.1454555511474608e-05, 6.248046875) (1.0434941291809082e-05, 6.25) (9.601286888122559e-06, 6.251953125) (8.94843864440918e-06, 6.25390625) (8.470499992370604e-06, 6.255859375) (8.160892486572266e-06, 6.2578125) (8.012422561645507e-06, 6.259765625) (8.017345428466797e-06, 6.26171875) (8.167437553405761e-06, 6.263671875) (8.454056739807128e-06, 6.265625) (8.868200302124022e-06, 6.267578125) (9.400576591491698e-06, 6.26953125) (1.0041688919067382e-05, 6.271484375) (1.0781892776489257e-05, 6.2734375) (1.1611461639404296e-05, 6.275390625) (1.2520601272583006e-05, 6.27734375) (1.3499488830566405e-05, 6.279296875) (1.4538299560546874e-05, 6.28125) (1.562724494934082e-05, 6.283203125) (1.675662040710449e-05, 6.28515625) (1.791683578491211e-05, 6.287109375) (1.9098440170288086e-05, 6.2890625) (2.029216766357422e-05, 6.291015625) (2.148898887634277e-05, 6.29296875) (2.26801700592041e-05, 6.294921875) (2.385732078552246e-05, 6.296875) (2.5012449264526365e-05, 6.298828125) (2.613797378540039e-05, 6.30078125) (2.7226743698120116e-05, 6.302734375) (2.8272071838378904e-05, 6.3046875) (2.9267751693725585e-05, 6.306640625) (3.0208095550537107e-05, 6.30859375) (3.108791351318359e-05, 6.310546875) (3.1902538299560546e-05, 6.3125) (3.2647785186767575e-05, 6.314453125) (3.3319984436035155e-05, 6.31640625) (3.391596984863281e-05, 6.318359375) (3.443305587768554e-05, 6.3203125) (3.486902618408203e-05, 6.322265625) (3.5222061157226563e-05, 6.32421875) (3.549071884155273e-05, 6.326171875) (3.567388153076172e-05, 6.328125) (3.577073669433594e-05, 6.330078125) (3.578076171875e-05, 6.33203125) (3.570370864868164e-05, 6.333984375) (3.553954315185547e-05, 6.3359375) (3.528848648071289e-05, 6.337890625) (3.4950981140136715e-05, 6.33984375) (3.452771759033203e-05, 6.341796875) (3.401967239379883e-05, 6.34375) (3.342804718017578e-05, 6.345703125) (3.275428771972656e-05, 6.34765625) (3.200003433227539e-05, 6.349609375) (3.116711616516113e-05, 6.3515625) (3.0257558822631834e-05, 6.353515625) (2.9273557662963865e-05, 6.35546875) (2.8217458724975585e-05, 6.357421875) (2.709172821044922e-05, 6.359375) (2.589894676208496e-05, 6.361328125) (2.464179229736328e-05, 6.36328125) (2.3323057174682615e-05, 6.365234375) (2.194561195373535e-05, 6.3671875) 