(-0.0001517768096923828, 0.0) (-9.719615173339844e-05, 0.001953125) (-7.0669921875e-05, 0.00390625) (-6.560447692871094e-05, 0.005859375) (-7.052258300781249e-05, 0.0078125) (-7.361094665527344e-05, 0.009765625) (-7.01280517578125e-05, 0.01171875) (-6.145545578002929e-05, 0.013671875) (-5.2412006378173826e-05, 0.015625) (-4.61048355102539e-05, 0.017578125) (-4.256510162353515e-05, 0.01953125) (-4.0051822662353515e-05, 0.021484375) (-3.576234436035156e-05, 0.0234375) (-2.8825788497924803e-05, 0.025390625) (-2.0147111892700196e-05, 0.02734375) (-1.0609601974487305e-05, 0.029296875) (-1.4001576900482178e-06, 0.03125) (6.428759574890136e-06, 0.033203125) (1.2637929916381836e-05, 0.03515625) (1.7096107482910156e-05, 0.037109375) (1.9741455078125e-05, 0.0390625) (2.094378662109375e-05, 0.041015625) (2.1090953826904297e-05, 0.04296875) (2.0484184265136717e-05, 0.044921875) (1.952516937255859e-05, 0.046875) (1.861168098449707e-05, 0.048828125) (1.7954633712768555e-05, 0.05078125) (1.7692970275878905e-05, 0.052734375) (1.791101264953613e-05, 0.0546875) (1.8533447265625e-05, 0.056640625) (1.9484025955200193e-05, 0.05859375) (2.0709306716918944e-05, 0.060546875) (2.2111591339111327e-05, 0.0625) (2.3615585327148438e-05, 0.064453125) (2.5178577423095702e-05, 0.06640625) (2.676394271850586e-05, 0.068359375) (2.834710693359375e-05, 0.0703125) (2.9927978515625e-05, 0.072265625) (3.149821662902832e-05, 0.07421875) (3.3026214599609376e-05, 0.076171875) (3.44943618774414e-05, 0.078125) (3.58737678527832e-05, 0.080078125) (3.712679672241211e-05, 0.08203125) (3.822251129150391e-05, 0.083984375) (3.911637115478515e-05, 0.0859375) (3.9779708862304683e-05, 0.087890625) (4.020712661743164e-05, 0.08984375) (4.0407028198242184e-05, 0.091796875) (4.039529800415039e-05, 0.09375) (4.018690490722656e-05, 0.095703125) (3.9796390533447266e-05, 0.09765625) (3.923217010498047e-05, 0.099609375) (3.850803756713867e-05, 0.1015625) (3.762998580932617e-05, 0.103515625) (3.659376525878906e-05, 0.10546875) (3.540559005737304e-05, 0.107421875) (3.4069828033447265e-05, 0.109375) (3.260160064697265e-05, 0.111328125) (3.103004264831543e-05, 0.11328125) (2.9391170501708984e-05, 0.115234375) (2.7732147216796874e-05, 0.1171875) (2.6092008590698242e-05, 0.119140625) (2.4498022079467772e-05, 0.12109375) (2.2966934204101562e-05, 0.123046875) (2.150885963439941e-05, 0.125) (2.0131195068359375e-05, 0.126953125) (1.8838180541992186e-05, 0.12890625) (1.7633949279785155e-05, 0.130859375) (1.6517183303833007e-05, 0.1328125) (1.5492425918579102e-05, 0.134765625) (1.4572277069091796e-05, 0.13671875) (1.3766207695007324e-05, 0.138671875) (1.3083119392395018e-05, 0.140625) (1.2524240493774413e-05, 0.142578125) (1.208145523071289e-05, 0.14453125) (1.173984146118164e-05, 0.146484375) (1.147819423675537e-05, 0.1484375) (1.127678394317627e-05, 0.150390625) (1.1118146896362305e-05, 0.15234375) (1.0988969802856445e-05, 0.154296875) (1.0879421234130859e-05, 0.15625) (1.0781521797180175e-05, 0.158203125) (1.0689855575561523e-05, 0.16015625) (1.0601510047912597e-05, 0.162109375) (1.051659870147705e-05, 0.1640625) (1.0432405471801757e-05, 0.166015625) (1.0342687606811523e-05, 0.16796875) (1.0240142822265625e-05, 0.169921875) (1.0116495132446288e-05, 0.171875) (9.965742111206054e-06, 0.173828125) (9.784211158752442e-06, 0.17578125) (9.569634437561034e-06, 0.177734375) (9.320927619934081e-06, 0.1796875) (9.037364959716797e-06, 0.181640625) (8.718822479248047e-06, 0.18359375) (8.364892959594727e-06, 0.185546875) (7.9745454788208e-06, 0.1875) (7.546067237854003e-06, 0.189453125) (7.0769901275634764e-06, 0.19140625) (6.563905715942382e-06, 0.193359375) (6.002768039703369e-06, 0.1953125) (5.390399932861328e-06, 0.197265625) (4.724390029907227e-06, 0.19921875) (4.003241062164307e-06, 0.201171875) (3.2265579700469967e-06, 0.203125) (2.3942012786865232e-06, 0.205078125) (1.5063378810882568e-06, 0.20703125) (5.638000965118408e-07, 0.208984375) (-4.3213093280792235e-07, 0.2109375) (-1.4801948070526123e-06, 0.212890625) (-2.5791025161743162e-06, 0.21484375) (-3.7275664806365966e-06, 0.216796875) (-4.9242477416992186e-06, 0.21875) (-6.1673679351806635e-06, 0.220703125) (-7.454803466796875e-06, 0.22265625) (-8.78424072265625e-06, 0.224609375) (-1.0153125762939453e-05, 0.2265625) (-1.1558714866638184e-05, 0.228515625) (-1.2998069763183593e-05, 0.23046875) (-1.446805477142334e-05, 0.232421875) (-1.596553039550781e-05, 0.234375) (-1.748734664916992e-05, 0.236328125) (-1.9030256271362305e-05, 0.23828125) (-2.05909423828125e-05, 0.240234375) (-2.2165945053100584e-05, 0.2421875) (-2.3751663208007813e-05, 0.244140625) (-2.5344436645507813e-05, 0.24609375) (-2.694051933288574e-05, 0.248046875) (-2.8536033630371094e-05, 0.25) (-3.0127086639404294e-05, 0.251953125) (-3.1709831237792964e-05, 0.25390625) (-3.328043746948242e-05, 0.255859375) (-3.483514785766601e-05, 0.2578125) (-3.637030792236328e-05, 0.259765625) (-3.788225173950195e-05, 0.26171875) (-3.9367439270019526e-05, 0.263671875) (-4.0822391510009765e-05, 0.265625) (-4.224366760253906e-05, 0.267578125) (-4.3627887725830075e-05, 0.26953125) (-4.497175598144531e-05, 0.271484375) (-4.627210235595703e-05, 0.2734375) (-4.752582550048828e-05, 0.275390625) (-4.872997283935547e-05, 0.27734375) (-4.988175201416015e-05, 0.279296875) (-5.0978584289550776e-05, 0.28125) (-5.2018127441406246e-05, 0.283203125) (-5.299821472167968e-05, 0.28515625) (-5.391686248779297e-05, 0.287109375) (-5.477220153808593e-05, 0.2890625) (-5.5562499999999995e-05, 0.291015625) (-5.6286136627197263e-05, 0.29296875) (-5.694158935546875e-05, 0.294921875) (-5.7527427673339844e-05, 0.296875) (-5.804231262207031e-05, 0.298828125) (-5.848509216308593e-05, 0.30078125) (-5.8854797363281246e-05, 0.302734375) (-5.915066528320312e-05, 0.3046875) (-5.9372123718261716e-05, 0.306640625) (-5.951873016357422e-05, 0.30859375) (-5.959014892578125e-05, 0.310546875) (-5.958613967895508e-05, 0.3125) (-5.95064468383789e-05, 0.314453125) (-5.9350780487060546e-05, 0.31640625) (-5.911881256103515e-05, 0.318359375) (-5.881017303466797e-05, 0.3203125) (-5.8424545288085933e-05, 0.322265625) (-5.796168136596679e-05, 0.32421875) (-5.7421485900878904e-05, 0.326171875) (-5.68040542602539e-05, 0.328125) (-5.6109680175781245e-05, 0.330078125) (-5.533885955810546e-05, 0.33203125) (-5.449226379394531e-05, 0.333984375) (-5.357067489624023e-05, 0.3359375) (-5.257493591308594e-05, 0.337890625) (-5.150592041015625e-05, 0.33984375) (-5.0364452362060544e-05, 0.341796875) (-4.9151321411132814e-05, 0.34375) (-4.786730575561523e-05, 0.345703125) (-4.651323318481445e-05, 0.34765625) (-4.5090003967285156e-05, 0.349609375) (-4.359866333007812e-05, 0.3515625) (-4.2040412902832026e-05, 0.353515625) (-4.04166374206543e-05, 0.35546875) (-3.872891616821289e-05, 0.357421875) (-3.697898483276367e-05, 0.359375) (-3.51686897277832e-05, 0.361328125) (-3.329998016357422e-05, 0.36328125) (-3.137488174438476e-05, 0.365234375) (-2.939553642272949e-05, 0.3671875) (-2.7364261627197264e-05, 0.369140625) (-2.528358268737793e-05, 0.37109375) (-2.315633773803711e-05, 0.373046875) (-2.0985721588134764e-05, 0.375) (-1.8775339126586912e-05, 0.376953125) (-1.6529258728027342e-05, 0.37890625) (-1.4251985549926757e-05, 0.380859375) (-1.1948397636413574e-05, 0.3828125) (-9.623687744140625e-06, 0.384765625) (-7.2832660675048825e-06, 0.38671875) (-4.932691097259521e-06, 0.388671875) (-2.57764196395874e-06, 0.390625) (-2.238902449607849e-07, 0.392578125) (2.122696876525879e-06, 0.39453125) (4.456129550933838e-06, 0.396484375) (6.770263671875e-06, 0.3984375) (9.058765411376953e-06, 0.400390625) (1.1315052986145019e-05, 0.40234375) (1.3532320022583007e-05, 0.404296875) (1.5703566551208497e-05, 0.40625) (1.7821666717529297e-05, 0.408203125) (1.987944984436035e-05, 0.41015625) (2.1869766235351563e-05, 0.412109375) (2.3785499572753906e-05, 0.4140625) (2.561963653564453e-05, 0.416015625) (2.736529731750488e-05, 0.41796875) (2.9015712738037107e-05, 0.419921875) (3.056423568725586e-05, 0.421875) (3.2004337310791014e-05, 0.423828125) (3.332956314086914e-05, 0.42578125) (3.453364562988281e-05, 0.427734375) (3.56105842590332e-05, 0.4296875) (3.655471801757812e-05, 0.431640625) (3.736088562011719e-05, 0.43359375) (3.802453231811523e-05, 0.435546875) (3.8541786193847657e-05, 0.4375) (3.890953826904297e-05, 0.439453125) (3.9125541687011715e-05, 0.44140625) (3.918834686279297e-05, 0.443359375) (3.9097259521484376e-05, 0.4453125) (3.8852355957031246e-05, 0.447265625) (3.845427703857422e-05, 0.44921875) (3.790430450439453e-05, 0.451171875) (3.720435333251953e-05, 0.453125) (3.635698318481445e-05, 0.455078125) (3.536542510986328e-05, 0.45703125) (3.423360443115234e-05, 0.458984375) (3.296612548828125e-05, 0.4609375) (3.1568294525146486e-05, 0.462890625) (3.0046270370483397e-05, 0.46484375) (2.8406909942626953e-05, 0.466796875) (2.6657760620117186e-05, 0.46875) (2.4806957244873045e-05, 0.470703125) (2.2862926483154297e-05, 0.47265625) (2.083450698852539e-05, 0.474609375) (1.8731002807617187e-05, 0.4765625) (1.6561969757080078e-05, 0.478515625) (1.4337530136108398e-05, 0.48046875) (1.206846523284912e-05, 0.482421875) (9.765524864196776e-06, 0.484375) (7.439544677734375e-06, 0.486328125) (5.102155685424804e-06, 0.48828125) (2.764997959136963e-06, 0.490234375) (4.4044113159179685e-07, 0.4921875) (-1.857947826385498e-06, 0.494140625) (-4.119509696960449e-06, 0.49609375) (-6.336375713348388e-06, 0.498046875) (-8.499695777893065e-06, 0.5) (-1.0600966453552246e-05, 0.501953125) (-1.2631250381469726e-05, 0.50390625) (-1.4578376770019531e-05, 0.505859375) (-1.6436107635498045e-05, 0.5078125) (-1.8205808639526365e-05, 0.509765625) (-1.98763427734375e-05, 0.51171875) (-2.142754364013672e-05, 0.513671875) (-2.284346580505371e-05, 0.515625) (-2.4106346130371092e-05, 0.517578125) (-2.5213064193725585e-05, 0.51953125) (-2.618362808227539e-05, 0.521484375) (-2.701747131347656e-05, 0.5234375) (-2.7689876556396483e-05, 0.525390625) (-2.82198371887207e-05, 0.52734375) (-2.865763473510742e-05, 0.529296875) (-2.9042747497558592e-05, 0.53125) (-2.9421073913574217e-05, 0.533203125) (-2.9796501159667968e-05, 0.53515625) (-3.0105442047119138e-05, 0.537109375) (-3.0336692810058592e-05, 0.5390625) (-3.056353759765625e-05, 0.541015625) (-3.071010971069336e-05, 0.54296875) (-3.053165054321289e-05, 0.544921875) (-2.999405288696289e-05, 0.546875) (-2.91713809967041e-05, 0.548828125) (-2.8036895751953125e-05, 0.55078125) (-2.68836612701416e-05, 0.552734375) (-2.5158456802368164e-05, 0.5546875) (-2.1326541900634766e-05, 0.556640625) (-1.5841169357299804e-05, 0.55859375) (-1.0079704284667969e-05, 0.560546875) (-6.485748767852783e-06, 0.5625) (-9.48385238647461e-06, 0.564453125) (-1.850213813781738e-05, 0.56640625) (-2.919011116027832e-05, 0.568359375) (-3.7105587005615236e-05, 0.5703125) (-3.5952754974365235e-05, 0.572265625) (-2.575736618041992e-05, 0.57421875) (-1.2396990776062011e-05, 0.576171875) (-3.868918418884277e-07, 0.578125) (5.266734123229981e-06, 0.580078125) (4.0184326171875e-06, 0.58203125) (2.7615785598754884e-07, 0.583984375) (-3.3623571395874024e-06, 0.5859375) (-5.000681400299072e-06, 0.587890625) (-4.212641239166259e-06, 0.58984375) (-2.8141798973083495e-06, 0.591796875) (-1.55171000957489e-06, 0.59375) (-3.8726425170898437e-07, 0.595703125) (6.247701644897461e-07, 0.59765625) (1.7598254680633544e-06, 0.599609375) (3.062503099441528e-06, 0.6015625) (4.287032127380371e-06, 0.603515625) (5.361650943756103e-06, 0.60546875) (6.321113586425781e-06, 0.607421875) (7.153783798217773e-06, 0.609375) (7.848438262939452e-06, 0.611328125) (8.420069694519042e-06, 0.61328125) (8.88093376159668e-06, 0.615234375) (9.250718116760253e-06, 0.6171875) (9.567548751831054e-06, 0.619140625) (9.835968017578125e-06, 0.62109375) (1.0026639938354491e-05, 0.623046875) (1.0125659942626953e-05, 0.625) (1.0120960235595703e-05, 0.626953125) (9.986801147460937e-06, 0.62890625) (9.704194068908691e-06, 0.630859375) (9.251737594604492e-06, 0.6328125) (8.607994079589843e-06, 0.634765625) (7.774209976196289e-06, 0.63671875) (6.754920959472656e-06, 0.638671875) (5.548095703125e-06, 0.640625) (4.14875841140747e-06, 0.642578125) (2.543102264404297e-06, 0.64453125) (7.264573574066162e-07, 0.646484375) (-1.2823113203048706e-06, 0.6484375) (-3.45893383026123e-06, 0.650390625) (-5.784568786621093e-06, 0.65234375) (-8.229718208312987e-06, 0.654296875) (-1.076284408569336e-05, 0.65625) (-1.3331602096557617e-05, 0.658203125) (-1.58399600982666e-05, 0.66015625) (-1.8197202682495115e-05, 0.662109375) (-2.0320758819580076e-05, 0.6640625) (-2.213637924194336e-05, 0.666015625) (-2.360647201538086e-05, 0.66796875) (-2.4696651458740233e-05, 0.669921875) (-2.5361499786376953e-05, 0.671875) (-2.5558486938476562e-05, 0.673828125) (-2.525e-05, 0.67578125) (-2.4425148010253905e-05, 0.677734375) (-2.3128139495849607e-05, 0.6796875) (-2.142341423034668e-05, 0.681640625) (-1.935766792297363e-05, 0.68359375) (-1.6985126495361326e-05, 0.685546875) (-1.4357009887695312e-05, 0.6875) (-1.1578523635864258e-05, 0.689453125) (-8.851707458496093e-06, 0.69140625) (-6.3793611526489255e-06, 0.693359375) (-4.357057094573975e-06, 0.6953125) (-2.9556317329406737e-06, 0.697265625) (-2.281072616577148e-06, 0.69921875) (-2.4920897483825683e-06, 0.701171875) (-3.827429056167603e-06, 0.703125) (-6.45616626739502e-06, 0.705078125) (-1.0438759803771973e-05, 0.70703125) (-1.5699307441711425e-05, 0.708984375) (-2.1951202392578124e-05, 0.7109375) (-2.888827896118164e-05, 0.712890625) (-3.6315479278564455e-05, 0.71484375) (-4.3910934448242185e-05, 0.716796875) (-5.1232826232910153e-05, 0.71875) (-5.796110916137695e-05, 0.720703125) (-6.393247604370117e-05, 0.72265625) (-6.93099136352539e-05, 0.724609375) (-7.462070465087891e-05, 0.7265625) (-8.053576660156249e-05, 0.728515625) (-8.764619445800781e-05, 0.73046875) (-9.656805419921875e-05, 0.732421875) (-0.00010810372924804687, 0.734375) (-0.00012179725646972656, 0.736328125) (-0.00013576739501953123, 0.73828125) (-0.00014816412353515625, 0.740234375) (-0.00015662001037597656, 0.7421875) (-0.00016106674194335936, 0.744140625) (-0.0001645446014404297, 0.74609375) (-0.00016721453857421875, 0.748046875) (-0.00016734173583984375, 0.75) (-0.0001595252990722656, 0.751953125) (-0.00013282249450683592, 0.75390625) (-8.115423583984375e-05, 0.755859375) (-2.4289703369140624e-06, 0.7578125) (0.00010034385681152344, 0.759765625) (0.000213901123046875, 0.76171875) (0.0003245425109863281, 0.763671875) (0.0004181165771484375, 0.765625) (0.00048290380859375, 0.767578125) (0.0005181376953125, 0.76953125) (0.000528799560546875, 0.771484375) (0.0005241832885742188, 0.7734375) (0.0005135470581054687, 0.775390625) (0.0004994469299316406, 0.77734375) (0.00048019931030273436, 0.779296875) (0.0004522422180175781, 0.78125) (0.0004145272827148437, 0.783203125) (0.0003695844116210937, 0.78515625) (0.000320436767578125, 0.787109375) (0.0002711098937988281, 0.7890625) (0.00022269918823242187, 0.791015625) (0.00017508642578125, 0.79296875) (0.00013222679138183592, 0.794921875) (9.610354614257813e-05, 0.796875) (6.911512756347656e-05, 0.798828125) (5.4123111724853514e-05, 0.80078125) (4.696849822998047e-05, 0.802734375) (4.406154251098633e-05, 0.8046875) (4.2559921264648434e-05, 0.806640625) (3.7907653808593746e-05, 0.80859375) (3.0553009033203124e-05, 0.810546875) (2.1669334411621094e-05, 0.8125) (1.132341194152832e-05, 0.814453125) (9.289417266845703e-07, 0.81640625) (-9.698064804077148e-06, 0.818359375) (-2.103273391723633e-05, 0.8203125) (-3.2367980957031246e-05, 0.822265625) (-4.295830535888672e-05, 0.82421875) (-5.1892032623291015e-05, 0.826171875) (-5.851192474365234e-05, 0.828125) (-6.281735610961913e-05, 0.830078125) (-6.511103820800781e-05, 0.83203125) (-6.57578125e-05, 0.833984375) (-6.511381530761718e-05, 0.8359375) (-6.35505142211914e-05, 0.837890625) (-6.154010009765625e-05, 0.83984375) (-5.9578701019287105e-05, 0.841796875) (-5.802361679077148e-05, 0.84375) (-5.7079650878906246e-05, 0.845703125) (-5.6803867340087885e-05, 0.84765625) (-5.717256927490234e-05, 0.849609375) (-5.816300582885742e-05, 0.8515625) (-5.974465942382812e-05, 0.853515625) (-6.185861206054687e-05, 0.85546875) (-6.441694641113281e-05, 0.857421875) (-6.733269500732422e-05, 0.859375) (-7.051969909667968e-05, 0.861328125) (-7.389936065673828e-05, 0.86328125) (-7.740594482421875e-05, 0.865234375) (-8.095724487304687e-05, 0.8671875) (-8.446240234375e-05, 0.869140625) (-8.782638549804686e-05, 0.87109375) (-9.095127868652343e-05, 0.873046875) (-9.374478149414062e-05, 0.875) (-9.612480163574218e-05, 0.876953125) (-9.803726196289063e-05, 0.87890625) (-9.945108032226562e-05, 0.880859375) (-0.00010035517883300781, 0.8828125) (-0.00010075589752197266, 0.884765625) (-0.00010066499328613281, 0.88671875) (-0.00010010324096679688, 0.888671875) (-9.9103759765625e-05, 0.890625) (-9.77088623046875e-05, 0.892578125) (-9.596083831787109e-05, 0.89453125) (-9.390029144287109e-05, 0.896484375) (-9.156527709960937e-05, 0.8984375) (-8.899009704589843e-05, 0.900390625) (-8.621537017822266e-05, 0.90234375) (-8.328421020507813e-05, 0.904296875) (-8.023823547363281e-05, 0.90625) (-7.711753845214843e-05, 0.908203125) (-7.394993591308593e-05, 0.91015625) (-7.075321197509765e-05, 0.912109375) (-6.754058074951172e-05, 0.9140625) (-6.43200225830078e-05, 0.916015625) (-6.109618759155274e-05, 0.91796875) (-5.7871292114257807e-05, 0.919921875) (-5.464226531982422e-05, 0.921875) (-5.140209579467773e-05, 0.923828125) (-4.8146793365478513e-05, 0.92578125) (-4.4874092102050776e-05, 0.927734375) (-4.158256149291992e-05, 0.9296875) (-3.82722282409668e-05, 0.931640625) (-3.493990325927734e-05, 0.93359375) (-3.1580089569091794e-05, 0.935546875) (-2.8186916351318356e-05, 0.9375) (-2.475348091125488e-05, 0.939453125) (-2.127376937866211e-05, 0.94140625) (-1.7743072509765623e-05, 0.943359375) (-1.4156314849853515e-05, 0.9453125) (-1.0508390426635742e-05, 0.947265625) (-6.795272350311279e-06, 0.94921875) (-3.013360023498535e-06, 0.951171875) (8.394026160240173e-07, 0.953125) (4.763346672058105e-06, 0.955078125) (8.760262489318847e-06, 0.95703125) (1.2833232879638671e-05, 0.958984375) (1.698621940612793e-05, 0.9609375) (2.122449493408203e-05, 0.962890625) (2.555287170410156e-05, 0.96484375) (2.9975269317626953e-05, 0.966796875) (3.449623107910156e-05, 0.96875) (3.912034225463867e-05, 0.970703125) (4.385161590576172e-05, 0.97265625) (4.8694217681884764e-05, 0.974609375) (5.364946746826172e-05, 0.9765625) (5.871550369262695e-05, 0.978515625) (6.389128875732422e-05, 0.98046875) (6.917561340332031e-05, 0.982421875) (7.456884765625e-05, 0.984375) (8.007415771484374e-05, 0.986328125) (8.56899185180664e-05, 0.98828125) (9.140883636474609e-05, 0.990234375) (9.722182464599608e-05, 0.9921875) (0.00010311624145507812, 0.994140625) (0.00010907733154296875, 0.99609375) (0.00011509004974365234, 0.998046875) (0.00012113053894042968, 1.0) (0.00012716669464111327, 1.001953125) (0.00013316793823242186, 1.00390625) (0.00013910394287109374, 1.005859375) (0.0001449534912109375, 1.0078125) (0.0001507073516845703, 1.009765625) (0.00015635189819335936, 1.01171875) (0.00016187159729003905, 1.013671875) (0.0001672514190673828, 1.015625) (0.00017247232055664062, 1.017578125) (0.0001775272979736328, 1.01953125) (0.00018242303466796874, 1.021484375) (0.00018715870666503905, 1.0234375) (0.00019172991943359373, 1.025390625) (0.00019613592529296874, 1.02734375) (0.00020037274169921874, 1.029296875) (0.00020445584106445312, 1.03125) (0.00020842120361328124, 1.033203125) (0.00021229112243652343, 1.03515625) (0.00021607940673828123, 1.037109375) (0.00021978152465820312, 1.0390625) (0.00022336582946777344, 1.041015625) (0.0002268079376220703, 1.04296875) (0.00023008946228027344, 1.044921875) (0.0002331787872314453, 1.046875) (0.00023604196166992188, 1.048828125) (0.0002386288146972656, 1.05078125) (0.00024086666870117186, 1.052734375) (0.0002427080383300781, 1.0546875) (0.00024412738037109374, 1.056640625) (0.00024508969116210935, 1.05859375) (0.00024556597900390626, 1.060546875) (0.0002455022277832031, 1.0625) (0.0002448134307861328, 1.064453125) (0.00024344396972656248, 1.06640625) (0.000241357666015625, 1.068359375) (0.00023853283691406248, 1.0703125) (0.00023498062133789062, 1.072265625) (0.0002307045440673828, 1.07421875) (0.0002256953887939453, 1.076171875) (0.0002199739532470703, 1.078125) (0.0002135760040283203, 1.080078125) (0.00020654502868652343, 1.08203125) (0.00019895289611816406, 1.083984375) (0.00019083975219726562, 1.0859375) (0.0001822111358642578, 1.087890625) (0.00017309844970703125, 1.08984375) (0.00016353704833984374, 1.091796875) (0.00015358416748046874, 1.09375) (0.00014333444213867187, 1.095703125) (0.00013285565185546875, 1.09765625) (0.00012219927978515625, 1.099609375) (0.00011142993164062499, 1.1015625) (0.00010060137939453125, 1.103515625) (8.977674865722656e-05, 1.10546875) (7.904531860351563e-05, 1.107421875) (6.846710205078124e-05, 1.109375) (5.808502960205078e-05, 1.111328125) (4.7961181640624996e-05, 1.11328125) (3.813768005371093e-05, 1.115234375) (2.867629814147949e-05, 1.1171875) (1.967253875732422e-05, 1.119140625) (1.1185307502746582e-05, 1.12109375) (3.2568039894104004e-06, 1.123046875) (-4.072057723999023e-06, 1.125) (-1.078439712524414e-05, 1.126953125) (-1.6855400085449217e-05, 1.12890625) (-2.2252307891845703e-05, 1.130859375) (-2.6979402542114256e-05, 1.1328125) (-3.105945587158203e-05, 1.134765625) (-3.4518608093261716e-05, 1.13671875) (-3.741227722167969e-05, 1.138671875) (-3.978261947631836e-05, 1.140625) (-4.166111373901367e-05, 1.142578125) (-4.311930084228516e-05, 1.14453125) (-4.4224727630615234e-05, 1.146484375) (-4.5040260314941406e-05, 1.1484375) (-4.564657211303711e-05, 1.150390625) (-4.609386444091796e-05, 1.15234375) (-4.641068267822265e-05, 1.154296875) (-4.665303421020508e-05, 1.15625) (-4.688369750976562e-05, 1.158203125) (-4.715565490722656e-05, 1.16015625) (-4.752693176269531e-05, 1.162109375) (-4.802296447753906e-05, 1.1640625) (-4.8640773773193355e-05, 1.166015625) (-4.938909912109375e-05, 1.16796875) (-5.026415634155273e-05, 1.169921875) (-5.126051330566406e-05, 1.171875) (-5.237788391113281e-05, 1.173828125) (-5.358317947387695e-05, 1.17578125) (-5.4839027404785155e-05, 1.177734375) (-5.613298797607422e-05, 1.1796875) (-5.745741271972656e-05, 1.181640625) (-5.882122039794922e-05, 1.18359375) (-6.025288391113281e-05, 1.185546875) (-6.174290466308593e-05, 1.1875) (-6.325370788574218e-05, 1.189453125) (-6.476601409912109e-05, 1.19140625) (-6.625863647460937e-05, 1.193359375) (-6.772459411621093e-05, 1.1953125) (-6.917864227294922e-05, 1.197265625) (-7.061742401123047e-05, 1.19921875) (-7.203252410888672e-05, 1.201171875) (-7.342694091796874e-05, 1.203125) (-7.480573272705077e-05, 1.205078125) (-7.618653106689453e-05, 1.20703125) (-7.759226989746093e-05, 1.208984375) (-7.902051544189453e-05, 1.2109375) (-8.045309448242187e-05, 1.212890625) (-8.186785125732421e-05, 1.21484375) (-8.323118591308593e-05, 1.216796875) (-8.453573608398438e-05, 1.21875) (-8.580026245117188e-05, 1.220703125) (-8.702820587158202e-05, 1.22265625) (-8.82206802368164e-05, 1.224609375) (-8.93770294189453e-05, 1.2265625) (-9.048566436767578e-05, 1.228515625) (-9.154660034179687e-05, 1.23046875) (-9.25688247680664e-05, 1.232421875) (-9.354769897460937e-05, 1.234375) (-9.447056579589844e-05, 1.236328125) (-9.532431030273436e-05, 1.23828125) (-9.609233856201172e-05, 1.240234375) (-9.677066040039062e-05, 1.2421875) (-9.736721038818359e-05, 1.244140625) (-9.788771057128906e-05, 1.24609375) (-9.834056854248047e-05, 1.248046875) (-9.872510528564453e-05, 1.25) (-9.902894592285156e-05, 1.251953125) (-9.924674224853516e-05, 1.25390625) (-9.937667083740234e-05, 1.255859375) (-9.94157257080078e-05, 1.2578125) (-9.936412048339844e-05, 1.259765625) (-9.921926116943359e-05, 1.26171875) (-9.897450256347656e-05, 1.263671875) (-9.86318588256836e-05, 1.265625) (-9.820081329345702e-05, 1.267578125) (-9.768971252441406e-05, 1.26953125) (-9.710853576660155e-05, 1.271484375) (-9.646498870849609e-05, 1.2734375) (-9.576298522949218e-05, 1.275390625) (-9.500917816162109e-05, 1.27734375) (-9.421184539794922e-05, 1.279296875) (-9.337986755371093e-05, 1.28125) (-9.252407836914061e-05, 1.283203125) (-9.165444946289063e-05, 1.28515625) (-9.077967834472656e-05, 1.287109375) (-8.990945434570312e-05, 1.2890625) (-8.90538330078125e-05, 1.291015625) (-8.822276306152343e-05, 1.29296875) (-8.742671966552734e-05, 1.294921875) (-8.667399597167968e-05, 1.296875) (-8.597038269042968e-05, 1.298828125) (-8.532192993164062e-05, 1.30078125) (-8.473461914062499e-05, 1.302734375) (-8.42139434814453e-05, 1.3046875) (-8.376557922363281e-05, 1.306640625) (-8.339410400390624e-05, 1.30859375) (-8.310285949707031e-05, 1.310546875) (-8.289530944824219e-05, 1.3125) (-8.277501678466797e-05, 1.314453125) (-8.274459838867187e-05, 1.31640625) (-8.280612182617186e-05, 1.318359375) (-8.296075439453125e-05, 1.3203125) (-8.320852661132812e-05, 1.322265625) (-8.354899597167969e-05, 1.32421875) (-8.398114013671875e-05, 1.326171875) (-8.450304412841796e-05, 1.328125) (-8.511193084716796e-05, 1.330078125) (-8.580435943603516e-05, 1.33203125) (-8.657601928710938e-05, 1.333984375) (-8.742190551757812e-05, 1.3359375) (-8.833651733398437e-05, 1.337890625) (-8.931368255615234e-05, 1.33984375) (-9.034683227539062e-05, 1.341796875) (-9.142906188964843e-05, 1.34375) (-9.255323791503906e-05, 1.345703125) (-9.371208190917969e-05, 1.34765625) (-9.489825439453125e-05, 1.349609375) (-9.61043701171875e-05, 1.3515625) (-9.73229751586914e-05, 1.353515625) (-9.854669189453124e-05, 1.35546875) (-9.976818847656249e-05, 1.357421875) (-0.00010098025512695312, 1.359375) (-0.00010217591857910155, 1.361328125) (-0.00010334830474853515, 1.36328125) (-0.00010449066162109375, 1.365234375) (-0.00010559660339355468, 1.3671875) (-0.00010665999603271484, 1.369140625) (-0.00010767497253417968, 1.37109375) (-0.00010863609313964843, 1.373046875) (-0.00010953798675537109, 1.375) (-0.00011037541961669922, 1.376953125) (-0.0001111435546875, 1.37890625) (-0.00011183793640136718, 1.380859375) (-0.00011245450592041016, 1.3828125) (-0.00011298969268798828, 1.384765625) (-0.00011344041442871094, 1.38671875) (-0.00011380410766601563, 1.388671875) (-0.00011407894897460937, 1.390625) (-0.00011426378631591796, 1.392578125) (-0.00011435817718505858, 1.39453125) (-0.00011436234283447266, 1.396484375) (-0.00011427716064453125, 1.3984375) (-0.00011410405731201171, 1.400390625) (-0.00011384500885009765, 1.40234375) (-0.00011350253295898437, 1.404296875) (-0.00011307954406738281, 1.40625) (-0.00011257942199707031, 1.408203125) (-0.00011200579833984375, 1.41015625) (-0.00011136267852783202, 1.412109375) (-0.000110654296875, 1.4140625) (-0.00010988514709472656, 1.416015625) (-0.00010905995178222656, 1.41796875) (-0.00010818359374999999, 1.419921875) (-0.00010726109313964843, 1.421875) (-0.00010629753112792968, 1.423828125) (-0.000105298095703125, 1.42578125) (-0.00010426802825927734, 1.427734375) (-0.00010321257019042969, 1.4296875) (-0.00010213706207275391, 1.431640625) (-0.00010104690551757812, 1.43359375) (-9.9947509765625e-05, 1.435546875) (-9.88443832397461e-05, 1.4375) (-9.774308776855469e-05, 1.439453125) (-9.664923095703124e-05, 1.44140625) (-9.55683822631836e-05, 1.443359375) (-9.450602722167968e-05, 1.4453125) (-9.346743774414062e-05, 1.447265625) (-9.245765686035156e-05, 1.44921875) (-9.148135375976562e-05, 1.451171875) (-9.054279327392578e-05, 1.453125) (-8.964576721191406e-05, 1.455078125) (-8.879356384277343e-05, 1.45703125) (-8.798892211914062e-05, 1.458984375) (-8.72340850830078e-05, 1.4609375) (-8.653073120117188e-05, 1.462890625) (-8.588006591796874e-05, 1.46484375) (-8.528279876708984e-05, 1.466796875) (-8.473917388916015e-05, 1.46875) (-8.424900817871094e-05, 1.470703125) (-8.381168365478515e-05, 1.47265625) (-8.342617034912109e-05, 1.474609375) (-8.309109497070312e-05, 1.4765625) (-8.280477905273437e-05, 1.478515625) (-8.256525421142577e-05, 1.48046875) (-8.23703155517578e-05, 1.482421875) (-8.221753692626953e-05, 1.484375) (-8.210430908203125e-05, 1.486328125) (-8.202789306640625e-05, 1.48828125) (-8.198541259765624e-05, 1.490234375) (-8.197384643554687e-05, 1.4921875) (-8.198996734619141e-05, 1.494140625) (-8.203034973144531e-05, 1.49609375) (-8.209136199951172e-05, 1.498046875) (-8.216914367675781e-05, 1.5) (-8.225961303710937e-05, 1.501953125) (-8.235853576660156e-05, 1.50390625) (-8.246148681640625e-05, 1.505859375) (-8.256399536132813e-05, 1.5078125) (-8.266154479980469e-05, 1.509765625) (-8.274974060058593e-05, 1.51171875) (-8.282436370849609e-05, 1.513671875) (-8.288142395019531e-05, 1.515625) (-8.291720581054687e-05, 1.517578125) (-8.292832946777343e-05, 1.51953125) (-8.291175842285156e-05, 1.521484375) (-8.286486053466796e-05, 1.5234375) (-8.278538513183593e-05, 1.525390625) (-8.267150115966796e-05, 1.52734375) (-8.252175903320312e-05, 1.529296875) (-8.233510589599609e-05, 1.53125) (-8.211085510253905e-05, 1.533203125) (-8.18487319946289e-05, 1.53515625) (-8.154879760742187e-05, 1.537109375) (-8.121140289306641e-05, 1.5390625) (-8.083718872070313e-05, 1.541015625) (-8.042697143554688e-05, 1.54296875) (-7.998179626464843e-05, 1.544921875) (-7.95028076171875e-05, 1.546875) (-7.899134826660156e-05, 1.548828125) (-7.844882202148437e-05, 1.55078125) (-7.787677001953125e-05, 1.552734375) (-7.727684020996093e-05, 1.5546875) (-7.665088653564453e-05, 1.556640625) (-7.600096893310547e-05, 1.55859375) (-7.532937622070312e-05, 1.560546875) (-7.463864135742187e-05, 1.5625) (-7.393156433105469e-05, 1.564453125) (-7.321112823486328e-05, 1.56640625) (-7.248056793212891e-05, 1.568359375) (-7.174328613281249e-05, 1.5703125) (-7.10028305053711e-05, 1.572265625) (-7.026278686523437e-05, 1.57421875) (-6.952670288085938e-05, 1.576171875) (-6.879811096191406e-05, 1.578125) (-6.808041381835937e-05, 1.580078125) (-6.737693023681641e-05, 1.58203125) (-6.66907958984375e-05, 1.583984375) (-6.602498626708984e-05, 1.5859375) (-6.538226318359375e-05, 1.587890625) (-6.476516723632812e-05, 1.58984375) (-6.417603302001953e-05, 1.591796875) (-6.361701202392578e-05, 1.59375) (-6.309003448486328e-05, 1.595703125) (-6.259683227539062e-05, 1.59765625) (-6.213897705078124e-05, 1.599609375) (-6.171785736083984e-05, 1.6015625) (-6.133479690551757e-05, 1.603515625) (-6.099104309082031e-05, 1.60546875) (-6.068783569335937e-05, 1.607421875) (-6.0426361083984375e-05, 1.609375) (-6.020781707763672e-05, 1.611328125) (-6.003339385986328e-05, 1.61328125) (-5.9904277801513666e-05, 1.615234375) (-5.982160949707031e-05, 1.6171875) (-5.9786472320556635e-05, 1.619140625) (-5.97998046875e-05, 1.62109375) (-5.986237335205078e-05, 1.623046875) (-5.997475433349609e-05, 1.625) (-6.01373062133789e-05, 1.626953125) (-6.035015487670898e-05, 1.62890625) (-6.0613189697265624e-05, 1.630859375) (-6.092604827880859e-05, 1.6328125) (-6.128813934326171e-05, 1.634765625) (-6.169868087768555e-05, 1.63671875) (-6.215674209594727e-05, 1.638671875) (-6.266124725341796e-05, 1.640625) (-6.321097946166992e-05, 1.642578125) (-6.380461502075195e-05, 1.64453125) (-6.444069671630859e-05, 1.646484375) (-6.511763763427734e-05, 1.6484375) (-6.583376312255858e-05, 1.650390625) (-6.658724975585938e-05, 1.65234375) (-6.737615966796875e-05, 1.654296875) (-6.819841003417968e-05, 1.65625) (-6.905174255371093e-05, 1.658203125) (-6.993374633789063e-05, 1.66015625) (-7.084185028076171e-05, 1.662109375) (-7.177326202392578e-05, 1.6640625) (-7.272496795654297e-05, 1.666015625) (-7.369367218017578e-05, 1.66796875) (-7.467577362060547e-05, 1.669921875) (-7.566735076904297e-05, 1.671875) (-7.666414642333984e-05, 1.673828125) (-7.766155242919921e-05, 1.67578125) (-7.865463256835937e-05, 1.677734375) (-7.963815307617187e-05, 1.6796875) (-8.060662841796875e-05, 1.681640625) (-8.155436706542969e-05, 1.68359375) (-8.247554016113281e-05, 1.685546875) (-8.33642349243164e-05, 1.6875) (-8.42144775390625e-05, 1.689453125) (-8.502030944824219e-05, 1.69140625) (-8.577580261230469e-05, 1.693359375) (-8.647504425048827e-05, 1.6953125) (-8.711219787597655e-05, 1.697265625) (-8.768147277832031e-05, 1.69921875) (-8.817715454101562e-05, 1.701171875) (-8.859362030029297e-05, 1.703125) (-8.892536926269531e-05, 1.705078125) (-8.916706085205078e-05, 1.70703125) (-8.931352996826172e-05, 1.708984375) (-8.935985565185546e-05, 1.7109375) (-8.930142211914062e-05, 1.712890625) (-8.913391876220702e-05, 1.71484375) (-8.885335540771484e-05, 1.716796875) (-8.845610809326171e-05, 1.71875) (-8.793893432617188e-05, 1.720703125) (-8.729900360107421e-05, 1.72265625) (-8.653388977050781e-05, 1.724609375) (-8.564166259765624e-05, 1.7265625) (-8.462086486816406e-05, 1.728515625) (-8.347059631347656e-05, 1.73046875) (-8.219062805175781e-05, 1.732421875) (-8.078140258789062e-05, 1.734375) (-7.924406433105469e-05, 1.736328125) (-7.758056640625e-05, 1.73828125) (-7.579351806640625e-05, 1.740234375) (-7.388624572753906e-05, 1.7421875) (-7.18626708984375e-05, 1.744140625) (-6.972730255126952e-05, 1.74609375) (-6.748521423339843e-05, 1.748046875) (-6.514192962646484e-05, 1.75) (-6.270340728759765e-05, 1.751953125) (-6.0175949096679685e-05, 1.75390625) (-5.7566200256347655e-05, 1.755859375) (-5.488117980957031e-05, 1.7578125) (-5.212831115722656e-05, 1.759765625) (-4.931536102294922e-05, 1.76171875) (-4.645032501220703e-05, 1.763671875) (-4.3541427612304685e-05, 1.765625) (-4.059707260131836e-05, 1.767578125) (-3.762569427490234e-05, 1.76953125) (-3.463578033447265e-05, 1.771484375) (-3.1635753631591795e-05, 1.7734375) (-2.8633872985839842e-05, 1.775390625) (-2.563829231262207e-05, 1.77734375) (-2.2657047271728514e-05, 1.779296875) (-1.9697961807250974e-05, 1.78125) (-1.6768651962280274e-05, 1.783203125) (-1.3876605033874512e-05, 1.78515625) (-1.102906608581543e-05, 1.787109375) (-8.232996940612793e-06, 1.7890625) (-5.49498462677002e-06, 1.791015625) (-2.820984363555908e-06, 1.79296875) (-2.1630030870437622e-07, 1.794921875) (2.3144214153289792e-06, 1.796875) (4.767316818237305e-06, 1.798828125) (7.1393718719482414e-06, 1.80078125) (9.428411483764648e-06, 1.802734375) (1.1632980346679686e-05, 1.8046875) (1.3752208709716796e-05, 1.806640625) (1.5785762786865232e-05, 1.80859375) (1.7733869552612303e-05, 1.810546875) (1.9597360610961914e-05, 1.8125) (2.1377540588378907e-05, 1.814453125) (2.3076076507568358e-05, 1.81640625) (2.469507789611816e-05, 1.818359375) (2.6237167358398437e-05, 1.8203125) (2.7705629348754883e-05, 1.822265625) (2.91043643951416e-05, 1.82421875) (3.0437648773193358e-05, 1.826171875) (3.1710079193115234e-05, 1.828125) (3.2926586151123044e-05, 1.830078125) (3.409218978881836e-05, 1.83203125) (3.521194458007812e-05, 1.833984375) (3.629101181030273e-05, 1.8359375) (3.733454132080078e-05, 1.837890625) (3.834783172607422e-05, 1.83984375) (3.933650207519531e-05, 1.841796875) (4.030610656738281e-05, 1.84375) (4.126214599609375e-05, 1.845703125) (4.2210678100585934e-05, 1.84765625) (4.3158115386962886e-05, 1.849609375) (4.411099243164062e-05, 1.8515625) (4.507587814331055e-05, 1.853515625) (4.605841064453125e-05, 1.85546875) (4.70632095336914e-05, 1.857421875) (4.809458923339843e-05, 1.859375) (4.9156291961669916e-05, 1.861328125) (5.0250865936279294e-05, 1.86328125) (5.13798599243164e-05, 1.865234375) (5.2543579101562495e-05, 1.8671875) (5.374119567871093e-05, 1.869140625) (5.497200775146484e-05, 1.87109375) (5.623512268066406e-05, 1.873046875) (5.752903366088867e-05, 1.875) (5.8852119445800776e-05, 1.876953125) (6.020228576660156e-05, 1.87890625) (6.157633972167968e-05, 1.880859375) (6.297079467773437e-05, 1.8828125) (6.438124084472656e-05, 1.884765625) (6.580230712890624e-05, 1.88671875) (6.722909545898438e-05, 1.888671875) (6.865480041503905e-05, 1.890625) (7.006982421875e-05, 1.892578125) (7.146450805664063e-05, 1.89453125) (7.282865905761718e-05, 1.896484375) (7.41532745361328e-05, 1.8984375) (7.543235015869141e-05, 1.900390625) (7.665711975097656e-05, 1.90234375) (7.781449890136718e-05, 1.904296875) (7.889070892333984e-05, 1.90625) (7.987052154541015e-05, 1.908203125) (8.073736572265624e-05, 1.91015625) (8.147576904296874e-05, 1.912109375) (8.206642150878906e-05, 1.9140625) (8.248545837402344e-05, 1.916015625) (8.270974731445311e-05, 1.91796875) (8.27156982421875e-05, 1.919921875) (8.248469543457031e-05, 1.921875) (8.200794982910156e-05, 1.923828125) (8.128262329101563e-05, 1.92578125) (8.031122589111328e-05, 1.927734375) (7.909609222412108e-05, 1.9296875) (7.763431549072265e-05, 1.931640625) (7.592890930175781e-05, 1.93359375) (7.39950942993164e-05, 1.935546875) (7.185466766357421e-05, 1.9375) (6.953384399414062e-05, 1.939453125) (6.705745697021485e-05, 1.94140625) (6.444610595703125e-05, 1.943359375) (6.17316436767578e-05, 1.9453125) (5.8966007232666015e-05, 1.947265625) (5.6215980529785156e-05, 1.94921875) (5.3556190490722656e-05, 1.951171875) (5.105176925659179e-05, 1.953125) (4.875016021728515e-05, 1.955078125) (4.667397689819336e-05, 1.95703125) (4.482472229003906e-05, 1.958984375) (4.3213939666748046e-05, 1.9609375) (4.186424255371093e-05, 1.962890625) (4.078836441040039e-05, 1.96484375) (3.998681640625e-05, 1.966796875) (3.943312835693359e-05, 1.96875) (3.9073047637939454e-05, 1.970703125) (3.8900123596191404e-05, 1.97265625) (3.895240020751953e-05, 1.974609375) (3.918634033203125e-05, 1.9765625) (3.9464305877685546e-05, 1.978515625) (3.9528038024902344e-05, 1.98046875) (3.8996528625488276e-05, 1.982421875) (3.7562622070312495e-05, 1.984375) (3.503608322143554e-05, 1.986328125) (3.1215717315673824e-05, 1.98828125) (2.5937994003295898e-05, 1.990234375) (1.9231389999389648e-05, 1.9921875) (1.1319273948669433e-05, 1.994140625) (2.7692575454711912e-06, 1.99609375) (-5.5043306350708e-06, 1.998046875) (-1.2681396484374999e-05, 2.0) (-1.8113653182983396e-05, 2.001953125) (-2.1241872787475585e-05, 2.00390625) (-2.1799943923950195e-05, 2.005859375) (-1.990827751159668e-05, 2.0078125) (-1.6067317962646484e-05, 2.009765625) (-1.1331777572631836e-05, 2.01171875) (-7.327597141265869e-06, 2.013671875) (-5.784820556640625e-06, 2.015625) (-8.36284828186035e-06, 2.017578125) (-1.6770790100097656e-05, 2.01953125) (-3.161733818054199e-05, 2.021484375) (-5.173865890502929e-05, 2.0234375) (-7.535275268554687e-05, 2.025390625) (-0.00010022270202636718, 2.02734375) (-0.00012570584106445313, 2.029296875) (-0.0001547767333984375, 2.03125) (-0.00018925778198242187, 2.033203125) (-0.00022665092468261719, 2.03515625) (-0.0002589450073242187, 2.037109375) (-0.0002706854858398437, 2.0390625) (-0.00024864532470703126, 2.041015625) (-0.0001901844482421875, 2.04296875) (-0.00010111537933349609, 2.044921875) (3.5650177001953122e-06, 2.046875) (0.00010994890594482422, 2.048828125) (0.00021520907592773437, 2.05078125) (0.00031898944091796874, 2.052734375) (0.00042174472045898435, 2.0546875) (0.0005189862060546875, 2.056640625) (0.0005953582153320312, 2.05859375) (0.0006393646850585937, 2.060546875) (0.0006470590209960937, 2.0625) (0.00062318408203125, 2.064453125) (0.0005830442504882813, 2.06640625) (0.0005382071533203125, 2.068359375) (0.0004941917114257812, 2.0703125) (0.00045194390869140625, 2.072265625) (0.000406879638671875, 2.07421875) (0.00035761169433593746, 2.076171875) (0.00030593124389648434, 2.078125) (0.00025440145874023435, 2.080078125) (0.00020729818725585936, 2.08203125) (0.0001668527374267578, 2.083984375) (0.00013310630798339844, 2.0859375) (0.00010572928619384765, 2.087890625) (8.358718109130859e-05, 2.08984375) (6.555911254882813e-05, 2.091796875) (5.123813247680664e-05, 2.09375) (3.989667129516601e-05, 2.095703125) (3.0363338470458984e-05, 2.09765625) (2.1608425140380857e-05, 2.099609375) (1.2615943908691406e-05, 2.1015625) (2.862967014312744e-06, 2.103515625) (-7.483175754547119e-06, 2.10546875) (-1.8137243270874022e-05, 2.107421875) (-2.8913200378417966e-05, 2.109375) (-3.9477760314941406e-05, 2.111328125) (-4.9366172790527344e-05, 2.11328125) (-5.804255676269531e-05, 2.115234375) (-6.482880401611327e-05, 2.1171875) (-6.942875671386719e-05, 2.119140625) (-7.199484252929687e-05, 2.12109375) (-7.277536010742188e-05, 2.123046875) (-7.213111114501953e-05, 2.125) (-7.044125366210937e-05, 2.126953125) (-6.802928924560546e-05, 2.12890625) (-6.531731414794922e-05, 2.130859375) (-6.280622100830078e-05, 2.1328125) (-6.082637405395508e-05, 2.134765625) (-5.9556247711181635e-05, 2.13671875) (-5.9076671600341795e-05, 2.138671875) (-5.933765411376953e-05, 2.140625) (-6.0294479370117185e-05, 2.142578125) (-6.192428207397461e-05, 2.14453125) (-6.414707946777343e-05, 2.146484375) (-6.686238861083984e-05, 2.1484375) (-6.997064971923827e-05, 2.150390625) (-7.33620376586914e-05, 2.15234375) (-7.694831848144531e-05, 2.154296875) (-8.065386962890624e-05, 2.15625) (-8.438847351074218e-05, 2.158203125) (-8.806292724609375e-05, 2.16015625) (-9.158379364013672e-05, 2.162109375) (-9.485459899902343e-05, 2.1640625) (-9.77926025390625e-05, 2.166015625) (-0.00010032475280761718, 2.16796875) (-0.00010240279388427734, 2.169921875) (-0.00010401215362548827, 2.171875) (-0.00010515386199951171, 2.173828125) (-0.00010584185028076171, 2.17578125) (-0.00010610169219970702, 2.177734375) (-0.00010596170043945313, 2.1796875) (-0.00010546114349365234, 2.181640625) (-0.00010465069580078125, 2.18359375) (-0.00010357624816894531, 2.185546875) (-0.00010228067016601562, 2.1875) (-0.00010080416870117187, 2.189453125) (-9.918024444580078e-05, 2.19140625) (-9.744692230224609e-05, 2.193359375) (-9.564534759521484e-05, 2.1953125) (-9.381288146972656e-05, 2.197265625) (-9.198440551757813e-05, 2.19921875) (-9.018355560302734e-05, 2.201171875) (-8.842086791992187e-05, 2.203125) (-8.670200347900391e-05, 2.205078125) (-8.502798461914063e-05, 2.20703125) (-8.339501190185546e-05, 2.208984375) (-8.179673767089843e-05, 2.2109375) (-8.02213134765625e-05, 2.212890625) (-7.86517105102539e-05, 2.21484375) (-7.707330322265625e-05, 2.216796875) (-7.547374725341797e-05, 2.21875) (-7.384127044677735e-05, 2.220703125) (-7.216524505615234e-05, 2.22265625) (-7.043217468261719e-05, 2.224609375) (-6.862628173828124e-05, 2.2265625) (-6.673214721679687e-05, 2.228515625) (-6.473423767089843e-05, 2.23046875) (-6.26180419921875e-05, 2.232421875) (-6.037047958374023e-05, 2.234375) (-5.7978153228759765e-05, 2.236328125) (-5.542811584472656e-05, 2.23828125) (-5.270914077758789e-05, 2.240234375) (-4.9810462951660154e-05, 2.2421875) (-4.6722328186035156e-05, 2.244140625) (-4.343589401245117e-05, 2.24609375) (-3.994076919555664e-05, 2.248046875) (-3.6226341247558594e-05, 2.25) (-3.2282768249511716e-05, 2.251953125) (-2.8100343704223633e-05, 2.25390625) (-2.3670513153076172e-05, 2.255859375) (-1.8985279083251953e-05, 2.2578125) (-1.403602123260498e-05, 2.259765625) (-8.81615161895752e-06, 2.26171875) (-3.3221216201782225e-06, 2.263671875) (2.4500818252563474e-06, 2.265625) (8.503668785095215e-06, 2.267578125) (1.4842901229858398e-05, 2.26953125) (2.1474796295166014e-05, 2.271484375) (2.840039825439453e-05, 2.2734375) (3.5614013671875e-05, 2.275390625) (4.310701751708984e-05, 2.27734375) (5.086598968505859e-05, 2.279296875) (5.887368774414062e-05, 2.28125) (6.711132049560547e-05, 2.283203125) (7.555225372314453e-05, 2.28515625) (8.416152954101562e-05, 2.287109375) (9.290692138671875e-05, 2.2890625) (0.00010175714874267578, 2.291015625) (0.00011068624877929688, 2.29296875) (0.00011967718505859375, 2.294921875) (0.00012870562744140624, 2.296875) (0.0001377418670654297, 2.298828125) (0.00014675215148925782, 2.30078125) (0.00015569532775878907, 2.302734375) (0.0001645419158935547, 2.3046875) (0.00017327743530273437, 2.306640625) (0.00018188763427734374, 2.30859375) (0.00019036016845703124, 2.310546875) (0.00019869403076171874, 2.3125) (0.00020689285278320313, 2.314453125) (0.00021498097229003904, 2.31640625) (0.00022300653076171874, 2.318359375) (0.00023099822998046875, 2.3203125) (0.00023896777343749998, 2.322265625) (0.00024691024780273437, 2.32421875) (0.0002547960815429687, 2.326171875) (0.0002626065063476562, 2.328125) (0.00027033309936523434, 2.330078125) (0.00027796356201171873, 2.33203125) (0.00028548712158203124, 2.333984375) (0.00029287838745117184, 2.3359375) (0.00030009106445312496, 2.337890625) (0.00030708615112304684, 2.33984375) (0.0003138316650390625, 2.341796875) (0.0003202677307128906, 2.34375) (0.00032631747436523434, 2.345703125) (0.000331866943359375, 2.34765625) (0.0003367608642578125, 2.349609375) (0.00034088165283203124, 2.3515625) (0.0003441480712890625, 2.353515625) (0.00034650213623046874, 2.35546875) (0.00034791802978515623, 2.357421875) (0.0003483575439453125, 2.359375) (0.0003477702026367187, 2.361328125) (0.0003461248779296875, 2.36328125) (0.0003434027099609375, 2.365234375) (0.0003395914306640625, 2.3671875) (0.00033469323730468746, 2.369140625) (0.00032869110107421875, 2.37109375) (0.0003215556335449219, 2.373046875) (0.0003133100280761719, 2.375) (0.0003040169677734375, 2.376953125) (0.0002937889099121094, 2.37890625) (0.00028279150390624996, 2.380859375) (0.00027115484619140624, 2.3828125) (0.00025897515869140625, 2.384765625) (0.00024634864807128904, 2.38671875) (0.00023336073303222655, 2.388671875) (0.0002201048889160156, 2.390625) (0.00020669358825683594, 2.392578125) (0.00019322122192382812, 2.39453125) (0.000179768798828125, 2.396484375) (0.00016644956970214843, 2.3984375) (0.00015339659118652343, 2.400390625) (0.0001407530517578125, 2.40234375) (0.00012867530822753906, 2.404296875) (0.00011730388641357421, 2.40625) (0.0001067274169921875, 2.408203125) (9.69857940673828e-05, 2.41015625) (8.808814239501952e-05, 2.412109375) (8.001631164550781e-05, 2.4140625) (7.27435302734375e-05, 2.416015625) (6.629331970214843e-05, 2.41796875) (6.069615173339843e-05, 2.419921875) (5.581281280517578e-05, 2.421875) (5.147160339355469e-05, 2.423828125) (4.771864318847656e-05, 2.42578125) (4.4513420104980465e-05, 2.427734375) (4.176723861694336e-05, 2.4296875) (3.96613655090332e-05, 2.431640625) (3.731412506103515e-05, 2.43359375) (3.3858051300048824e-05, 2.435546875) (3.023165702819824e-05, 2.4375) (2.6680042266845702e-05, 2.439453125) (2.506591796875e-05, 2.44140625) (2.7644447326660155e-05, 2.443359375) (3.1852199554443356e-05, 2.4453125) (3.5972564697265626e-05, 2.447265625) (3.7484733581542966e-05, 2.44921875) (3.294282531738281e-05, 2.451171875) (2.540138244628906e-05, 2.453125) (1.7450817108154295e-05, 2.455078125) (1.0859074592590331e-05, 2.45703125) (8.555686950683593e-06, 2.458984375) (8.474258422851563e-06, 2.4609375) (8.542459487915038e-06, 2.462890625) (8.358534812927246e-06, 2.46484375) (6.6937885284423825e-06, 2.466796875) (4.3388242721557616e-06, 2.46875) (2.2847070693969726e-06, 2.470703125) (3.631802201271057e-07, 2.47265625) (-1.2921432256698608e-06, 2.474609375) (-2.7363204956054688e-06, 2.4765625) (-4.16517162322998e-06, 2.478515625) (-5.465747833251953e-06, 2.48046875) (-6.554376125335693e-06, 2.482421875) (-7.48086404800415e-06, 2.484375) (-8.264143943786621e-06, 2.486328125) (-8.897562026977539e-06, 2.48828125) (-9.393929481506347e-06, 2.490234375) (-9.779310226440428e-06, 2.4921875) (-1.0082841873168945e-05, 2.494140625) (-1.0353649139404297e-05, 2.49609375) (-1.0637160301208495e-05, 2.498046875) (-1.093846321105957e-05, 2.5) (-1.1258960723876953e-05, 2.501953125) (-1.1608556747436524e-05, 2.50390625) (-1.1990370750427246e-05, 2.505859375) (-1.2406076431274414e-05, 2.5078125) (-1.2852186203002929e-05, 2.509765625) (-1.3314180374145507e-05, 2.51171875) (-1.3778472900390624e-05, 2.513671875) (-1.4238476753234862e-05, 2.515625) (-1.4689260482788086e-05, 2.517578125) (-1.5127119064331054e-05, 2.51953125) (-1.5546945571899412e-05, 2.521484375) (-1.5940970420837403e-05, 2.5234375) (-1.630144500732422e-05, 2.525390625) (-1.6621463775634764e-05, 2.52734375) (-1.6895931243896483e-05, 2.529296875) (-1.712110710144043e-05, 2.53125) (-1.7293319702148437e-05, 2.533203125) (-1.740932846069336e-05, 2.53515625) (-1.7467208862304687e-05, 2.537109375) (-1.7466144561767578e-05, 2.5390625) (-1.7407035827636716e-05, 2.541015625) (-1.7292308807373048e-05, 2.54296875) (-1.7123573303222656e-05, 2.544921875) (-1.690191650390625e-05, 2.546875) (-1.6628671646118165e-05, 2.548828125) (-1.6305051803588868e-05, 2.55078125) (-1.593283653259277e-05, 2.552734375) (-1.551442337036133e-05, 2.5546875) (-1.5052065849304199e-05, 2.556640625) (-1.454811668395996e-05, 2.55859375) (-1.4005889892578125e-05, 2.560546875) (-1.3429473876953124e-05, 2.5625) (-1.282365322113037e-05, 2.564453125) (-1.2193904876708983e-05, 2.56640625) (-1.1545848846435547e-05, 2.568359375) (-1.0885416984558106e-05, 2.5703125) (-1.021905517578125e-05, 2.572265625) (-9.55351448059082e-06, 2.57421875) (-8.895704269409179e-06, 2.576171875) (-8.25249671936035e-06, 2.578125) (-7.630563735961913e-06, 2.580078125) (-7.036439895629882e-06, 2.58203125) (-6.476605415344238e-06, 2.583984375) (-5.957276344299316e-06, 2.5859375) (-5.484337329864502e-06, 2.587890625) (-5.063224792480469e-06, 2.58984375) (-4.698796272277832e-06, 2.591796875) (-4.395490646362305e-06, 2.59375) (-4.157336235046386e-06, 2.595703125) (-3.9878199100494385e-06, 2.59765625) (-3.889819622039795e-06, 2.599609375) (-3.865543842315674e-06, 2.6015625) (-3.91649055480957e-06, 2.603515625) (-4.043547630310059e-06, 2.60546875) (-4.247156620025635e-06, 2.607421875) (-4.5272827148437494e-06, 2.609375) (-4.8833885192871095e-06, 2.611328125) (-5.3144755363464355e-06, 2.61328125) (-5.819114685058593e-06, 2.615234375) (-6.395502090454101e-06, 2.6171875) (-7.041537284851074e-06, 2.619140625) (-7.754786968231201e-06, 2.62109375) (-8.532282829284668e-06, 2.623046875) (-9.370492935180663e-06, 2.625) (-1.026536750793457e-05, 2.626953125) (-1.1212366104125975e-05, 2.62890625) (-1.2206581115722655e-05, 2.630859375) (-1.3242769241333007e-05, 2.6328125) (-1.431533145904541e-05, 2.634765625) (-1.5418373107910155e-05, 2.63671875) (-1.6545806884765625e-05, 2.638671875) (-1.7691444396972655e-05, 2.640625) (-1.884906578063965e-05, 2.642578125) (-2.0012439727783202e-05, 2.64453125) (-2.1175304412841796e-05, 2.646484375) (-2.2331398010253905e-05, 2.6484375) (-2.3474510192871094e-05, 2.650390625) (-2.459859085083008e-05, 2.65234375) (-2.5697853088378904e-05, 2.654296875) (-2.6766824722290037e-05, 2.65625) (-2.780042266845703e-05, 2.658203125) (-2.879396629333496e-05, 2.66015625) (-2.9743247985839843e-05, 2.662109375) (-3.064458847045898e-05, 2.6640625) (-3.149486541748047e-05, 2.666015625) (-3.22914810180664e-05, 2.66796875) (-3.303228378295898e-05, 2.669921875) (-3.371555709838867e-05, 2.671875) (-3.433993911743164e-05, 2.673828125) (-3.490435791015625e-05, 2.67578125) (-3.5408134460449215e-05, 2.677734375) (-3.585090637207031e-05, 2.6796875) (-3.623257446289062e-05, 2.681640625) (-3.655355834960937e-05, 2.68359375) (-3.681476211547852e-05, 2.685546875) (-3.701709747314453e-05, 2.6875) (-3.716197967529297e-05, 2.689453125) (-3.7251564025878905e-05, 2.69140625) (-3.728775787353515e-05, 2.693359375) (-3.7273681640625e-05, 2.6953125) (-3.721339416503906e-05, 2.697265625) (-3.710848999023437e-05, 2.69921875) (-3.696071624755859e-05, 2.701171875) (-3.677362442016601e-05, 2.703125) (-3.6549240112304685e-05, 2.705078125) (-3.629130935668945e-05, 2.70703125) (-3.600836181640625e-05, 2.708984375) (-3.5702213287353516e-05, 2.7109375) (-3.537302398681641e-05, 2.712890625) (-3.503451538085937e-05, 2.71484375) (-3.4696533203125e-05, 2.716796875) (-3.436536407470703e-05, 2.71875) (-3.4057426452636716e-05, 2.720703125) (-3.377326965332031e-05, 2.72265625) (-3.349396514892578e-05, 2.724609375) (-3.322845458984375e-05, 2.7265625) (-3.298756408691406e-05, 2.728515625) (-3.273728179931641e-05, 2.73046875) (-3.246639251708984e-05, 2.732421875) (-3.2174827575683594e-05, 2.734375) (-3.182712173461914e-05, 2.736328125) (-3.143522262573242e-05, 2.73828125) (-3.107294845581054e-05, 2.740234375) (-3.0738658905029296e-05, 2.7421875) (-3.040628433227539e-05, 2.744140625) (-3.0217975616455078e-05, 2.74609375) (-3.0288951873779297e-05, 2.748046875) (-3.049544906616211e-05, 2.75) (-3.086955261230468e-05, 2.751953125) (-3.1480005264282225e-05, 2.75390625) (-3.1921260833740235e-05, 2.755859375) (-3.284835815429687e-05, 2.7578125) (-3.510757446289062e-05, 2.759765625) (-3.759413528442383e-05, 2.76171875) (-3.994929885864258e-05, 2.763671875) (-4.044459915161133e-05, 2.765625) (-3.5894714355468746e-05, 2.767578125) (-2.8213113784790037e-05, 2.76953125) (-2.024992752075195e-05, 2.771484375) (-1.4975856781005858e-05, 2.7734375) (-1.7999034881591795e-05, 2.775390625) (-2.8462387084960937e-05, 2.77734375) (-4.102063369750977e-05, 2.779296875) (-5.2059112548828124e-05, 2.78125) (-5.589141082763672e-05, 2.783203125) (-5.115689849853515e-05, 2.78515625) (-4.324404907226562e-05, 2.787109375) (-3.5320678710937496e-05, 2.7890625) (-3.0579607009887694e-05, 2.791015625) (-3.125344467163086e-05, 2.79296875) (-3.4156936645507814e-05, 2.794921875) (-3.728770065307617e-05, 2.796875) (-4.00256233215332e-05, 2.798828125) (-4.109939956665039e-05, 2.80078125) (-4.1489337921142574e-05, 2.802734375) (-4.205658721923828e-05, 2.8046875) (-4.250116729736328e-05, 2.806640625) (-4.298466491699219e-05, 2.80859375) (-4.344679260253906e-05, 2.810546875) (-4.367140960693359e-05, 2.8125) (-4.3792945861816405e-05, 2.814453125) (-4.392462539672851e-05, 2.81640625) (-4.403511047363281e-05, 2.818359375) (-4.4136344909667964e-05, 2.8203125) (-4.4264415740966794e-05, 2.822265625) (-4.4407531738281245e-05, 2.82421875) (-4.454958724975586e-05, 2.826171875) (-4.469149017333984e-05, 2.828125) (-4.4814540863037105e-05, 2.830078125) (-4.4897789001464844e-05, 2.83203125) (-4.49541015625e-05, 2.833984375) (-4.499163818359375e-05, 2.8359375) (-4.5005783081054686e-05, 2.837890625) (-4.50008316040039e-05, 2.83984375) (-4.497964477539062e-05, 2.841796875) (-4.494239044189453e-05, 2.84375) (-4.4894355773925776e-05, 2.845703125) (-4.4840240478515625e-05, 2.84765625) (-4.478029632568359e-05, 2.849609375) (-4.471572113037109e-05, 2.8515625) (-4.46488037109375e-05, 2.853515625) (-4.458119201660156e-05, 2.85546875) (-4.451524353027344e-05, 2.857421875) (-4.4453330993652343e-05, 2.859375) (-4.439723968505859e-05, 2.861328125) (-4.434876251220703e-05, 2.86328125) (-4.430973815917969e-05, 2.865234375) (-4.428182983398437e-05, 2.8671875) (-4.426667785644531e-05, 2.869140625) (-4.426581573486328e-05, 2.87109375) (-4.4280651092529293e-05, 2.873046875) (-4.43124771118164e-05, 2.875) (-4.4362445831298826e-05, 2.876953125) (-4.443153762817383e-05, 2.87890625) (-4.452052307128906e-05, 2.880859375) (-4.462994384765625e-05, 2.8828125) (-4.476009368896484e-05, 2.884765625) (-4.491103363037109e-05, 2.88671875) (-4.508257675170898e-05, 2.888671875) (-4.5274291992187496e-05, 2.890625) (-4.548550415039062e-05, 2.892578125) (-4.571533966064453e-05, 2.89453125) (-4.596273040771484e-05, 2.896484375) (-4.622645568847656e-05, 2.8984375) (-4.650519180297851e-05, 2.900390625) (-4.6797489166259764e-05, 2.90234375) (-4.7101772308349605e-05, 2.904296875) (-4.74163818359375e-05, 2.90625) (-4.773955154418945e-05, 2.908203125) (-4.8069442749023435e-05, 2.91015625) (-4.840419769287109e-05, 2.912109375) (-4.8741874694824214e-05, 2.9140625) (-4.908051300048828e-05, 2.916015625) (-4.94180908203125e-05, 2.91796875) (-4.9752593994140625e-05, 2.919921875) (-5.0081996917724604e-05, 2.921875) (-5.040432739257812e-05, 2.923828125) (-5.071759796142578e-05, 2.92578125) (-5.101980590820312e-05, 2.927734375) (-5.130894088745117e-05, 2.9296875) (-5.158298873901367e-05, 2.931640625) (-5.1839939117431636e-05, 2.93359375) (-5.207781982421875e-05, 2.935546875) (-5.229470062255859e-05, 2.9375) (-5.248872375488281e-05, 2.939453125) (-5.265814971923828e-05, 2.94140625) (-5.2801368713378905e-05, 2.943359375) (-5.29169921875e-05, 2.9453125) (-5.300386810302734e-05, 2.947265625) (-5.306108474731445e-05, 2.94921875) (-5.308795928955078e-05, 2.951171875) (-5.3084030151367184e-05, 2.953125) (-5.304904174804687e-05, 2.955078125) (-5.2982955932617184e-05, 2.95703125) (-5.288589859008789e-05, 2.958984375) (-5.275818252563476e-05, 2.9609375) (-5.260024642944336e-05, 2.962890625) (-5.24127082824707e-05, 2.96484375) (-5.2196315765380856e-05, 2.966796875) (-5.195199203491211e-05, 2.96875) (-5.168083953857422e-05, 2.970703125) (-5.1384140014648436e-05, 2.97265625) (-5.106328201293945e-05, 2.974609375) (-5.071978378295898e-05, 2.9765625) (-5.035525512695312e-05, 2.978515625) (-4.997138977050781e-05, 2.98046875) (-4.956996154785156e-05, 2.982421875) (-4.915281295776367e-05, 2.984375) (-4.872184371948242e-05, 2.986328125) (-4.8279029846191406e-05, 2.98828125) (-4.7826438903808594e-05, 2.990234375) (-4.736624145507812e-05, 2.9921875) (-4.6900775909423824e-05, 2.994140625) (-4.643248748779297e-05, 2.99609375) (-4.596392059326172e-05, 2.998046875) (-4.549769592285156e-05, 3.0) (-4.5036445617675776e-05, 3.001953125) (-4.458279418945312e-05, 3.00390625) (-4.413933181762695e-05, 3.005859375) (-4.370858383178711e-05, 3.0078125) (-4.329290390014648e-05, 3.009765625) (-4.2894527435302735e-05, 3.01171875) (-4.251554870605469e-05, 3.013671875) (-4.215790939331054e-05, 3.015625) (-4.182349014282227e-05, 3.017578125) (-4.151406097412109e-05, 3.01953125) (-4.1231288909912106e-05, 3.021484375) (-4.0976722717285156e-05, 3.0234375) (-4.075174331665039e-05, 3.025390625) (-4.055754089355469e-05, 3.02734375) (-4.039519119262695e-05, 3.029296875) (-4.0265594482421875e-05, 3.03125) (-4.0169410705566406e-05, 3.033203125) (-4.010709762573242e-05, 3.03515625) (-4.007888793945312e-05, 3.037109375) (-4.008479309082031e-05, 3.0390625) (-4.0124794006347654e-05, 3.041015625) (-4.0198825836181636e-05, 3.04296875) (-4.030667114257812e-05, 3.044921875) (-4.04479866027832e-05, 3.046875) (-4.062231063842773e-05, 3.048828125) (-4.082900238037109e-05, 3.05078125) (-4.106734466552734e-05, 3.052734375) (-4.133649444580078e-05, 3.0546875) (-4.163539123535156e-05, 3.056640625) (-4.196277236938476e-05, 3.05859375) (-4.231716156005859e-05, 3.060546875) (-4.269691467285156e-05, 3.0625) (-4.3100318908691403e-05, 3.064453125) (-4.3525650024414063e-05, 3.06640625) (-4.3971107482910155e-05, 3.068359375) (-4.443486785888672e-05, 3.0703125) (-4.491498565673828e-05, 3.072265625) (-4.540939712524414e-05, 3.07421875) (-4.5916034698486325e-05, 3.076171875) (-4.643282699584961e-05, 3.078125) (-4.6957469940185546e-05, 3.080078125) (-4.748747634887695e-05, 3.08203125) (-4.802014541625976e-05, 3.083984375) (-4.855253219604492e-05, 3.0859375) (-4.908172988891602e-05, 3.087890625) (-4.960495376586914e-05, 3.08984375) (-5.011927413940429e-05, 3.091796875) (-5.062162780761719e-05, 3.09375) (-5.110904693603515e-05, 3.095703125) (-5.1578586578369136e-05, 3.09765625) (-5.202745819091797e-05, 3.099609375) (-5.2453124999999996e-05, 3.1015625) (-5.285280609130859e-05, 3.103515625) (-5.322341918945312e-05, 3.10546875) (-5.3561943054199216e-05, 3.107421875) (-5.38653450012207e-05, 3.109375) (-5.413065719604492e-05, 3.111328125) (-5.435505676269531e-05, 3.11328125) (-5.4535606384277344e-05, 3.115234375) (-5.466915130615234e-05, 3.1171875) (-5.475261306762695e-05, 3.119140625) (-5.478298187255859e-05, 3.12109375) (-5.4757343292236324e-05, 3.123046875) (-5.4672950744628907e-05, 3.125) (-5.452681350708008e-05, 3.126953125) (-5.431571197509766e-05, 3.12890625) (-5.4036384582519526e-05, 3.130859375) (-5.368548583984375e-05, 3.1328125) (-5.3259925842285155e-05, 3.134765625) (-5.275708770751953e-05, 3.13671875) (-5.21744155883789e-05, 3.138671875) (-5.150947570800781e-05, 3.140625) (-5.076061630249023e-05, 3.142578125) (-4.9926643371582026e-05, 3.14453125) (-4.900687026977539e-05, 3.146484375) (-4.8001411437988276e-05, 3.1484375) (-4.691038513183594e-05, 3.150390625) (-4.573365783691406e-05, 3.15234375) (-4.4471946716308593e-05, 3.154296875) (-4.312672424316406e-05, 3.15625) (-4.169939804077148e-05, 3.158203125) (-4.0192020416259765e-05, 3.16015625) (-3.860698318481445e-05, 3.162109375) (-3.6946746826171877e-05, 3.1640625) (-3.5215686798095704e-05, 3.166015625) (-3.3419708251953125e-05, 3.16796875) (-3.156459617614746e-05, 3.169921875) (-2.9655982971191405e-05, 3.171875) (-2.7699790954589843e-05, 3.173828125) (-2.570298957824707e-05, 3.17578125) (-2.3675062179565427e-05, 3.177734375) (-2.1628192901611328e-05, 3.1796875) (-1.9574851989746094e-05, 3.181640625) (-1.752829360961914e-05, 3.18359375) (-1.5503127098083496e-05, 3.185546875) (-1.351536750793457e-05, 3.1875) (-1.158376407623291e-05, 3.189453125) (-9.726797103881835e-06, 3.19140625) (-7.960655212402343e-06, 3.193359375) (-6.298683166503906e-06, 3.1953125) (-4.750812530517578e-06, 3.197265625) (-3.3255462646484375e-06, 3.19921875) (-2.032973766326904e-06, 3.201171875) (-8.857415914535522e-07, 3.203125) (1.0647821426391602e-07, 3.205078125) (9.382135868072509e-07, 3.20703125) (1.6087801456451416e-06, 3.208984375) (2.1234333515167234e-06, 3.2109375) (2.4812419414520264e-06, 3.212890625) (2.6766085624694823e-06, 3.21484375) (2.711686611175537e-06, 3.216796875) (2.596043825149536e-06, 3.21875) (2.341808795928955e-06, 3.220703125) (1.9585493803024292e-06, 3.22265625) (1.4394992589950562e-06, 3.224609375) (7.557455301284789e-07, 3.2265625) (-1.0956734418869018e-07, 3.228515625) (-1.1559027433395386e-06, 3.23046875) (-2.387158155441284e-06, 3.232421875) (-3.7974600791931152e-06, 3.234375) (-5.392252922058105e-06, 3.236328125) (-7.206584930419922e-06, 3.23828125) (-9.250566482543944e-06, 3.240234375) (-1.1510074615478514e-05, 3.2421875) (-1.4012050628662108e-05, 3.244140625) (-1.6796546936035154e-05, 3.24609375) (-1.9885368347167966e-05, 3.248046875) (-2.3313697814941405e-05, 3.25) (-2.7057100296020507e-05, 3.251953125) (-3.0996156692504884e-05, 3.25390625) (-3.505896377563476e-05, 3.255859375) (-3.918588638305664e-05, 3.2578125) (-4.313021850585937e-05, 3.259765625) (-4.659613418579101e-05, 3.26171875) (-4.9552192687988276e-05, 3.263671875) (-5.215861511230468e-05, 3.265625) (-5.463999938964843e-05, 3.267578125) (-5.746816253662109e-05, 3.26953125) (-6.0207130432128905e-05, 3.271484375) (-6.157548904418945e-05, 3.2734375) (-6.217791748046875e-05, 3.275390625) (-6.319789886474609e-05, 3.27734375) (-6.656479644775391e-05, 3.279296875) (-7.578536224365234e-05, 3.28125) (-8.92516632080078e-05, 3.283203125) (-0.00010195927429199219, 3.28515625) (-0.00010928787231445312, 3.287109375) (-0.00010476366424560546, 3.2890625) (-8.79475860595703e-05, 3.291015625) (-6.479771423339844e-05, 3.29296875) (-4.0359455108642576e-05, 3.294921875) (-2.0806856155395508e-05, 3.296875) (-9.164857864379882e-06, 3.298828125) (-3.1268441677093504e-06, 3.30078125) (-1.5915616750717163e-06, 3.302734375) (-4.523311614990234e-06, 3.3046875) (-1.261085033416748e-05, 3.306640625) (-2.776935577392578e-05, 3.30859375) (-5.064557647705078e-05, 3.310546875) (-8.011258697509766e-05, 3.3125) (-0.0001139898452758789, 3.314453125) (-0.00015020362854003907, 3.31640625) (-0.00018586557006835936, 3.318359375) (-0.0002166163330078125, 3.3203125) (-0.00023899681091308592, 3.322265625) (-0.0002507726440429687, 3.32421875) (-0.0002524561767578125, 3.326171875) (-0.00024697601318359374, 3.328125) (-0.00023555303955078124, 3.330078125) (-0.00021607479858398436, 3.33203125) (-0.0001816108703613281, 3.333984375) (-0.00012517160034179688, 3.3359375) (-4.323667907714843e-05, 3.337890625) (6.328960418701171e-05, 3.33984375) (0.00018365542602539063, 3.341796875) (0.00030431329345703126, 3.34375) (0.0004114635620117187, 3.345703125) (0.0004905696411132812, 3.34765625) (0.00053751416015625, 3.349609375) (0.0005542731933593749, 3.3515625) (0.00054645263671875, 3.353515625) (0.0005254552001953125, 3.35546875) (0.000497232177734375, 3.357421875) (0.0004635165405273437, 3.359375) (0.0004252265625, 3.361328125) (0.0003800403747558594, 3.36328125) (0.000328686767578125, 3.365234375) (0.0002747984008789062, 3.3671875) (0.0002217549591064453, 3.369140625) (0.00017365339660644532, 3.37109375) (0.00013307656860351563, 3.373046875) (0.00010065595245361327, 3.375) (7.616856384277344e-05, 3.376953125) (5.8606605529785155e-05, 3.37890625) (4.6657402038574216e-05, 3.380859375) (3.906315231323242e-05, 3.3828125) (3.453313827514648e-05, 3.384765625) (3.158537673950195e-05, 3.38671875) (2.8769554138183594e-05, 3.388671875) (2.485673141479492e-05, 3.390625) (1.9256357192993164e-05, 3.392578125) (1.2035369873046874e-05, 3.39453125) (3.550258636474609e-06, 3.396484375) (-5.713695526123047e-06, 3.3984375) (-1.5236154556274413e-05, 3.400390625) (-2.443630790710449e-05, 3.40234375) (-3.262910461425781e-05, 3.404296875) (-3.909170913696289e-05, 3.40625) (-4.347950744628906e-05, 3.408203125) (-4.586516952514648e-05, 3.41015625) (-4.646645355224609e-05, 3.412109375) (-4.5635612487792966e-05, 3.4140625) (-4.374360275268554e-05, 3.416015625) (-4.1102924346923826e-05, 3.41796875) (-3.8125885009765625e-05, 3.419921875) (-3.5293800354003906e-05, 3.421875) (-3.2917675018310545e-05, 3.423828125) (-3.1165781021118165e-05, 3.42578125) (-3.011295700073242e-05, 3.427734375) (-2.9713525772094724e-05, 3.4296875) (-2.9922992706298826e-05, 3.431640625) (-3.072127532958984e-05, 3.43359375) (-3.203289413452148e-05, 3.435546875) (-3.375677490234375e-05, 3.4375) (-3.580705261230469e-05, 3.439453125) (-3.809045028686523e-05, 3.44140625) (-4.053949737548828e-05, 3.443359375) (-4.3108695983886715e-05, 3.4453125) (-4.5727172851562495e-05, 3.447265625) (-4.83222427368164e-05, 3.44921875) (-5.081873703002929e-05, 3.451171875) (-5.313359832763672e-05, 3.453125) (-5.5195133209228515e-05, 3.455078125) (-5.6939228057861324e-05, 3.45703125) (-5.831709289550781e-05, 3.458984375) (-5.9306198120117186e-05, 3.4609375) (-5.990474700927734e-05, 3.462890625) (-6.0122970581054686e-05, 3.46484375) (-5.998233032226562e-05, 3.466796875) (-5.9510055541992186e-05, 3.46875) (-5.873930358886719e-05, 3.470703125) (-5.771359252929687e-05, 3.47265625) (-5.6473052978515624e-05, 3.474609375) (-5.505366516113281e-05, 3.4765625) (-5.348970413208008e-05, 3.478515625) (-5.180902099609375e-05, 3.48046875) (-5.004275894165039e-05, 3.482421875) (-4.822541046142578e-05, 3.484375) (-4.63897590637207e-05, 3.486328125) (-4.456744384765625e-05, 3.48828125) (-4.278097915649414e-05, 3.490234375) (-4.1041812896728516e-05, 3.4921875) (-3.93553237915039e-05, 3.494140625) (-3.77225112915039e-05, 3.49609375) (-3.614046859741211e-05, 3.498046875) (-3.460348892211914e-05, 3.5) (-3.310083770751953e-05, 3.501953125) (-3.161664199829101e-05, 3.50390625) (-3.013642883300781e-05, 3.505859375) (-2.864746856689453e-05, 3.5078125) (-2.7138160705566405e-05, 3.509765625) (-2.559807777404785e-05, 3.51171875) (-2.401373481750488e-05, 3.513671875) (-2.2369735717773435e-05, 3.515625) (-2.065071105957031e-05, 3.517578125) (-1.8840837478637694e-05, 3.51953125) (-1.692583656311035e-05, 3.521484375) (-1.4893138885498047e-05, 3.5234375) (-1.2729813575744629e-05, 3.525390625) (-1.042356014251709e-05, 3.52734375) (-7.964032173156738e-06, 3.529296875) (-5.341023445129394e-06, 3.53125) (-2.5453863143920898e-06, 3.533203125) (4.3076372146606445e-07, 3.53515625) (3.5973744392395017e-06, 3.537109375) (6.965143203735351e-06, 3.5390625) (1.0543880462646483e-05, 3.541015625) (1.4343588829040527e-05, 3.54296875) (1.837355804443359e-05, 3.544921875) (2.2641742706298828e-05, 3.546875) (2.7156560897827146e-05, 3.548828125) (3.192465209960937e-05, 3.55078125) (3.6948444366455076e-05, 3.552734375) (4.2230026245117184e-05, 3.5546875) (4.777046585083008e-05, 3.556640625) (5.357064437866211e-05, 3.55859375) (5.9633842468261714e-05, 3.560546875) (6.595875549316406e-05, 3.5625) (7.253758239746093e-05, 3.564453125) (7.936013793945313e-05, 3.56640625) (8.641287231445312e-05, 3.568359375) (9.36773681640625e-05, 3.5703125) (0.00010113433074951172, 3.572265625) (0.00010875865173339843, 3.57421875) (0.00011651509094238281, 3.576171875) (0.0001243702850341797, 3.578125) (0.00013229110717773436, 3.580078125) (0.00014024591064453124, 3.58203125) (0.0001482140350341797, 3.583984375) (0.0001561749267578125, 3.5859375) (0.000164104736328125, 3.587890625) (0.00017197923278808593, 3.58984375) (0.0001797721710205078, 3.591796875) (0.00018746408081054687, 3.59375) (0.00019504933166503906, 3.595703125) (0.00020252612304687498, 3.59765625) (0.00020988713073730468, 3.599609375) (0.00021712950134277344, 3.6015625) (0.00022424977111816405, 3.603515625) (0.00023125169372558593, 3.60546875) (0.00023816021728515624, 3.607421875) (0.0002449912414550781, 3.609375) (0.0002517494201660156, 3.611328125) (0.00025843304443359376, 3.61328125) (0.00026501751708984375, 3.615234375) (0.0002714710693359375, 3.6171875) (0.0002777656555175781, 3.619140625) (0.00028386727905273435, 3.62109375) (0.00028973187255859373, 3.623046875) (0.00029530511474609375, 3.625) (0.0003005106201171875, 3.626953125) (0.0003052626953125, 3.62890625) (0.00030949490356445313, 3.630859375) (0.0003131414794921875, 3.6328125) (0.00031613861083984375, 3.634765625) (0.00031841986083984376, 3.63671875) (0.0003198941345214844, 3.638671875) (0.00032048541259765626, 3.640625) (0.00032014236450195313, 3.642578125) (0.00031882748413085936, 3.64453125) (0.00031653057861328124, 3.646484375) (0.00031325628662109376, 3.6484375) (0.00030900964355468747, 3.650390625) (0.0003038091125488281, 3.65234375) (0.00029770077514648435, 3.654296875) (0.00029074545288085936, 3.65625) (0.0002830293884277344, 3.658203125) (0.00027465673828125, 3.66015625) (0.0002657091369628906, 3.662109375) (0.0002562651672363281, 3.6640625) (0.00024640649414062497, 3.666015625) (0.00023621554565429685, 3.66796875) (0.00022579559326171874, 3.669921875) (0.00021524203491210937, 3.671875) (0.00020462753295898438, 3.673828125) (0.00019401351928710937, 3.67578125) (0.00018344949340820313, 3.677734375) (0.00017297694396972656, 3.6796875) (0.000162639892578125, 3.681640625) (0.00015247494506835936, 3.68359375) (0.00014249349975585936, 3.685546875) (0.00013269796752929687, 3.6875) (0.00012307743072509765, 3.689453125) (0.00011360793304443358, 3.69140625) (0.00010428497314453125, 3.693359375) (9.511058807373046e-05, 3.6953125) (8.608435058593749e-05, 3.697265625) (7.720890808105468e-05, 3.69921875) (6.847923278808593e-05, 3.701171875) (5.9892635345458985e-05, 3.703125) (5.146028518676758e-05, 3.705078125) (4.320054244995117e-05, 3.70703125) (3.513024139404297e-05, 3.708984375) (2.7266004562377927e-05, 3.7109375) (1.9620643615722656e-05, 3.712890625) (1.2206262588500977e-05, 3.71484375) (5.04681396484375e-06, 3.716796875) (-1.8317517042160033e-06, 3.71875) (-8.402764320373534e-06, 3.720703125) (-1.4636646270751953e-05, 3.72265625) (-2.0514902114868162e-05, 3.724609375) (-2.6025951385498044e-05, 3.7265625) (-3.1159305572509764e-05, 3.728515625) (-3.590948104858398e-05, 3.73046875) (-4.0274024963378906e-05, 3.732421875) (-4.425313568115234e-05, 3.734375) (-4.785454177856445e-05, 3.736328125) (-5.1091800689697266e-05, 3.73828125) (-5.397674179077148e-05, 3.740234375) (-5.6521202087402344e-05, 3.7421875) (-5.873749542236328e-05, 3.744140625) (-6.0637748718261715e-05, 3.74609375) (-6.223865890502929e-05, 3.748046875) (-6.355906295776367e-05, 3.75) (-6.461763000488281e-05, 3.751953125) (-6.543402862548828e-05, 3.75390625) (-6.602703857421875e-05, 3.755859375) (-6.641460418701172e-05, 3.7578125) (-6.661528015136719e-05, 3.759765625) (-6.664712524414062e-05, 3.76171875) (-6.652665710449219e-05, 3.763671875) (-6.626998901367187e-05, 3.765625) (-6.589212036132812e-05, 3.767578125) (-6.540666198730468e-05, 3.76953125) (-6.48280792236328e-05, 3.771484375) (-6.417105865478515e-05, 3.7734375) (-6.344975280761718e-05, 3.775390625) (-6.267825317382812e-05, 3.77734375) (-6.186995697021484e-05, 3.779296875) (-6.103720092773438e-05, 3.78125) (-6.019197845458984e-05, 3.783203125) (-5.934579086303711e-05, 3.78515625) (-5.850878143310547e-05, 3.787109375) (-5.7689994812011715e-05, 3.7890625) (-5.689739227294922e-05, 3.791015625) (-5.613768768310547e-05, 3.79296875) (-5.541676330566406e-05, 3.794921875) (-5.4739704132080075e-05, 3.796875) (-5.4110527038574216e-05, 3.798828125) (-5.353228759765625e-05, 3.80078125) (-5.300725936889648e-05, 3.802734375) (-5.2536823272705074e-05, 3.8046875) (-5.212162017822265e-05, 3.806640625) (-5.1761642456054686e-05, 3.80859375) (-5.145613098144531e-05, 3.810546875) (-5.1203762054443356e-05, 3.8125) (-5.1002769470214844e-05, 3.814453125) (-5.0850894927978514e-05, 3.81640625) (-5.07454605102539e-05, 3.818359375) (-5.0683517456054685e-05, 3.8203125) (-5.066181945800781e-05, 3.822265625) (-5.067694091796875e-05, 3.82421875) (-5.072547149658203e-05, 3.826171875) (-5.0803825378417964e-05, 3.828125) (-5.090832901000976e-05, 3.830078125) (-5.10353889465332e-05, 3.83203125) (-5.1181388854980466e-05, 3.833984375) (-5.1342777252197266e-05, 3.8359375) (-5.151615524291992e-05, 3.837890625) (-5.16982192993164e-05, 3.83984375) (-5.188568878173828e-05, 3.841796875) (-5.2075439453125e-05, 3.84375) (-5.226443099975586e-05, 3.845703125) (-5.244972610473633e-05, 3.84765625) (-5.262866973876953e-05, 3.849609375) (-5.2798881530761716e-05, 3.8515625) (-5.2958209991455075e-05, 3.853515625) (-5.31048469543457e-05, 3.85546875) (-5.3237316131591796e-05, 3.857421875) (-5.335445022583008e-05, 3.859375) (-5.3455513000488276e-05, 3.861328125) (-5.3540134429931636e-05, 3.86328125) (-5.360821533203125e-05, 3.865234375) (-5.3659965515136716e-05, 3.8671875) (-5.3695819854736326e-05, 3.869140625) (-5.3716461181640625e-05, 3.87109375) (-5.372282409667968e-05, 3.873046875) (-5.371603775024414e-05, 3.875) (-5.369742202758789e-05, 3.876953125) (-5.366851043701172e-05, 3.87890625) (-5.363101196289062e-05, 3.880859375) (-5.358681488037109e-05, 3.8828125) (-5.353791046142578e-05, 3.884765625) (-5.3486373901367186e-05, 3.88671875) (-5.343428421020508e-05, 3.888671875) (-5.3383693695068355e-05, 3.890625) (-5.333657073974609e-05, 3.892578125) (-5.329475402832031e-05, 3.89453125) (-5.3259922027587885e-05, 3.896484375) (-5.323360061645507e-05, 3.8984375) (-5.32171630859375e-05, 3.900390625) (-5.3211914062499996e-05, 3.90234375) (-5.321908950805664e-05, 3.904296875) (-5.323988342285156e-05, 3.90625) (-5.3275459289550776e-05, 3.908203125) (-5.332694244384765e-05, 3.91015625) (-5.3395420074462885e-05, 3.912109375) (-5.348189926147461e-05, 3.9140625) (-5.358729934692382e-05, 3.916015625) (-5.371238708496094e-05, 3.91796875) (-5.385777282714844e-05, 3.919921875) (-5.402387237548828e-05, 3.921875) (-5.421096420288086e-05, 3.923828125) (-5.4419158935546875e-05, 3.92578125) (-5.464848327636718e-05, 3.927734375) (-5.489882659912109e-05, 3.9296875) (-5.516999816894531e-05, 3.931640625) (-5.546167755126953e-05, 3.93359375) (-5.577344894409179e-05, 3.935546875) (-5.610477828979492e-05, 3.9375) (-5.6454975128173824e-05, 3.939453125) (-5.682315444946289e-05, 3.94140625) (-5.720827102661133e-05, 3.943359375) (-5.760909271240234e-05, 3.9453125) (-5.8024303436279296e-05, 3.947265625) (-5.845249938964844e-05, 3.94921875) (-5.889228439331054e-05, 3.951171875) (-5.9342292785644527e-05, 3.953125) (-5.980126571655273e-05, 3.955078125) (-6.02680435180664e-05, 3.95703125) (-6.0741615295410156e-05, 3.958984375) (-6.122111892700196e-05, 3.9609375) (-6.170578765869141e-05, 3.962890625) (-6.219489288330078e-05, 3.96484375) (-6.268771362304688e-05, 3.966796875) (-6.318355560302734e-05, 3.96875) (-6.368172454833984e-05, 3.970703125) (-6.418152618408202e-05, 3.97265625) (-6.468232727050781e-05, 3.974609375) (-6.518348693847656e-05, 3.9765625) (-6.568443298339843e-05, 3.978515625) (-6.618466186523437e-05, 3.98046875) (-6.668374633789062e-05, 3.982421875) (-6.718132019042969e-05, 3.984375) (-6.767704772949219e-05, 3.986328125) (-6.817054748535156e-05, 3.98828125) (-6.866144561767577e-05, 3.990234375) (-6.914933013916015e-05, 3.9921875) (-6.963375854492188e-05, 3.994140625) (-7.011434936523437e-05, 3.99609375) (-7.059070587158202e-05, 3.998046875) (-7.106252288818359e-05, 4.0) (-7.1529541015625e-05, 4.001953125) (-7.19916763305664e-05, 4.00390625) (-7.244888305664062e-05, 4.005859375) (-7.290126037597656e-05, 4.0078125) (-7.334893035888672e-05, 4.009765625) (-7.379200744628906e-05, 4.01171875) (-7.423056793212891e-05, 4.013671875) (-7.466457366943359e-05, 4.015625) (-7.50939483642578e-05, 4.017578125) (-7.551844024658203e-05, 4.01953125) (-7.593769836425781e-05, 4.021484375) (-7.63512191772461e-05, 4.0234375) (-7.67584228515625e-05, 4.025390625) (-7.715863800048828e-05, 4.02734375) (-7.75511474609375e-05, 4.029296875) (-7.793515014648438e-05, 4.03125) (-7.830981445312499e-05, 4.033203125) (-7.867417907714843e-05, 4.03515625) (-7.902717590332031e-05, 4.037109375) (-7.936767578125e-05, 4.0390625) (-7.969448089599609e-05, 4.041015625) (-8.000628662109374e-05, 4.04296875) (-8.030177307128906e-05, 4.044921875) (-8.057955932617187e-05, 4.046875) (-8.083831024169922e-05, 4.048828125) (-8.107676696777344e-05, 4.05078125) (-8.129366302490234e-05, 4.052734375) (-8.148780822753905e-05, 4.0546875) (-8.165805053710937e-05, 4.056640625) (-8.180316162109375e-05, 4.05859375) (-8.192213439941406e-05, 4.060546875) (-8.201399993896484e-05, 4.0625) (-8.207745361328125e-05, 4.064453125) (-8.211123657226562e-05, 4.06640625) (-8.211428833007812e-05, 4.068359375) (-8.208523559570313e-05, 4.0703125) (-8.202362060546875e-05, 4.072265625) (-8.192932891845703e-05, 4.07421875) (-8.179984283447266e-05, 4.076171875) (-8.163290405273437e-05, 4.078125) (-8.14274673461914e-05, 4.080078125) (-8.118183135986328e-05, 4.08203125) (-8.089608764648437e-05, 4.083984375) (-8.057231903076172e-05, 4.0859375) (-8.020651245117187e-05, 4.087890625) (-7.979424285888672e-05, 4.08984375) (-7.934289550781249e-05, 4.091796875) (-7.885809326171875e-05, 4.09375) (-7.834427642822266e-05, 4.095703125) (-7.780943298339843e-05, 4.09765625) (-7.724677276611328e-05, 4.099609375) (-7.664340209960938e-05, 4.1015625) (-7.601060485839843e-05, 4.103515625) (-7.536047363281249e-05, 4.10546875) (-7.466745758056641e-05, 4.107421875) (-7.391277313232421e-05, 4.109375) (-7.308199310302734e-05, 4.111328125) (-7.215189361572266e-05, 4.11328125) (-7.114384460449219e-05, 4.115234375) (-7.009951019287109e-05, 4.1171875) (-6.899774169921874e-05, 4.119140625) (-6.77994613647461e-05, 4.12109375) (-6.661212921142578e-05, 4.123046875) (-6.556237030029297e-05, 4.125) (-6.457672119140625e-05, 4.126953125) (-6.366404724121094e-05, 4.12890625) (-6.284962463378906e-05, 4.130859375) (-6.18656997680664e-05, 4.1328125) (-6.144058990478516e-05, 4.134765625) (-6.228289794921875e-05, 4.13671875) (-6.338462829589844e-05, 4.138671875) (-6.444142150878906e-05, 4.140625) (-6.360001373291016e-05, 4.142578125) (-5.864163970947265e-05, 4.14453125) (-5.2025852203369136e-05, 4.146484375) (-4.5392448425292967e-05, 4.1484375) (-4.118223571777344e-05, 4.150390625) (-4.2747482299804684e-05, 4.15234375) (-4.712594223022461e-05, 4.154296875) (-5.1806785583496094e-05, 4.15625) (-5.506990051269531e-05, 4.158203125) (-5.4071701049804686e-05, 4.16015625) (-5.0847335815429686e-05, 4.162109375) (-4.7459335327148435e-05, 4.1640625) (-4.436685943603515e-05, 4.166015625) (-4.2827171325683595e-05, 4.16796875) (-4.211138153076172e-05, 4.169921875) (-4.128188323974609e-05, 4.171875) (-4.051753234863281e-05, 4.173828125) (-3.96987190246582e-05, 4.17578125) (-3.888819885253906e-05, 4.177734375) (-3.827590942382812e-05, 4.1796875) (-3.7737274169921874e-05, 4.181640625) (-3.717240905761719e-05, 4.18359375) (-3.6613922119140624e-05, 4.185546875) (-3.6068714141845703e-05, 4.1875) (-3.552466201782226e-05, 4.189453125) (-3.4984107971191404e-05, 4.19140625) (-3.4453895568847654e-05, 4.193359375) (-3.393732070922851e-05, 4.1953125) (-3.345207977294922e-05, 4.197265625) (-3.301921844482422e-05, 4.19921875) (-3.262960052490234e-05, 4.201171875) (-3.2274227142333984e-05, 4.203125) (-3.195605659484863e-05, 4.205078125) (-3.1673851013183595e-05, 4.20703125) (-3.142741012573242e-05, 4.208984375) (-3.1217927932739256e-05, 4.2109375) (-3.104231262207031e-05, 4.212890625) (-3.089727401733398e-05, 4.21484375) (-3.0783527374267574e-05, 4.216796875) (-3.070136833190918e-05, 4.21875) (-3.0649906158447266e-05, 4.220703125) (-3.0628688812255856e-05, 4.22265625) (-3.063653564453125e-05, 4.224609375) (-3.0672050476074215e-05, 4.2265625) (-3.0734270095825196e-05, 4.228515625) (-3.0822200775146485e-05, 4.23046875) (-3.093482971191406e-05, 4.232421875) (-3.107120895385742e-05, 4.234375) (-3.123046112060547e-05, 4.236328125) (-3.1411529541015625e-05, 4.23828125) (-3.161308860778808e-05, 4.240234375) (-3.183415603637695e-05, 4.2421875) (-3.207395553588867e-05, 4.244140625) (-3.2331291198730466e-05, 4.24609375) (-3.260501098632812e-05, 4.248046875) (-3.289315795898437e-05, 4.25) (-3.3192508697509765e-05, 4.251953125) (-3.350244903564453e-05, 4.25390625) (-3.382453918457031e-05, 4.255859375) (-3.415886688232422e-05, 4.2578125) (-3.450527954101562e-05, 4.259765625) (-3.4862396240234376e-05, 4.26171875) (-3.5225013732910157e-05, 4.263671875) (-3.559349822998047e-05, 4.265625) (-3.5974937438964845e-05, 4.267578125) (-3.636307907104492e-05, 4.26953125) (-3.674258804321289e-05, 4.271484375) (-3.710163116455078e-05, 4.2734375) (-3.742570495605469e-05, 4.275390625) (-3.771482467651367e-05, 4.27734375) (-3.799105072021484e-05, 4.279296875) (-3.825421905517578e-05, 4.28125) (-3.8480125427246095e-05, 4.283203125) (-3.868870162963867e-05, 4.28515625) (-3.8928817749023435e-05, 4.287109375) (-3.923800659179687e-05, 4.2890625) (-3.966015243530273e-05, 4.291015625) (-4.0195133209228516e-05, 4.29296875) (-4.0775699615478514e-05, 4.294921875) (-4.1389347076416015e-05, 4.296875) (-4.21059684753418e-05, 4.298828125) (-4.283974456787109e-05, 4.30078125) (-4.334011077880859e-05, 4.302734375) (-4.3574848175048825e-05, 4.3046875) (-4.3608840942382814e-05, 4.306640625) (-4.3407936096191406e-05, 4.30859375) (-4.326900863647461e-05, 4.310546875) (-4.2595241546630856e-05, 4.3125) (-3.9846286773681636e-05, 4.314453125) (-3.553211212158203e-05, 4.31640625) (-3.099702453613281e-05, 4.318359375) (-2.8734951019287107e-05, 4.3203125) (-3.317625045776367e-05, 4.322265625) (-4.357113265991211e-05, 4.32421875) (-5.559746932983398e-05, 4.326171875) (-6.478130340576171e-05, 4.328125) (-6.479257202148438e-05, 4.330078125) (-5.588717651367187e-05, 4.33203125) (-4.391778182983398e-05, 4.333984375) (-3.3363101959228514e-05, 4.3359375) (-2.9263147354125976e-05, 4.337890625) (-3.1976215362548826e-05, 4.33984375) (-3.7090965270996095e-05, 4.341796875) (-4.206614685058594e-05, 4.34375) (-4.497269439697266e-05, 4.345703125) (-4.5456207275390624e-05, 4.34765625) (-4.533729553222656e-05, 4.349609375) (-4.5317821502685546e-05, 4.3515625) (-4.5368476867675776e-05, 4.353515625) (-4.553366088867187e-05, 4.35546875) (-4.552998352050781e-05, 4.357421875) (-4.5322467803955076e-05, 4.359375) (-4.515205001831054e-05, 4.361328125) (-4.507859420776367e-05, 4.36328125) (-4.506347274780273e-05, 4.365234375) (-4.511526870727539e-05, 4.3671875) (-4.5243568420410154e-05, 4.369140625) (-4.543822479248047e-05, 4.37109375) (-4.568852615356445e-05, 4.373046875) (-4.596967315673828e-05, 4.375) (-4.623847961425781e-05, 4.376953125) (-4.6483810424804686e-05, 4.37890625) (-4.6723217010498045e-05, 4.380859375) (-4.695957565307617e-05, 4.3828125) (-4.718881607055664e-05, 4.384765625) (-4.740939331054687e-05, 4.38671875) (-4.761672973632812e-05, 4.388671875) (-4.7809715270996094e-05, 4.390625) (-4.799137496948242e-05, 4.392578125) (-4.81598892211914e-05, 4.39453125) (-4.830975341796875e-05, 4.396484375) (-4.843696212768555e-05, 4.3984375) (-4.8537895202636716e-05, 4.400390625) (-4.860921096801757e-05, 4.40234375) (-4.8648529052734373e-05, 4.404296875) (-4.865311050415039e-05, 4.40625) (-4.861988067626953e-05, 4.408203125) (-4.8545883178710934e-05, 4.41015625) (-4.8428215026855463e-05, 4.412109375) (-4.826408004760742e-05, 4.4140625) (-4.805068206787109e-05, 4.416015625) (-4.778519439697265e-05, 4.41796875) (-4.7464740753173825e-05, 4.419921875) (-4.708625411987304e-05, 4.421875) (-4.6646701812744137e-05, 4.423828125) (-4.6143180847167965e-05, 4.42578125) (-4.557289886474609e-05, 4.427734375) (-4.4933151245117184e-05, 4.4296875) (-4.4221622467041015e-05, 4.431640625) (-4.343635940551758e-05, 4.43359375) (-4.2575706481933594e-05, 4.435546875) (-4.163852310180664e-05, 4.4375) (-4.062395477294922e-05, 4.439453125) (-3.953132629394531e-05, 4.44140625) (-3.8360267639160155e-05, 4.443359375) (-3.7110736846923824e-05, 4.4453125) (-3.578281402587891e-05, 4.447265625) (-3.4376651763916015e-05, 4.44921875) (-3.2892787933349605e-05, 4.451171875) (-3.133185577392578e-05, 4.453125) (-2.9695070266723632e-05, 4.455078125) (-2.7984563827514647e-05, 4.45703125) (-2.6203474044799803e-05, 4.458984375) (-2.435599136352539e-05, 4.4609375) (-2.2447179794311523e-05, 4.462890625) (-2.0482749938964842e-05, 4.46484375) (-1.8468854904174802e-05, 4.466796875) (-1.6412311553955077e-05, 4.46875) (-1.4320915222167968e-05, 4.470703125) (-1.2203552246093749e-05, 4.47265625) (-1.0069498062133789e-05, 4.474609375) (-7.92798900604248e-06, 4.4765625) (-5.788989067077637e-06, 4.478515625) (-3.663953304290771e-06, 4.48046875) (-1.565933108329773e-06, 4.482421875) (4.904709756374359e-07, 4.484375) (2.490382671356201e-06, 4.486328125) (4.420825958251953e-06, 4.48828125) (6.269291877746582e-06, 4.490234375) (8.02254295349121e-06, 4.4921875) (9.668867111206054e-06, 4.494140625) (1.1197993278503418e-05, 4.49609375) (1.260184097290039e-05, 4.498046875) (1.3876033782958983e-05, 4.5) (1.5017589569091796e-05, 4.501953125) (1.6021867752075193e-05, 4.50390625) (1.6882434844970702e-05, 4.505859375) (1.7591550827026367e-05, 4.5078125) (1.813804817199707e-05, 4.509765625) (1.8512275695800782e-05, 4.51171875) (1.8705875396728516e-05, 4.513671875) (1.8708282470703123e-05, 4.515625) (1.8510406494140625e-05, 4.517578125) (1.8099681854248045e-05, 4.51953125) (1.7466522216796873e-05, 4.521484375) (1.6610437393188477e-05, 4.5234375) (1.5533321380615234e-05, 4.525390625) (1.423699378967285e-05, 4.52734375) (1.2721187591552734e-05, 4.529296875) (1.098258876800537e-05, 4.53125) (9.017983436584472e-06, 4.533203125) (6.838919162750244e-06, 4.53515625) (4.459794044494628e-06, 4.537109375) (1.8908793926239014e-06, 4.5390625) (-8.322495222091674e-07, 4.541015625) (-3.66335654258728e-06, 4.54296875) (-6.54580020904541e-06, 4.544921875) (-9.400318145751952e-06, 4.546875) (-1.2155651092529297e-05, 4.548828125) (-1.4751117706298828e-05, 4.55078125) (-1.7106555938720703e-05, 4.552734375) (-1.9125825881958007e-05, 4.5546875) (-2.0781635284423828e-05, 4.556640625) (-2.211734580993652e-05, 4.55859375) (-2.323737335205078e-05, 4.560546875) (-2.4325782775878904e-05, 4.5625) (-2.552418327331543e-05, 4.564453125) (-2.6903106689453123e-05, 4.56640625) (-2.858924102783203e-05, 4.568359375) (-3.0794776916503906e-05, 4.5703125) (-3.3612159729003905e-05, 4.572265625) (-3.692002487182617e-05, 4.57421875) (-4.038621520996094e-05, 4.576171875) (-4.343223571777343e-05, 4.578125) (-4.555603790283203e-05, 4.580078125) (-4.6563026428222655e-05, 4.58203125) (-4.6229156494140625e-05, 4.583984375) (-4.414344787597656e-05, 4.5859375) (-4.0107242584228517e-05, 4.587890625) (-3.430774307250976e-05, 4.58984375) (-2.738444709777832e-05, 4.591796875) (-2.0568344116210936e-05, 4.59375) (-1.5133526802062988e-05, 4.595703125) (-1.1869921684265137e-05, 4.59765625) (-1.1639463424682617e-05, 4.599609375) (-1.567229652404785e-05, 4.6015625) (-2.4931514739990234e-05, 4.603515625) (-3.9982788085937496e-05, 4.60546875) (-6.075844955444336e-05, 4.607421875) (-8.6148681640625e-05, 4.609375) (-0.00011464691162109374, 4.611328125) (-0.00014485147094726563, 4.61328125) (-0.00017477069091796873, 4.615234375) (-0.0002015286407470703, 4.6171875) (-0.00022209263610839842, 4.619140625) (-0.00023330580139160155, 4.62109375) (-0.0002323430480957031, 4.623046875) (-0.00021739791870117186, 4.625) (-0.00018708958435058594, 4.626953125) (-0.0001405440216064453, 4.62890625) (-7.817008972167969e-05, 4.630859375) (-1.8530306816101073e-06, 4.6328125) (8.539617919921874e-05, 4.634765625) (0.00017953494262695313, 4.63671875) (0.0002760455322265625, 4.638671875) (0.00037028210449218746, 4.640625) (0.000456966552734375, 4.642578125) (0.000531040771484375, 4.64453125) (0.0005883567504882812, 4.646484375) (0.000626631591796875, 4.6484375) (0.0006458724365234374, 4.650390625) (0.0006467732543945313, 4.65234375) (0.000629755615234375, 4.654296875) (0.0005939254150390625, 4.65625) (0.0005383565673828124, 4.658203125) (0.00046506149291992185, 4.66015625) (0.0003807772827148437, 4.662109375) (0.0002973265380859375, 4.6640625) (0.00022674288940429687, 4.666015625) (0.00017642413330078125, 4.66796875) (0.00014651747131347656, 4.669921875) (0.0001294520263671875, 4.671875) (0.00011667581176757811, 4.673828125) (0.00010326792907714844, 4.67578125) (8.85213623046875e-05, 4.677734375) (7.574428558349609e-05, 4.6796875) (6.722120666503906e-05, 4.681640625) (6.200859069824218e-05, 4.68359375) (5.7649471282958984e-05, 4.685546875) (5.1289329528808595e-05, 4.6875) (4.171920776367187e-05, 4.689453125) (2.9451759338378904e-05, 4.69140625) (1.549074172973633e-05, 4.693359375) (9.350169897079467e-07, 4.6953125) (-1.338638687133789e-05, 4.697265625) (-2.656665802001953e-05, 4.69921875) (-3.7634822845458985e-05, 4.701171875) (-4.610367965698242e-05, 4.703125) (-5.19154052734375e-05, 4.705078125) (-5.535242080688476e-05, 4.70703125) (-5.688499450683593e-05, 4.708984375) (-5.690345764160156e-05, 4.7109375) (-5.576363372802734e-05, 4.712890625) (-5.394421768188476e-05, 4.71484375) (-5.1942829132080076e-05, 4.716796875) (-5.008002090454101e-05, 4.71875) (-4.850978088378906e-05, 4.720703125) (-4.723151397705078e-05, 4.72265625) (-4.6185821533203125e-05, 4.724609375) (-4.5380149841308594e-05, 4.7265625) (-4.4836265563964844e-05, 4.728515625) (-4.454226684570312e-05, 4.73046875) (-4.4442008972167965e-05, 4.732421875) (-4.4471454620361323e-05, 4.734375) (-4.4585266113281246e-05, 4.736328125) (-4.4765853881835934e-05, 4.73828125) (-4.502838134765625e-05, 4.740234375) (-4.5363037109375e-05, 4.7421875) (-4.572946166992187e-05, 4.744140625) (-4.607804489135742e-05, 4.74609375) (-4.63701057434082e-05, 4.748046875) (-4.659810638427734e-05, 4.75) (-4.6780853271484376e-05, 4.751953125) (-4.6957302093505855e-05, 4.75390625) (-4.7138900756835936e-05, 4.755859375) (-4.7308193206787105e-05, 4.7578125) (-4.7454528808593746e-05, 4.759765625) (-4.7572898864746095e-05, 4.76171875) (-4.767433547973633e-05, 4.763671875) (-4.777236938476562e-05, 4.765625) (-4.786410903930664e-05, 4.767578125) (-4.792318725585937e-05, 4.76953125) (-4.790979766845703e-05, 4.771484375) (-4.7804553985595704e-05, 4.7734375) (-4.760549926757812e-05, 4.775390625) (-4.7321056365966795e-05, 4.77734375) (-4.6954036712646484e-05, 4.779296875) (-4.648637008666992e-05, 4.78125) (-4.5884994506835936e-05, 4.783203125) (-4.510908508300781e-05, 4.78515625) (-4.414021301269531e-05, 4.787109375) (-4.297967529296875e-05, 4.7890625) (-4.162940216064453e-05, 4.791015625) (-4.0090057373046876e-05, 4.79296875) (-3.835648727416992e-05, 4.794921875) (-3.643212127685547e-05, 4.796875) (-3.433778762817383e-05, 4.798828125) (-3.211550140380859e-05, 4.80078125) (-2.981438636779785e-05, 4.802734375) (-2.7462635040283202e-05, 4.8046875) (-2.5072788238525388e-05, 4.806640625) (-2.2648372650146483e-05, 4.80859375) (-2.0192415237426758e-05, 4.810546875) (-1.7715847015380857e-05, 4.8125) (-1.5233637809753417e-05, 4.814453125) (-1.2757098197937012e-05, 4.81640625) (-1.0284024238586426e-05, 4.818359375) (-7.80766487121582e-06, 4.8203125) (-5.3220133781433104e-06, 4.822265625) (-2.822022438049316e-06, 4.82421875) (-3.038873076438904e-07, 4.826171875) (2.2452406883239743e-06, 4.828125) (4.849072456359863e-06, 4.830078125) (7.5416016578674315e-06, 4.83203125) (1.0358933448791503e-05, 4.833984375) (1.3327016830444336e-05, 4.8359375) (1.646499443054199e-05, 4.837890625) (1.9788414001464842e-05, 4.83984375) (2.331098175048828e-05, 4.841796875) (2.704726791381836e-05, 4.84375) (3.1009433746337886e-05, 4.845703125) (3.520322799682617e-05, 4.84765625) (3.963142776489258e-05, 4.849609375) (4.4298595428466794e-05, 4.8515625) (4.9211524963378906e-05, 4.853515625) (5.437965393066406e-05, 4.85546875) (5.980824279785156e-05, 4.857421875) (6.549374389648437e-05, 4.859375) (7.142743682861327e-05, 4.861328125) (7.759539794921875e-05, 4.86328125) (8.397859191894531e-05, 4.865234375) (9.055705261230468e-05, 4.8671875) (9.730523681640625e-05, 4.869140625) (0.0001041919708251953, 4.87109375) (0.0001111907958984375, 4.873046875) (0.00011827659606933593, 4.875) (0.000125428466796875, 4.876953125) (0.00013263221740722657, 4.87890625) (0.00013986807250976563, 4.880859375) (0.00014711541748046875, 4.8828125) (0.000154353515625, 4.884765625) (0.0001615560302734375, 4.88671875) (0.00016870346069335936, 4.888671875) (0.0001757867736816406, 4.890625) (0.00018279655456542967, 4.892578125) (0.00018972779846191407, 4.89453125) (0.00019658766174316406, 4.896484375) (0.0002033829345703125, 4.8984375) (0.0002101313018798828, 4.900390625) (0.0002168620910644531, 4.90234375) (0.00022358744812011718, 4.904296875) (0.0002303125762939453, 4.90625) (0.00023703332519531248, 4.908203125) (0.00024373008728027342, 4.91015625) (0.00025038616943359374, 4.912109375) (0.000256976318359375, 4.9140625) (0.00026346490478515623, 4.916015625) (0.00026981842041015624, 4.91796875) (0.0002759940490722656, 4.919921875) (0.000281933837890625, 4.921875) (0.0002875828247070312, 4.923828125) (0.0002928798828125, 4.92578125) (0.0002977458801269531, 4.927734375) (0.00030211114501953125, 4.9296875) (0.00030589239501953124, 4.931640625) (0.00030898986816406247, 4.93359375) (0.0003113289794921875, 4.935546875) (0.0003128402709960937, 4.9375) (0.0003134656982421875, 4.939453125) (0.0003131689453125, 4.94140625) (0.0003119154052734375, 4.943359375) (0.0003096895141601562, 4.9453125) (0.00030649822998046874, 4.947265625) (0.00030235449218749997, 4.94921875) (0.0002972845458984375, 4.951171875) (0.00029133367919921874, 4.953125) (0.0002845430297851562, 4.955078125) (0.00027696258544921874, 4.95703125) (0.000268659912109375, 4.958984375) (0.0002596862182617187, 4.9609375) (0.000250113525390625, 4.962890625) (0.0002400376281738281, 4.96484375) (0.00022953936767578125, 4.966796875) (0.00021871368408203125, 4.96875) (0.00020765690612792968, 4.970703125) (0.00019645603942871094, 4.97265625) (0.00018520828247070312, 4.974609375) (0.00017399476623535155, 4.9765625) (0.0001628738098144531, 4.978515625) (0.00015189794921875, 4.98046875) (0.00014110801696777344, 4.982421875) (0.00013053163146972655, 4.984375) (0.00012020801544189452, 4.986328125) (0.00011017236328125, 4.98828125) (0.00010045367431640624, 4.990234375) (9.11044464111328e-05, 4.9921875) (8.215746307373046e-05, 4.994140625) (7.36252212524414e-05, 4.99609375) (6.552503204345703e-05, 4.998046875) (5.784675598144531e-05, 5.0) (5.0568141937255854e-05, 5.001953125) (4.366175842285156e-05, 5.00390625) (3.707764434814453e-05, 5.005859375) (3.077424621582031e-05, 5.0078125) (2.4729928970336914e-05, 5.009765625) (1.892735290527344e-05, 5.01171875) (1.335976219177246e-05, 5.013671875) (8.028681755065918e-06, 5.015625) (2.9216227531433103e-06, 5.017578125) (-1.973291754722595e-06, 5.01953125) (-6.668149948120117e-06, 5.021484375) (-1.1197710037231445e-05, 5.0234375) (-1.558673858642578e-05, 5.025390625) (-1.985060882568359e-05, 5.02734375) (-2.4008773803710938e-05, 5.029296875) (-2.8058570861816404e-05, 5.03125) (-3.198555755615234e-05, 5.033203125) (-3.576802062988281e-05, 5.03515625) (-3.9364280700683595e-05, 5.037109375) (-4.273719024658203e-05, 5.0390625) (-4.586696243286132e-05, 5.041015625) (-4.873976135253906e-05, 5.04296875) (-5.135218811035156e-05, 5.044921875) (-5.370977020263672e-05, 5.046875) (-5.581205368041992e-05, 5.048828125) (-5.7662353515624995e-05, 5.05078125) (-5.9268287658691405e-05, 5.052734375) (-6.062623596191406e-05, 5.0546875) (-6.17355728149414e-05, 5.056640625) (-6.259905242919922e-05, 5.05859375) (-6.321619033813477e-05, 5.060546875) (-6.359756469726563e-05, 5.0625) (-6.376202392578124e-05, 5.064453125) (-6.373295211791993e-05, 5.06640625) (-6.354441833496094e-05, 5.068359375) (-6.323019409179688e-05, 5.0703125) (-6.281537628173827e-05, 5.072265625) (-6.232183837890624e-05, 5.07421875) (-6.176688766479492e-05, 5.076171875) (-6.116227722167969e-05, 5.078125) (-6.052041625976562e-05, 5.080078125) (-5.985035705566406e-05, 5.08203125) (-5.915607070922851e-05, 5.083984375) (-5.8444549560546875e-05, 5.0859375) (-5.772362899780273e-05, 5.087890625) (-5.700063705444336e-05, 5.08984375) (-5.628495407104492e-05, 5.091796875) (-5.558329010009765e-05, 5.09375) (-5.4898872375488276e-05, 5.095703125) (-5.4233707427978516e-05, 5.09765625) (-5.358721923828125e-05, 5.099609375) (-5.295752716064453e-05, 5.1015625) (-5.234414672851562e-05, 5.103515625) (-5.174665832519531e-05, 5.10546875) (-5.1164398193359376e-05, 5.107421875) (-5.059785079956055e-05, 5.109375) (-5.004751205444336e-05, 5.111328125) (-4.951444244384765e-05, 5.11328125) (-4.900122833251953e-05, 5.115234375) (-4.850969314575195e-05, 5.1171875) (-4.804024505615234e-05, 5.119140625) (-4.759269332885742e-05, 5.12109375) (-4.716584014892578e-05, 5.123046875) (-4.6758041381835935e-05, 5.125) (-4.636793518066406e-05, 5.126953125) (-4.5993740081787105e-05, 5.12890625) (-4.563311767578125e-05, 5.130859375) (-4.528401184082031e-05, 5.1328125) (-4.494455337524414e-05, 5.134765625) (-4.4613090515136715e-05, 5.13671875) (-4.428840637207031e-05, 5.138671875) (-4.3969329833984376e-05, 5.140625) (-4.3654613494873046e-05, 5.142578125) (-4.334320831298828e-05, 5.14453125) (-4.303418731689453e-05, 5.146484375) (-4.272688293457031e-05, 5.1484375) (-4.242092514038086e-05, 5.150390625) (-4.2116142272949215e-05, 5.15234375) (-4.181252288818359e-05, 5.154296875) (-4.151023864746094e-05, 5.15625) (-4.120960998535156e-05, 5.158203125) (-4.0911144256591795e-05, 5.16015625) (-4.0615535736083984e-05, 5.162109375) (-4.032363510131836e-05, 5.1640625) (-4.0036308288574215e-05, 5.166015625) (-3.9754501342773434e-05, 5.16796875) (-3.9479244232177735e-05, 5.169921875) (-3.921166610717773e-05, 5.171875) (-3.895294189453125e-05, 5.173828125) (-3.870429229736328e-05, 5.17578125) (-3.8466835021972656e-05, 5.177734375) (-3.824159240722656e-05, 5.1796875) (-3.802962493896484e-05, 5.181640625) (-3.783198928833008e-05, 5.18359375) (-3.764967346191406e-05, 5.185546875) (-3.7483676910400386e-05, 5.1875) (-3.7334915161132814e-05, 5.189453125) (-3.720425796508789e-05, 5.19140625) (-3.7092639923095704e-05, 5.193359375) (-3.700089263916016e-05, 5.1953125) (-3.692972946166992e-05, 5.197265625) (-3.6879756927490234e-05, 5.19921875) (-3.68514289855957e-05, 5.201171875) (-3.684501266479492e-05, 5.203125) (-3.686064147949219e-05, 5.205078125) (-3.689822769165039e-05, 5.20703125) (-3.695744323730469e-05, 5.208984375) (-3.703776931762695e-05, 5.2109375) (-3.7138481140136714e-05, 5.212890625) (-3.725864791870117e-05, 5.21484375) (-3.739718627929687e-05, 5.216796875) (-3.755288696289062e-05, 5.21875) (-3.772442245483398e-05, 5.220703125) (-3.7910385131835936e-05, 5.22265625) (-3.8109237670898435e-05, 5.224609375) (-3.831934356689453e-05, 5.2265625) (-3.853896331787109e-05, 5.228515625) (-3.876626586914062e-05, 5.23046875) (-3.899930953979492e-05, 5.232421875) (-3.923603057861328e-05, 5.234375) (-3.9474296569824215e-05, 5.236328125) (-3.9711898803710935e-05, 5.23828125) (-3.9946666717529296e-05, 5.240234375) (-4.017647552490234e-05, 5.2421875) (-4.03992919921875e-05, 5.244140625) (-4.0613204956054684e-05, 5.24609375) (-4.081640243530273e-05, 5.248046875) (-4.100720977783203e-05, 5.25) (-4.118405151367187e-05, 5.251953125) (-4.134546661376953e-05, 5.25390625) (-4.149006652832031e-05, 5.255859375) (-4.161653518676758e-05, 5.2578125) (-4.17236328125e-05, 5.259765625) (-4.181019592285156e-05, 5.26171875) (-4.1875194549560545e-05, 5.263671875) (-4.191776657104492e-05, 5.265625) (-4.193726348876953e-05, 5.267578125) (-4.193325042724609e-05, 5.26953125) (-4.1905540466308595e-05, 5.271484375) (-4.185417938232422e-05, 5.2734375) (-4.177946090698242e-05, 5.275390625) (-4.1681877136230466e-05, 5.27734375) (-4.156214141845703e-05, 5.279296875) (-4.142110061645508e-05, 5.28125) (-4.1259738922119136e-05, 5.283203125) (-4.107919692993164e-05, 5.28515625) (-4.088076019287109e-05, 5.287109375) (-4.066588592529297e-05, 5.2890625) (-4.043622589111328e-05, 5.291015625) (-4.019359970092773e-05, 5.29296875) (-3.994000625610351e-05, 5.294921875) (-3.967762756347656e-05, 5.296875) (-3.940876770019531e-05, 5.298828125) (-3.9135833740234374e-05, 5.30078125) (-3.886128234863281e-05, 5.302734375) (-3.8587547302246094e-05, 5.3046875) (-3.831702423095703e-05, 5.306640625) (-3.805203247070312e-05, 5.30859375) (-3.779481506347656e-05, 5.310546875) (-3.7547546386718745e-05, 5.3125) (-3.731232452392578e-05, 5.314453125) (-3.709116363525391e-05, 5.31640625) (-3.6886001586914064e-05, 5.318359375) (-3.669869995117187e-05, 5.3203125) (-3.6531028747558594e-05, 5.322265625) (-3.638465118408203e-05, 5.32421875) (-3.6261062622070314e-05, 5.326171875) (-3.6161544799804684e-05, 5.328125) (-3.608717346191406e-05, 5.330078125) (-3.6038787841796877e-05, 5.33203125) (-3.6016975402832026e-05, 5.333984375) (-3.60220718383789e-05, 5.3359375) (-3.605419158935547e-05, 5.337890625) (-3.611320495605468e-05, 5.33984375) (-3.6198760986328126e-05, 5.341796875) (-3.6310317993164064e-05, 5.34375) (-3.6447113037109375e-05, 5.345703125) (-3.660820770263672e-05, 5.34765625) (-3.6792404174804684e-05, 5.349609375) (-3.699829864501953e-05, 5.3515625) (-3.7224243164062495e-05, 5.353515625) (-3.7468383789062496e-05, 5.35546875) (-3.7728630065917966e-05, 5.357421875) (-3.800272369384765e-05, 5.359375) (-3.82882194519043e-05, 5.361328125) (-3.858255767822266e-05, 5.36328125) (-3.888306427001953e-05, 5.365234375) (-3.918701934814453e-05, 5.3671875) (-3.949165344238281e-05, 5.369140625) (-3.979415893554687e-05, 5.37109375) (-4.0091705322265626e-05, 5.373046875) (-4.038145065307617e-05, 5.375) (-4.0660552978515626e-05, 5.376953125) (-4.0926197052001954e-05, 5.37890625) (-4.1175601959228514e-05, 5.380859375) (-4.1406044006347655e-05, 5.3828125) (-4.161488342285156e-05, 5.384765625) (-4.179955673217773e-05, 5.38671875) (-4.195765686035156e-05, 5.388671875) (-4.2086936950683593e-05, 5.390625) (-4.2185302734375e-05, 5.392578125) (-4.225081253051758e-05, 5.39453125) (-4.228170394897461e-05, 5.396484375) (-4.2276397705078126e-05, 5.3984375) (-4.22335090637207e-05, 5.400390625) (-4.215184783935547e-05, 5.40234375) (-4.203047943115234e-05, 5.404296875) (-4.186866760253906e-05, 5.40625) (-4.166592407226562e-05, 5.408203125) (-4.142200088500976e-05, 5.41015625) (-4.113693237304687e-05, 5.412109375) (-4.081098175048828e-05, 5.4140625) (-4.0444671630859375e-05, 5.416015625) (-4.003873062133789e-05, 5.41796875) (-3.95941162109375e-05, 5.419921875) (-3.9111976623535154e-05, 5.421875) (-3.859369659423828e-05, 5.423828125) (-3.804084396362304e-05, 5.42578125) (-3.74551887512207e-05, 5.427734375) (-3.6838695526123046e-05, 5.4296875) (-3.619352340698242e-05, 5.431640625) (-3.552203369140625e-05, 5.43359375) (-3.48267707824707e-05, 5.435546875) (-3.4110443115234376e-05, 5.4375) (-3.337587738037109e-05, 5.439453125) (-3.2626007080078124e-05, 5.44140625) (-3.186383628845215e-05, 5.443359375) (-3.109243011474609e-05, 5.4453125) (-3.0314928054809567e-05, 5.447265625) (-2.9534496307373046e-05, 5.44921875) (-2.8754352569580078e-05, 5.451171875) (-2.7977754592895507e-05, 5.453125) (-2.7208000183105468e-05, 5.455078125) (-2.6448450088500976e-05, 5.45703125) (-2.5702484130859373e-05, 5.458984375) (-2.4973487854003905e-05, 5.4609375) (-2.4264774322509764e-05, 5.462890625) (-2.3579582214355468e-05, 5.46484375) (-2.2920995712280274e-05, 5.466796875) (-2.229196548461914e-05, 5.46875) (-2.1695255279541014e-05, 5.470703125) (-2.113346481323242e-05, 5.47265625) (-2.0609004974365235e-05, 5.474609375) (-2.012412643432617e-05, 5.4765625) (-1.968093109130859e-05, 5.478515625) (-1.9281383514404296e-05, 5.48046875) (-1.892729949951172e-05, 5.482421875) (-1.8620323181152343e-05, 5.484375) (-1.8361892700195313e-05, 5.486328125) (-1.8153196334838866e-05, 5.48828125) (-1.799515724182129e-05, 5.490234375) (-1.7888402938842772e-05, 5.4921875) (-1.7833271026611327e-05, 5.494140625) (-1.7829790115356444e-05, 5.49609375) (-1.7877716064453123e-05, 5.498046875) (-1.7976564407348632e-05, 5.5) (-1.812564468383789e-05, 5.501953125) (-1.8324102401733397e-05, 5.50390625) (-1.8570919036865233e-05, 5.505859375) (-1.8864894866943358e-05, 5.5078125) (-1.9204668045043943e-05, 5.509765625) (-1.9588687896728515e-05, 5.51171875) (-2.0015129089355468e-05, 5.513671875) (-2.0481887817382812e-05, 5.515625) (-2.0986602783203125e-05, 5.517578125) (-2.1526586532592772e-05, 5.51953125) (-2.209908866882324e-05, 5.521484375) (-2.2701435089111327e-05, 5.5234375) (-2.3330680847167966e-05, 5.525390625) (-2.3983606338500974e-05, 5.52734375) (-2.4657348632812497e-05, 5.529296875) (-2.5349092483520507e-05, 5.53125) (-2.6056428909301758e-05, 5.533203125) (-2.677792167663574e-05, 5.53515625) (-2.7510326385498045e-05, 5.537109375) (-2.8248252868652342e-05, 5.5390625) (-2.8987159729003904e-05, 5.541015625) (-2.9723041534423826e-05, 5.54296875) (-3.0452131271362303e-05, 5.544921875) (-3.1173080444335934e-05, 5.546875) (-3.1882923126220705e-05, 5.548828125) (-3.257415390014648e-05, 5.55078125) (-3.3248931884765627e-05, 5.552734375) (-3.3919715881347656e-05, 5.5546875) (-3.45948486328125e-05, 5.556640625) (-3.528097534179687e-05, 5.55859375) (-3.5978637695312496e-05, 5.560546875) (-3.667372512817383e-05, 5.5625) (-3.735692596435547e-05, 5.564453125) (-3.803509521484375e-05, 5.56640625) (-3.868292999267578e-05, 5.568359375) (-3.9239318847656246e-05, 5.5703125) (-3.966673278808594e-05, 5.572265625) (-3.9947288513183595e-05, 5.57421875) (-4.007791519165039e-05, 5.576171875) (-4.0096645355224606e-05, 5.578125) (-4.004305648803711e-05, 5.580078125) (-3.990288162231445e-05, 5.58203125) (-3.977092361450195e-05, 5.583984375) (-3.992298126220703e-05, 5.5859375) (-4.042191314697265e-05, 5.587890625) (-4.1125106811523436e-05, 5.58984375) (-4.204294967651367e-05, 5.591796875) (-4.300266265869141e-05, 5.59375) (-4.434856414794922e-05, 5.595703125) (-4.729065322875976e-05, 5.59765625) (-5.155892944335937e-05, 5.599609375) (-5.5869186401367184e-05, 5.6015625) (-5.805860137939453e-05, 5.603515625) (-5.4331264495849605e-05, 5.60546875) (-4.4265174865722655e-05, 5.607421875) (-3.054818153381347e-05, 5.609375) (-1.769638442993164e-05, 5.611328125) (-1.2845281600952148e-05, 5.61328125) (-1.8849073410034177e-05, 5.615234375) (-3.434594345092773e-05, 5.6171875) (-5.4546005249023434e-05, 5.619140625) (-7.056047821044921e-05, 5.62109375) (-7.704055786132812e-05, 5.623046875) (-7.226071166992188e-05, 5.625) (-5.876792526245117e-05, 5.626953125) (-4.3784564971923824e-05, 5.62890625) (-3.2564353942871094e-05, 5.630859375) (-2.7690483093261718e-05, 5.6328125) (-2.826853561401367e-05, 5.634765625) (-3.1106279373168944e-05, 5.63671875) (-3.397511672973633e-05, 5.638671875) (-3.693123626708984e-05, 5.640625) (-4.23441162109375e-05, 5.642578125) (-5.0709072113037105e-05, 5.64453125) (-6.0676822662353515e-05, 5.646484375) (-6.844816589355469e-05, 5.6484375) (-6.843608856201172e-05, 5.650390625) (-5.915198135375976e-05, 5.65234375) (-4.343145370483398e-05, 5.654296875) (-2.7444637298583982e-05, 5.65625) (-1.8352294921875e-05, 5.658203125) (-2.0079517364501953e-05, 5.66015625) (-3.083156585693359e-05, 5.662109375) (-4.451656341552734e-05, 5.6640625) (-5.551598739624023e-05, 5.666015625) (-5.9837135314941404e-05, 5.66796875) (-5.7673110961914057e-05, 5.669921875) (-5.3018077850341794e-05, 5.671875) (-4.8537841796875e-05, 5.673828125) (-4.596244049072265e-05, 5.67578125) (-4.560261154174804e-05, 5.677734375) (-4.586358261108398e-05, 5.6796875) (-4.608902359008789e-05, 5.681640625) (-4.629645538330078e-05, 5.68359375) (-4.642324066162109e-05, 5.685546875) (-4.6746341705322264e-05, 5.6875) (-4.7321727752685544e-05, 5.689453125) (-4.7906707763671874e-05, 5.69140625) (-4.8427364349365236e-05, 5.693359375) (-4.8901988983154294e-05, 5.6953125) (-4.929983139038086e-05, 5.697265625) (-4.961740112304687e-05, 5.69921875) (-4.986978149414062e-05, 5.701171875) (-5.006045532226562e-05, 5.703125) (-5.020906066894531e-05, 5.705078125) (-5.035223007202148e-05, 5.70703125) (-5.049694061279297e-05, 5.708984375) (-5.062436294555664e-05, 5.7109375) (-5.072835540771484e-05, 5.712890625) (-5.0806320190429686e-05, 5.71484375) (-5.085315322875976e-05, 5.716796875) (-5.086753463745117e-05, 5.71875) (-5.084474182128906e-05, 5.720703125) (-5.077642059326172e-05, 5.72265625) (-5.0658332824707026e-05, 5.724609375) (-5.048954010009765e-05, 5.7265625) (-5.026776123046875e-05, 5.728515625) (-4.999017333984375e-05, 5.73046875) (-4.9653759002685545e-05, 5.732421875) (-4.925467681884766e-05, 5.734375) (-4.8789237976074214e-05, 5.736328125) (-4.825429153442383e-05, 5.73828125) (-4.764682769775391e-05, 5.740234375) (-4.6963973999023434e-05, 5.7421875) (-4.620336151123047e-05, 5.744140625) (-4.5363292694091795e-05, 5.74609375) (-4.444243240356445e-05, 5.748046875) (-4.344019317626953e-05, 5.75) (-4.2356689453124995e-05, 5.751953125) (-4.119234085083008e-05, 5.75390625) (-3.994784164428711e-05, 5.755859375) (-3.8624298095703125e-05, 5.7578125) (-3.722293472290039e-05, 5.759765625) (-3.57449722290039e-05, 5.76171875) (-3.41919937133789e-05, 5.763671875) (-3.256568145751953e-05, 5.765625) (-3.086780548095703e-05, 5.767578125) (-2.9100931167602537e-05, 5.76953125) (-2.726890182495117e-05, 5.771484375) (-2.537656784057617e-05, 5.7734375) (-2.342949867248535e-05, 5.775390625) (-2.143412399291992e-05, 5.77734375) (-1.939642333984375e-05, 5.779296875) (-1.7322460174560547e-05, 5.78125) (-1.5220165252685545e-05, 5.783203125) (-1.3098541259765624e-05, 5.78515625) (-1.0967184066772461e-05, 5.787109375) (-8.836370468139648e-06, 5.7890625) (-6.7165765762329094e-06, 5.791015625) (-4.619239330291748e-06, 5.79296875) (-2.558927774429321e-06, 5.794921875) (-5.519625544548034e-07, 5.796875) (1.3861491680145262e-06, 5.798828125) (3.240990161895752e-06, 5.80078125) (5.001679420471191e-06, 5.802734375) (6.658585548400878e-06, 5.8046875) (8.19996166229248e-06, 5.806640625) (9.616227149963378e-06, 5.80859375) (1.0898868560791015e-05, 5.810546875) (1.204074478149414e-05, 5.8125) (1.3042326927185058e-05, 5.814453125) (1.3905041694641112e-05, 5.81640625) (1.462466812133789e-05, 5.818359375) (1.5197412490844726e-05, 5.8203125) (1.561876583099365e-05, 5.822265625) (1.588180732727051e-05, 5.82421875) (1.5989051818847657e-05, 5.826171875) (1.5943967819213866e-05, 5.828125) (1.573809814453125e-05, 5.830078125) (1.53614444732666e-05, 5.83203125) (1.4799917221069335e-05, 5.833984375) (1.4039407730102538e-05, 5.8359375) (1.3080939292907714e-05, 5.837890625) (1.1925491333007812e-05, 5.83984375) (1.0568719863891601e-05, 5.841796875) (9.00908088684082e-06, 5.84375) (7.231894969940185e-06, 5.845703125) (5.22575569152832e-06, 5.84765625) (2.997422695159912e-06, 5.849609375) (5.457103252410889e-07, 5.8515625) (-2.1185028553009034e-06, 5.853515625) (-4.956893444061279e-06, 5.85546875) (-7.94014835357666e-06, 5.857421875) (-1.1021608352661132e-05, 5.859375) (-1.4116182327270508e-05, 5.861328125) (-1.715850067138672e-05, 5.86328125) (-2.0047338485717773e-05, 5.865234375) (-2.263309097290039e-05, 5.8671875) (-2.488193893432617e-05, 5.869140625) (-2.6846879959106443e-05, 5.87109375) (-2.864366340637207e-05, 5.873046875) (-3.0515201568603515e-05, 5.875) (-3.26346206665039e-05, 5.876953125) (-3.502647018432617e-05, 5.87890625) (-3.7820167541503905e-05, 5.880859375) (-4.121490859985351e-05, 5.8828125) (-4.5144794464111326e-05, 5.884765625) (-4.935493469238281e-05, 5.88671875) (-5.327420043945312e-05, 5.888671875) (-5.596079635620117e-05, 5.890625) (-5.6802684783935546e-05, 5.892578125) (-5.564135360717773e-05, 5.89453125) (-5.230335235595703e-05, 5.896484375) (-4.663393402099609e-05, 5.8984375) (-3.887652587890625e-05, 5.900390625) (-2.9595251083374023e-05, 5.90234375) (-1.9997028350830078e-05, 5.904296875) (-1.1965794563293456e-05, 5.90625) (-6.890765190124512e-06, 5.908203125) (-5.502068042755127e-06, 5.91015625) (-8.45722770690918e-06, 5.912109375) (-1.6362110137939452e-05, 5.9140625) (-2.952771759033203e-05, 5.916015625) (-4.7912147521972656e-05, 5.91796875) (-7.05814208984375e-05, 5.919921875) (-9.58556671142578e-05, 5.921875) (-0.0001225308074951172, 5.923828125) (-0.0001497096710205078, 5.92578125) (-0.000176296875, 5.927734375) (-0.00020006658935546874, 5.9296875) (-0.00021739779663085937, 5.931640625) (-0.0002251041259765625, 5.93359375) (-0.00022188009643554687, 5.935546875) (-0.0002095704650878906, 5.9375) (-0.00019227696228027344, 5.939453125) (-0.00017269850158691406, 5.94140625) (-0.00014872225952148436, 5.943359375) (-0.00011264950561523437, 5.9453125) (-5.432574462890625e-05, 5.947265625) (3.433157730102539e-05, 5.94921875) (0.00015199795532226562, 5.951171875) (0.00028528793334960936, 5.953125) (0.0004147570495605469, 5.955078125) (0.00051876953125, 5.95703125) (0.0005827507324218749, 5.958984375) (0.0006061671142578124, 5.9609375) (0.0005963822631835937, 5.962890625) (0.0005666362915039062, 5.96484375) (0.000530098388671875, 5.966796875) (0.0004917199096679687, 5.96875) (0.0004524411926269531, 5.970703125) (0.0004104923706054687, 5.97265625) (0.00036302661132812497, 5.974609375) (0.00031139697265625, 5.9765625) (0.0002590128173828125, 5.978515625) (0.00020955133056640624, 5.98046875) (0.00016675352478027344, 5.982421875) (0.00013210061645507813, 5.984375) (0.00010508363342285156, 5.986328125) (8.46513214111328e-05, 5.98828125) (6.931806945800782e-05, 5.990234375) (5.766812133789062e-05, 5.9921875) (4.857966995239258e-05, 5.994140625) (4.074235153198242e-05, 5.99609375) (3.281125259399414e-05, 5.998046875) (2.3740447998046873e-05, 6.0) (1.3107560157775879e-05, 6.001953125) (1.092038631439209e-06, 6.00390625) (-1.1817328453063964e-05, 6.005859375) (-2.5000946044921873e-05, 6.0078125) (-3.787042999267578e-05, 6.009765625) (-4.981868743896484e-05, 6.01171875) (-6.016450500488281e-05, 6.013671875) (-6.828012084960938e-05, 6.015625) (-7.390319824218749e-05, 6.017578125) (-7.714576721191406e-05, 6.01953125) (-7.829476928710938e-05, 6.021484375) (-7.77380142211914e-05, 6.0234375) (-7.585789489746093e-05, 6.025390625) (-7.299217224121094e-05, 6.02734375) (-6.952954101562499e-05, 6.029296875) (-6.589179229736328e-05, 6.03125) (-6.235867691040039e-05, 6.033203125) (-5.9082878112792963e-05, 6.03515625) (-5.61611328125e-05, 6.037109375) (-5.3636268615722655e-05, 6.0390625) (-5.1548789978027345e-05, 6.041015625) (-4.9954151153564454e-05, 6.04296875) (-4.886788940429687e-05, 6.044921875) (-4.824533081054687e-05, 6.046875) (-4.804071044921875e-05, 6.048828125) (-4.820359420776367e-05, 6.05078125) (-4.867691802978515e-05, 6.052734375) (-4.942148208618164e-05, 6.0546875) (-5.038016128540039e-05, 6.056640625) (-5.149024963378906e-05, 6.05859375) (-5.2707908630371094e-05, 6.060546875) (-5.400405883789062e-05, 6.0625) (-5.536146926879883e-05, 6.064453125) (-5.676146697998047e-05, 6.06640625) (-5.8168792724609374e-05, 6.068359375) (-5.952180480957031e-05, 6.0703125) (-6.07663459777832e-05, 6.072265625) (-6.185328674316406e-05, 6.07421875) (-6.27282600402832e-05, 6.076171875) (-6.33663215637207e-05, 6.078125) (-6.375738525390624e-05, 6.080078125) (-6.390000915527343e-05, 6.08203125) (-6.381365966796875e-05, 6.083984375) (-6.352420806884766e-05, 6.0859375) (-6.305529022216797e-05, 6.087890625) (-6.242523193359375e-05, 6.08984375) (-6.164463806152344e-05, 6.091796875) (-6.0705863952636715e-05, 6.09375) (-5.959209060668945e-05, 6.095703125) (-5.82943000793457e-05, 6.09765625) (-5.6811683654785156e-05, 6.099609375) (-5.516374588012695e-05, 6.1015625) (-5.3378135681152345e-05, 6.103515625) (-5.148798751831054e-05, 6.10546875) (-4.95381851196289e-05, 6.107421875) (-4.756235122680664e-05, 6.109375) (-4.558487319946289e-05, 6.111328125) (-4.362236022949219e-05, 6.11328125) (-4.1675659179687495e-05, 6.115234375) (-3.973670959472656e-05, 6.1171875) (-3.77967300415039e-05, 6.119140625) (-3.584632110595703e-05, 6.12109375) (-3.3874187469482424e-05, 6.123046875) (-3.187881851196289e-05, 6.125) (-2.9863985061645506e-05, 6.126953125) (-2.7828952789306638e-05, 6.12890625) (-2.5772254943847656e-05, 6.130859375) (-2.3683443069458008e-05, 6.1328125) (-2.154359245300293e-05, 6.134765625) (-1.9328060150146483e-05, 6.13671875) (-1.7004989624023437e-05, 6.138671875) (-1.454412841796875e-05, 6.140625) (-1.191883373260498e-05, 6.142578125) (-9.107471466064453e-06, 6.14453125) (-6.094405174255371e-06, 6.146484375) (-2.868575096130371e-06, 6.1484375) (5.787599086761475e-07, 6.150390625) (4.253850936889648e-06, 6.15234375) (8.158799171447754e-06, 6.154296875) (1.2298412322998046e-05, 6.15625) (1.668031883239746e-05, 6.158203125) (2.1311885833740233e-05, 6.16015625) (2.6201541900634763e-05, 6.162109375) (3.1355939865112306e-05, 6.1640625) (3.677671813964844e-05, 6.166015625) (4.246146392822265e-05, 6.16796875) (4.840708541870117e-05, 6.169921875) (5.4608669281005857e-05, 6.171875) (6.106126403808594e-05, 6.173828125) (6.776186370849609e-05, 6.17578125) (7.470244598388672e-05, 6.177734375) (8.187014770507812e-05, 6.1796875) (8.925092315673828e-05, 6.181640625) (9.682852172851562e-05, 6.18359375) (0.00010458379364013671, 6.185546875) (0.00011249473571777343, 6.1875) (0.00012053097534179687, 6.189453125) (0.00012865501403808594, 6.19140625) (0.00013683258056640624, 6.193359375) (0.00014502943420410154, 6.1953125) (0.00015321514892578124, 6.197265625) (0.0001613638153076172, 6.19921875) (0.0001694424591064453, 6.201171875) (0.00017741946411132812, 6.203125) (0.0001852666015625, 6.205078125) (0.00019295281982421874, 6.20703125) (0.00020045672607421874, 6.208984375) (0.00020776893615722655, 6.2109375) (0.00021487969970703123, 6.212890625) (0.00022178472900390625, 6.21484375) (0.00022849322509765625, 6.216796875) (0.00023501464843749998, 6.21875) (0.0002413704376220703, 6.220703125) (0.0002475927734375, 6.22265625) (0.000253694839477539, 6.224609375) (0.000259680908203125, 6.2265625) (0.0002655470581054687, 6.228515625) (0.0002712786865234375, 6.23046875) (0.000276869873046875, 6.232421875) (0.0002823095703125, 6.234375) (0.0002875723266601562, 6.236328125) (0.0002926331481933594, 6.23828125) (0.00029745922851562496, 6.240234375) (0.0003020032958984375, 6.2421875) (0.00030622265624999996, 6.244140625) (0.00031006158447265624, 6.24609375) (0.0003134342041015625, 6.248046875) (0.0003162572021484375, 6.25) (0.00031843841552734375, 6.251953125) (0.000319877685546875, 6.25390625) (0.0003205093994140625, 6.255859375) (0.000320285888671875, 6.2578125) (0.0003191669921875, 6.259765625) (0.0003171263427734375, 6.26171875) (0.0003141350402832031, 6.263671875) (0.00031017413330078125, 6.265625) (0.0003052479553222656, 6.267578125) (0.0002993636474609375, 6.26953125) (0.0002925263671875, 6.271484375) (0.00028474926757812496, 6.2734375) (0.000276044189453125, 6.275390625) (0.00026645285034179684, 6.27734375) (0.00025606671142578124, 6.279296875) (0.0002449832305908203, 6.28125) (0.00023330752563476562, 6.283203125) (0.000221152099609375, 6.28515625) (0.0002086024475097656, 6.287109375) (0.00019573690795898438, 6.2890625) (0.00018264349365234374, 6.291015625) (0.0001694076690673828, 6.29296875) (0.00015611592102050782, 6.294921875) (0.00014285223388671876, 6.296875) (0.00012969033813476562, 6.298828125) (0.00011671324157714843, 6.30078125) (0.00010402679443359375, 6.302734375) (9.174971771240235e-05, 6.3046875) (7.999920654296874e-05, 6.306640625) (6.885504150390625e-05, 6.30859375) (5.834853363037109e-05, 6.310546875) (4.849740982055664e-05, 6.3125) (3.9314533233642574e-05, 6.314453125) (3.080902290344238e-05, 6.31640625) (2.2997142791748047e-05, 6.318359375) (1.588533306121826e-05, 6.3203125) (9.459162712097167e-06, 6.322265625) (3.6984248161315915e-06, 6.32421875) (-1.4162553548812865e-06, 6.326171875) (-5.907522678375244e-06, 6.328125) (-9.806831359863281e-06, 6.330078125) (-1.3166872978210449e-05, 6.33203125) (-1.6073854446411133e-05, 6.333984375) (-1.864034843444824e-05, 6.3359375) (-2.097390556335449e-05, 6.337890625) 