(0.00013691798400878905, 0.0) (0.00016833050537109375, 0.001953125) (0.00019729296874999999, 0.00390625) (0.0002153553924560547, 0.005859375) (0.00021609295654296875, 0.0078125) (0.00019735507202148437, 0.009765625) (0.00016571379089355467, 0.01171875) (0.00013136706542968748, 0.013671875) (0.0001043843994140625, 0.015625) (9.348168182373046e-05, 0.017578125) (9.929064941406249e-05, 0.01953125) (0.00011687933349609374, 0.021484375) (0.00013979843139648438, 0.0234375) (0.0001591744384765625, 0.025390625) (0.00016897659301757812, 0.02734375) (0.0001681282501220703, 0.029296875) (0.00015684169006347656, 0.03125) (0.00013883139038085938, 0.033203125) (0.00011988162994384765, 0.03515625) (0.00010294325256347656, 0.037109375) (9.031778717041015e-05, 0.0390625) (8.205902862548827e-05, 0.041015625) (7.510827636718749e-05, 0.04296875) (6.771707153320312e-05, 0.044921875) (5.8773525238037106e-05, 0.046875) (4.7882991790771485e-05, 0.048828125) (3.6236454010009766e-05, 0.05078125) (2.443998336791992e-05, 0.052734375) (1.2523159027099608e-05, 0.0546875) (5.516166687011718e-07, 0.056640625) (-1.163230800628662e-05, 0.05859375) (-2.4006256103515623e-05, 0.060546875) (-3.6316909790039064e-05, 0.0625) (-4.8402580261230465e-05, 0.064453125) (-6.020660018920898e-05, 0.06640625) (-7.169235229492188e-05, 0.068359375) (-8.28189239501953e-05, 0.0703125) (-9.356793212890624e-05, 0.072265625) (-0.00010394413757324218, 0.07421875) (-0.0001139345703125, 0.076171875) (-0.00012356173706054688, 0.078125) (-0.0001328718566894531, 0.080078125) (-0.00014184214782714843, 0.08203125) (-0.00015045320129394532, 0.083984375) (-0.00015870829772949218, 0.0859375) (-0.00016655494689941407, 0.087890625) (-0.00017395080566406248, 0.08984375) (-0.0001809365997314453, 0.091796875) (-0.0001875579376220703, 0.09375) (-0.0001937475891113281, 0.095703125) (-0.00019941055297851562, 0.09765625) (-0.00020458050537109374, 0.099609375) (-0.00020924609375, 0.1015625) (-0.00021346644592285156, 0.103515625) (-0.0002176106719970703, 0.10546875) (-0.00022115800476074217, 0.107421875) (-0.00022346484374999998, 0.109375) (-0.0002251897735595703, 0.111328125) (-0.00022641078186035155, 0.11328125) (-0.0002286791076660156, 0.115234375) (-0.00023393710327148436, 0.1171875) (-0.0002400407257080078, 0.119140625) (-0.00024536437988281247, 0.12109375) (-0.0002477310791015625, 0.123046875) (-0.0002445548400878906, 0.125) (-0.00023899513244628906, 0.126953125) (-0.0002333842315673828, 0.12890625) (-0.0002284815673828125, 0.130859375) (-0.00022601145935058592, 0.1328125) (-0.0002244019775390625, 0.134765625) (-0.0002244615478515625, 0.13671875) (-0.000229750732421875, 0.138671875) (-0.00024095498657226562, 0.140625) (-0.000256882080078125, 0.142578125) (-0.0002722004089355469, 0.14453125) (-0.0002790278625488281, 0.146484375) (-0.0002728940734863281, 0.1484375) (-0.00025313380432128905, 0.150390625) (-0.00022314205932617186, 0.15234375) (-0.00018924554443359374, 0.154296875) (-0.0001579217834472656, 0.15625) (-0.00013555224609375, 0.158203125) (-0.00012622645568847654, 0.16015625) (-0.00012983193969726562, 0.162109375) (-0.00014214920043945312, 0.1640625) (-0.0001554217529296875, 0.166015625) (-0.0001630234375, 0.16796875) (-0.00016269277954101562, 0.169921875) (-0.000156013427734375, 0.171875) (-0.00014718080139160155, 0.173828125) (-0.0001391825714111328, 0.17578125) (-0.0001323130645751953, 0.177734375) (-0.00012566676330566406, 0.1796875) (-0.00011807681274414062, 0.181640625) (-0.00010936293029785156, 0.18359375) (-0.00010007964324951171, 0.185546875) (-9.059660339355468e-05, 0.1875) (-8.103804016113281e-05, 0.189453125) (-7.133184814453125e-05, 0.19140625) (-6.145713806152344e-05, 0.193359375) (-5.148586654663086e-05, 0.1953125) (-4.1378784179687496e-05, 0.197265625) (-3.092725372314453e-05, 0.19921875) (-1.993791389465332e-05, 0.201171875) (-8.362931251525879e-06, 0.203125) (3.708712577819824e-06, 0.205078125) (1.6132863998413085e-05, 0.20703125) (2.8795850753784177e-05, 0.208984375) (4.1606037139892576e-05, 0.2109375) (5.4465118408203125e-05, 0.212890625) (6.720423126220703e-05, 0.21484375) (7.962979888916015e-05, 0.216796875) (9.162531280517578e-05, 0.21875) (0.00010308384704589843, 0.220703125) (0.0001137857208251953, 0.22265625) (0.00012350437927246093, 0.224609375) (0.00013217745971679686, 0.2265625) (0.00013970295715332032, 0.228515625) (0.00014600009155273436, 0.23046875) (0.00015120687866210936, 0.232421875) (0.0001545938720703125, 0.234375) (0.0001555259552001953, 0.236328125) (0.00015490093994140625, 0.23828125) (0.00015315788269042968, 0.240234375) (0.0001521786346435547, 0.2421875) (0.00015410592651367186, 0.244140625) (0.00015706674194335937, 0.24609375) (0.0001599053955078125, 0.248046875) (0.00016086773681640623, 0.25) (0.00015738674926757813, 0.251953125) (0.00015206369018554687, 0.25390625) (0.0001468751220703125, 0.255859375) (0.00014282728576660156, 0.2578125) (0.00014193637084960938, 0.259765625) (0.0001424542999267578, 0.26171875) (0.0001428141632080078, 0.263671875) (0.00014282583618164063, 0.265625) (0.00014176734924316406, 0.267578125) (0.0001407859344482422, 0.26953125) (0.00014146163940429688, 0.271484375) (0.00014496002197265625, 0.2734375) (0.00015274278259277342, 0.275390625) (0.0001654944610595703, 0.27734375) (0.00018334768676757813, 0.279296875) (0.00020656152343749999, 0.28125) (0.00023506863403320312, 0.283203125) (0.0002685031433105469, 0.28515625) (0.00030637869262695313, 0.287109375) (0.0003474295654296875, 0.2890625) (0.00039001544189453123, 0.291015625) (0.00043301013183593746, 0.29296875) (0.00047547518920898436, 0.294921875) (0.0005164024658203125, 0.296875) (0.0005549290771484375, 0.298828125) (0.0005899860839843749, 0.30078125) (0.0006202509155273437, 0.302734375) (0.0006450196533203125, 0.3046875) (0.0006639810791015624, 0.306640625) (0.0006766116333007812, 0.30859375) (0.0006825325927734374, 0.310546875) (0.0006815113525390625, 0.3125) (0.0006733493041992187, 0.314453125) (0.0006583483276367188, 0.31640625) (0.0006373432006835937, 0.318359375) (0.0006110798950195312, 0.3203125) (0.0005801926879882812, 0.322265625) (0.0005453798828125, 0.32421875) (0.0005073170776367187, 0.326171875) (0.0004668073120117187, 0.328125) (0.00042483212280273433, 0.330078125) (0.00038226937866210934, 0.33203125) (0.0003396671142578125, 0.333984375) (0.00029742321777343747, 0.3359375) (0.00025602127075195313, 0.337890625) (0.00021604075622558592, 0.33984375) (0.00017796447753906248, 0.341796875) (0.0001420887451171875, 0.34375) (0.00010839657592773437, 0.345703125) (7.659092712402344e-05, 0.34765625) (4.654029083251953e-05, 0.349609375) (1.8294509887695313e-05, 0.3515625) (-8.215753555297851e-06, 0.353515625) (-3.318133544921875e-05, 0.35546875) (-5.6743507385253904e-05, 0.357421875) (-7.900695037841797e-05, 0.359375) (-9.986592864990234e-05, 0.361328125) (-0.00011895465087890625, 0.36328125) (-0.000136092041015625, 0.365234375) (-0.000151290771484375, 0.3671875) (-0.00016456895446777343, 0.369140625) (-0.00017599969482421873, 0.37109375) (-0.0001857128448486328, 0.373046875) (-0.00019386790466308592, 0.375) (-0.00020077079772949218, 0.376953125) (-0.00020688040161132812, 0.37890625) (-0.00021256787109375, 0.380859375) (-0.00021811589050292968, 0.3828125) (-0.000223770751953125, 0.384765625) (-0.00022969287109374998, 0.38671875) (-0.0002360086212158203, 0.388671875) (-0.00024280892944335936, 0.390625) (-0.0002500998077392578, 0.392578125) (-0.0002577970886230469, 0.39453125) (-0.0002658214416503906, 0.396484375) (-0.000274170654296875, 0.3984375) (-0.0002828379211425781, 0.400390625) (-0.00029173269653320314, 0.40234375) (-0.0003006465148925781, 0.404296875) (-0.0003092839050292969, 0.40625) (-0.000317381103515625, 0.408203125) (-0.0003248451843261719, 0.41015625) (-0.00033163812255859374, 0.412109375) (-0.00033744482421875, 0.4140625) (-0.00034183270263671875, 0.416015625) (-0.00034480975341796876, 0.41796875) (-0.00034684899902343746, 0.419921875) (-0.0003484885559082031, 0.421875) (-0.00035031576538085935, 0.423828125) (-0.0003517391357421875, 0.42578125) (-0.0003510118408203125, 0.427734375) (-0.00034836386108398436, 0.4296875) (-0.0003448378295898437, 0.431640625) (-0.0003419497375488281, 0.43359375) (-0.00034269439697265624, 0.435546875) (-0.00034531466674804685, 0.4375) (-0.00034529364013671874, 0.439453125) (-0.00033937042236328126, 0.44140625) (-0.00032275030517578125, 0.443359375) (-0.00029588088989257813, 0.4453125) (-0.00026311230468749997, 0.447265625) (-0.0002268119659423828, 0.44921875) (-0.00019139093017578123, 0.451171875) (-0.00015995904541015623, 0.453125) (-0.00013555062866210936, 0.455078125) (-0.00012437201690673828, 0.45703125) (-0.000131287109375, 0.458984375) (-0.00015787168884277342, 0.4609375) (-0.00019923077392578124, 0.462890625) (-0.0002447095031738281, 0.46484375) (-0.0002819972534179687, 0.466796875) (-0.0003021597290039062, 0.46875) (-0.0003042806701660156, 0.470703125) (-0.0002937354431152344, 0.47265625) (-0.000279720947265625, 0.474609375) (-0.00027012216186523435, 0.4765625) (-0.0002680263977050781, 0.478515625) (-0.0002726427307128906, 0.48046875) (-0.00027988067626953124, 0.482421875) (-0.00028645556640625, 0.484375) (-0.0002913670654296875, 0.486328125) (-0.00029485064697265626, 0.48828125) (-0.00029860772705078123, 0.490234375) (-0.0003033671264648437, 0.4921875) (-0.00030827337646484375, 0.494140625) (-0.0003121346740722656, 0.49609375) (-0.00031359570312499996, 0.498046875) (-0.00031179891967773437, 0.5) (-0.00030676754760742186, 0.501953125) (-0.0002989394836425781, 0.50390625) (-0.0002885615234375, 0.505859375) (-0.0002758767395019531, 0.5078125) (-0.00026140106201171876, 0.509765625) (-0.0002460064697265625, 0.51171875) (-0.00023107174682617185, 0.513671875) (-0.00021812506103515623, 0.515625) (-0.00020822848510742187, 0.517578125) (-0.0002018817138671875, 0.51953125) (-0.00019952593994140624, 0.521484375) (-0.00020171984863281248, 0.5234375) (-0.00020895932006835937, 0.525390625) (-0.00022134985351562498, 0.52734375) (-0.00023821954345703124, 0.529296875) (-0.00025838275146484373, 0.53125) (-0.000280806884765625, 0.533203125) (-0.0003045758056640625, 0.53515625) (-0.00032862347412109373, 0.537109375) (-0.0003515678100585937, 0.5390625) (-0.00037168261718749997, 0.541015625) (-0.00038751507568359373, 0.54296875) (-0.00039835079956054685, 0.544921875) (-0.00040383334350585937, 0.546875) (-0.000403594482421875, 0.548828125) (-0.0003976279296875, 0.55078125) (-0.00038625256347656246, 0.552734375) (-0.00037030795288085934, 0.5546875) (-0.00035132974243164063, 0.556640625) (-0.00033065301513671874, 0.55859375) (-0.0003092657470703125, 0.560546875) (-0.00028830059814453126, 0.5625) (-0.00026891253662109376, 0.564453125) (-0.00025193899536132814, 0.56640625) (-0.00023808586120605468, 0.568359375) (-0.00022752481079101562, 0.5703125) (-0.00021985302734374998, 0.572265625) (-0.00021499899291992186, 0.57421875) (-0.00021268116760253904, 0.576171875) (-0.00021202879333496094, 0.578125) (-0.00021212503051757812, 0.580078125) (-0.00021193914794921873, 0.58203125) (-0.0002109129943847656, 0.583984375) (-0.00020942938232421874, 0.5859375) (-0.00020752752685546875, 0.587890625) (-0.0002040498046875, 0.58984375) (-0.00019588734436035154, 0.591796875) (-0.00017875119018554686, 0.59375) (-0.00015033279418945312, 0.595703125) (-0.00011116940307617187, 0.59765625) (-6.594805908203125e-05, 0.599609375) (-2.142609405517578e-05, 0.6015625) (2.0949132919311522e-05, 0.603515625) (6.625314331054688e-05, 0.60546875) (0.00012695582580566405, 0.607421875) (0.00022071749877929686, 0.609375) (0.00035691906738281247, 0.611328125) (0.0005303443603515625, 0.61328125) (0.0007214249267578124, 0.615234375) (0.0009012717285156249, 0.6171875) (0.001053459228515625, 0.619140625) (0.0011921634521484374, 0.62109375) (0.0013610443115234375, 0.623046875) (0.001615494140625, 0.625) (0.001985883056640625, 0.626953125) (0.002442536865234375, 0.62890625) (0.0028944404296875, 0.630859375) (0.0032218212890624998, 0.6328125) (0.0033275996093749998, 0.634765625) (0.00318452294921875, 0.63671875) (0.0028414541015625, 0.638671875) (0.00239105322265625, 0.640625) (0.0019238101806640625, 0.642578125) (0.001491181396484375, 0.64453125) (0.0011056950683593749, 0.646484375) (0.0007650726318359375, 0.6484375) (0.00047539767456054687, 0.650390625) (0.0002604750671386719, 0.65234375) (0.00014306488037109375, 0.654296875) (0.00012011833953857421, 0.65625) (0.00015793988037109374, 0.658203125) (0.00020159977722167968, 0.66015625) (0.00020181884765625, 0.662109375) (0.00014362612915039063, 0.6640625) (4.259154510498047e-05, 0.666015625) (-6.8530029296875e-05, 0.66796875) (-0.00015573480224609373, 0.669921875) (-0.00020913131713867186, 0.671875) (-0.00023579080200195312, 0.673828125) (-0.0002462839660644531, 0.67578125) (-0.0002532683410644531, 0.677734375) (-0.0002557261962890625, 0.6796875) (-0.000246324462890625, 0.681640625) (-0.0002260770263671875, 0.68359375) (-0.00020161965942382812, 0.685546875) (-0.0001910349884033203, 0.6875) (-0.00021552435302734375, 0.689453125) (-0.0002826538696289062, 0.69140625) (-0.00038294149780273434, 0.693359375) (-0.00048813635253906247, 0.6953125) (-0.00056154052734375, 0.697265625) (-0.0005768596801757812, 0.69921875) (-0.0005297303466796875, 0.701171875) (-0.00044151971435546874, 0.703125) (-0.0003512578430175781, 0.705078125) (-0.0002969580078125, 0.70703125) (-0.0002990217590332031, 0.708984375) (-0.00035403466796875, 0.7109375) (-0.00043524716186523437, 0.712890625) (-0.0005060441284179687, 0.71484375) (-0.0005394437866210937, 0.716796875) (-0.0005242190551757812, 0.71875) (-0.00047062377929687495, 0.720703125) (-0.0004071752319335937, 0.72265625) (-0.00036073959350585937, 0.724609375) (-0.0003492530517578125, 0.7265625) (-0.00037701669311523435, 0.728515625) (-0.0004277467041015625, 0.73046875) (-0.0004790475463867187, 0.732421875) (-0.0005146224975585938, 0.734375) (-0.0005234847412109375, 0.736328125) (-0.0005100461120605468, 0.73828125) (-0.0004901270751953125, 0.740234375) (-0.00047430499267578125, 0.7421875) (-0.0004714921264648437, 0.744140625) (-0.00048389538574218746, 0.74609375) (-0.0005025718383789063, 0.748046875) (-0.0005221710205078124, 0.75) (-0.0005392515258789062, 0.751953125) (-0.000550706787109375, 0.75390625) (-0.0005595697021484375, 0.755859375) (-0.0005673297119140625, 0.7578125) (-0.0005731840209960938, 0.759765625) (-0.000577455810546875, 0.76171875) (-0.0005787049560546874, 0.763671875) (-0.0005759411621093749, 0.765625) (-0.0005697390747070312, 0.767578125) (-0.0005606209716796875, 0.76953125) (-0.0005497930908203125, 0.771484375) (-0.0005386259155273438, 0.7734375) (-0.0005279764404296875, 0.775390625) (-0.0005185368041992187, 0.77734375) (-0.0005109005737304687, 0.779296875) (-0.0005052994995117187, 0.78125) (-0.0005018235473632812, 0.783203125) (-0.0005004039306640625, 0.78515625) (-0.0005003544311523437, 0.787109375) (-0.0005009293212890625, 0.7890625) (-0.0005016853637695312, 0.791015625) (-0.0005024342041015624, 0.79296875) (-0.0005030211486816407, 0.794921875) (-0.0005033595581054687, 0.796875) (-0.0005036431274414062, 0.798828125) (-0.0005032108154296875, 0.80078125) (-0.0005016811523437499, 0.802734375) (-0.0005003234252929687, 0.8046875) (-0.0004995582580566406, 0.806640625) (-0.000501022216796875, 0.80859375) (-0.0005074747924804688, 0.810546875) (-0.0005171173706054687, 0.8125) (-0.0005274610595703125, 0.814453125) (-0.0005358931884765624, 0.81640625) (-0.0005372488403320312, 0.818359375) (-0.0005321405029296874, 0.8203125) (-0.0005252718505859375, 0.822265625) (-0.0005197864990234374, 0.82421875) (-0.0005208050537109374, 0.826171875) (-0.0005296159057617188, 0.828125) (-0.0005413493041992188, 0.830078125) (-0.0005531291503906249, 0.83203125) (-0.0005620817260742187, 0.833984375) (-0.000566169677734375, 0.8359375) (-0.00056826513671875, 0.837890625) (-0.0005701951293945312, 0.83984375) (-0.000572516845703125, 0.841796875) (-0.0005763945922851562, 0.84375) (-0.0005809613647460937, 0.845703125) (-0.0005854274902343749, 0.84765625) (-0.00059004931640625, 0.849609375) (-0.0005946508789062499, 0.8515625) (-0.0005992608642578125, 0.853515625) (-0.0006040953369140624, 0.85546875) (-0.0006089949951171875, 0.857421875) (-0.0006137171020507812, 0.859375) (-0.0006181754760742187, 0.861328125) (-0.000622302734375, 0.86328125) (-0.0006261575927734374, 0.865234375) (-0.0006300345458984375, 0.8671875) (-0.0006341058349609375, 0.869140625) (-0.0006382537231445312, 0.87109375) (-0.0006424217529296875, 0.873046875) (-0.0006467662353515625, 0.875) (-0.000651342529296875, 0.876953125) (-0.0006560464477539062, 0.87890625) (-0.0006603778076171875, 0.880859375) (-0.0006632565917968749, 0.8828125) (-0.000664592529296875, 0.884765625) (-0.0006657283935546875, 0.88671875) (-0.00066766259765625, 0.888671875) (-0.0006701973876953125, 0.890625) (-0.0006706006469726563, 0.892578125) (-0.0006644337158203125, 0.89453125) (-0.0006502930908203125, 0.896484375) (-0.0006321675415039063, 0.8984375) (-0.0006186762695312499, 0.900390625) (-0.0006189392089843749, 0.90234375) (-0.0006368606567382812, 0.904296875) (-0.0006685930175781249, 0.90625) (-0.0007043274536132812, 0.908203125) (-0.0007346348876953125, 0.91015625) (-0.00075418505859375, 0.912109375) (-0.0007625697021484374, 0.9140625) (-0.0007635235595703125, 0.916015625) (-0.000759837646484375, 0.91796875) (-0.0007524395141601562, 0.919921875) (-0.0007415940551757812, 0.921875) (-0.0007267755126953125, 0.923828125) (-0.0007087952270507812, 0.92578125) (-0.000689772705078125, 0.927734375) (-0.0006716779174804687, 0.9296875) (-0.0006564953002929688, 0.931640625) (-0.0006460419921875, 0.93359375) (-0.000641310302734375, 0.935546875) (-0.0006425941162109375, 0.9375) (-0.00064953857421875, 0.939453125) (-0.0006609636230468749, 0.94140625) (-0.0006754832763671874, 0.943359375) (-0.0006919177856445312, 0.9453125) (-0.0007088753662109374, 0.947265625) (-0.00072471337890625, 0.94921875) (-0.0007378703613281249, 0.951171875) (-0.0007469181518554687, 0.953125) (-0.0007510010986328125, 0.955078125) (-0.0007498901977539063, 0.95703125) (-0.00074348876953125, 0.958984375) (-0.0007319952392578125, 0.9609375) (-0.000716088134765625, 0.962890625) (-0.0006967791137695312, 0.96484375) (-0.0006754116821289062, 0.966796875) (-0.0006535538330078124, 0.96875) (-0.0006325878295898438, 0.970703125) (-0.0006139461059570312, 0.97265625) (-0.0005992232666015625, 0.974609375) (-0.0005893907470703125, 0.9765625) (-0.0005848228759765625, 0.978515625) (-0.0005855513305664062, 0.98046875) (-0.0005912769775390625, 0.982421875) (-0.0006016011962890625, 0.984375) (-0.0006160119018554687, 0.986328125) (-0.0006334456787109374, 0.98828125) (-0.000652308349609375, 0.990234375) (-0.0006714192504882812, 0.9921875) (-0.000690077880859375, 0.994140625) (-0.00070766552734375, 0.99609375) (-0.0007233990478515625, 0.998046875) (-0.0007361992797851562, 1.0) (-0.000744964111328125, 1.001953125) (-0.0007488301391601562, 1.00390625) (-0.00074741064453125, 1.005859375) (-0.0007401275024414062, 1.0078125) (-0.000725904052734375, 1.009765625) (-0.0007048288574218749, 1.01171875) (-0.0006785476684570312, 1.013671875) (-0.0006485823974609375, 1.015625) (-0.0006165380859375, 1.017578125) (-0.000581538818359375, 1.01953125) (-0.0005393867187499999, 1.021484375) (-0.0004891246948242187, 1.0234375) (-0.0004329234619140625, 1.025390625) (-0.00037754757690429684, 1.02734375) (-0.00033548077392578124, 1.029296875) (-0.00031443453979492186, 1.03125) (-0.00031678207397460936, 1.033203125) (-0.00033891494750976564, 1.03515625) (-0.00036880316162109375, 1.037109375) (-0.00039633917236328126, 1.0390625) (-0.00041409802246093747, 1.041015625) (-0.00041768798828125, 1.04296875) (-0.00040954367065429686, 1.044921875) (-0.00039213119506835935, 1.046875) (-0.00036836816406249996, 1.048828125) (-0.0003426749267578125, 1.05078125) (-0.00031789260864257813, 1.052734375) (-0.00029810394287109373, 1.0546875) (-0.00028774130249023435, 1.056640625) (-0.00028865341186523434, 1.05859375) (-0.000300199462890625, 1.060546875) (-0.00031927191162109376, 1.0625) (-0.00033929370117187496, 1.064453125) (-0.0003532720947265625, 1.06640625) (-0.0003575957641601562, 1.068359375) (-0.00035051437377929686, 1.0703125) (-0.00033515402221679687, 1.072265625) (-0.0003183370056152344, 1.07421875) (-0.00030425225830078124, 1.076171875) (-0.00029611230468749996, 1.078125) (-0.00029376437377929686, 1.080078125) (-0.0002930467529296875, 1.08203125) (-0.00029150436401367185, 1.083984375) (-0.0002875281982421875, 1.0859375) (-0.0002805683898925781, 1.087890625) (-0.00027215631103515625, 1.08984375) (-0.00026302343749999997, 1.091796875) (-0.00025318545532226563, 1.09375) (-0.000242818115234375, 1.095703125) (-0.0002317645263671875, 1.09765625) (-0.00022006932067871092, 1.099609375) (-0.00020817552185058592, 1.1015625) (-0.0001963959045410156, 1.103515625) (-0.00018489947509765624, 1.10546875) (-0.000173882080078125, 1.107421875) (-0.0001634635467529297, 1.109375) (-0.00015364538574218748, 1.111328125) (-0.00014450767517089843, 1.11328125) (-0.00013621682739257813, 1.115234375) (-0.00012876136779785155, 1.1171875) (-0.00012200599670410156, 1.119140625) (-0.0001159963150024414, 1.12109375) (-0.00011080910491943359, 1.123046875) (-0.0001064073257446289, 1.125) (-0.00010314497375488281, 1.126953125) (-0.00010069869232177734, 1.12890625) (-9.749411010742188e-05, 1.130859375) (-9.372023010253906e-05, 1.1328125) (-9.071873474121093e-05, 1.134765625) (-9.031571197509766e-05, 1.13671875) (-9.72304458618164e-05, 1.138671875) (-0.00011196114349365234, 1.140625) (-0.0001292525939941406, 1.142578125) (-0.00014456207275390624, 1.14453125) (-0.00015022474670410156, 1.146484375) (-0.0001433345489501953, 1.1484375) (-0.00013133651733398437, 1.150390625) (-0.00011991502380371093, 1.15234375) (-0.00011594258880615234, 1.154296875) (-0.00012342198181152344, 1.15625) (-0.00013561740112304687, 1.158203125) (-0.0001471458740234375, 1.16015625) (-0.00015349554443359374, 1.162109375) (-0.0001518479766845703, 1.1640625) (-0.00014699174499511718, 1.166015625) (-0.00014385569763183592, 1.16796875) (-0.00014662052917480467, 1.169921875) (-0.00015655088806152342, 1.171875) (-0.00017001536560058594, 1.173828125) (-0.00018181425476074218, 1.17578125) (-0.00018547184753417968, 1.177734375) (-0.00017889523315429685, 1.1796875) (-0.00016389735412597654, 1.181640625) (-0.00014500892639160155, 1.18359375) (-0.00013034519958496094, 1.185546875) (-0.00012408543395996094, 1.1875) (-0.00012734731292724609, 1.189453125) (-0.00013805052185058593, 1.19140625) (-0.00014949427795410156, 1.193359375) (-0.00015738351440429686, 1.1953125) (-0.00015930099487304687, 1.197265625) (-0.0001551859893798828, 1.19921875) (-0.00014864054870605467, 1.201171875) (-0.000141973876953125, 1.203125) (-0.0001364176788330078, 1.205078125) (-0.00013235269165039063, 1.20703125) (-0.00012846614074707032, 1.208984375) (-0.00012408853149414062, 1.2109375) (-0.00011920449829101562, 1.212890625) (-0.00011376586151123047, 1.21484375) (-0.00010805744171142578, 1.216796875) (-0.00010219942474365233, 1.21875) (-9.606585693359374e-05, 1.220703125) (-8.974945068359374e-05, 1.22265625) (-8.343017578125e-05, 1.224609375) (-7.722684478759766e-05, 1.2265625) (-7.121110534667968e-05, 1.228515625) (-6.527503967285155e-05, 1.23046875) (-5.915557098388672e-05, 1.232421875) (-5.265937042236328e-05, 1.234375) (-4.57550163269043e-05, 1.236328125) (-3.828522109985352e-05, 1.23828125) (-3.005312728881836e-05, 1.240234375) (-2.1213125228881835e-05, 1.2421875) (-1.2168850898742675e-05, 1.244140625) (-3.6777877807617184e-06, 1.24609375) (2.909682989120483e-06, 1.248046875) (7.464338302612304e-06, 1.25) (1.167490005493164e-05, 1.251953125) (1.6459987640380858e-05, 1.25390625) (2.2189285278320312e-05, 1.255859375) (2.6244335174560546e-05, 1.2578125) (2.16873722076416e-05, 1.259765625) (4.932931900024414e-06, 1.26171875) (-2.186967658996582e-05, 1.263671875) (-4.8820663452148434e-05, 1.265625) (-5.831906127929687e-05, 1.267578125) (-3.684200286865234e-05, 1.26953125) (1.88768196105957e-05, 1.271484375) (9.883846282958984e-05, 1.2734375) (0.00018207312011718748, 1.275390625) (0.00024850625610351563, 1.27734375) (0.00028485665893554686, 1.279296875) (0.00028988363647460935, 1.28125) (0.00027290539550781247, 1.283203125) (0.0002451786804199219, 1.28515625) (0.00021915634155273436, 1.287109375) (0.0002030617218017578, 1.2890625) (0.00019850869750976562, 1.291015625) (0.00020578564453124998, 1.29296875) (0.0002202387237548828, 1.294921875) (0.00023520349121093748, 1.296875) (0.00024753146362304685, 1.298828125) (0.00025416578674316404, 1.30078125) (0.0002554475402832031, 1.302734375) (0.0002548811798095703, 1.3046875) (0.00025369955444335936, 1.306640625) (0.00025285272216796873, 1.30859375) (0.00025240823364257813, 1.310546875) (0.0002506876220703125, 1.3125) (0.0002472037658691406, 1.314453125) (0.00024220591735839842, 1.31640625) (0.00023586932373046874, 1.318359375) (0.0002288358917236328, 1.3203125) (0.00022156759643554685, 1.322265625) (0.00021409518432617187, 1.32421875) (0.0002065231018066406, 1.326171875) (0.00019892312622070313, 1.328125) (0.0001912062530517578, 1.330078125) (0.00018322776794433594, 1.33203125) (0.00017475932312011717, 1.333984375) (0.00016564642333984374, 1.3359375) (0.00015591766357421873, 1.337890625) (0.00014566575622558593, 1.33984375) (0.00013497117614746094, 1.341796875) (0.00012398751831054687, 1.34375) (0.00011289154815673828, 1.345703125) (0.00010208010101318359, 1.34765625) (9.229509735107422e-05, 1.349609375) (8.396666717529296e-05, 1.3515625) (7.70927734375e-05, 1.353515625) (7.153038787841797e-05, 1.35546875) (6.68907699584961e-05, 1.357421875) (6.261653518676758e-05, 1.359375) (5.8240966796875e-05, 1.361328125) (5.288079071044922e-05, 1.36328125) (4.5025939941406247e-05, 1.365234375) (3.3641937255859375e-05, 1.3671875) (1.8245689392089844e-05, 1.369140625) (-1.3612499237060546e-06, 1.37109375) (-2.4596420288085936e-05, 1.373046875) (-5.036767959594726e-05, 1.375) (-7.761453247070312e-05, 1.376953125) (-0.00010469622039794921, 1.37890625) (-0.0001290538787841797, 1.380859375) (-0.0001484664306640625, 1.3828125) (-0.00016113638305664062, 1.384765625) (-0.0001654293212890625, 1.38671875) (-0.0001617779541015625, 1.388671875) (-0.00015230799865722657, 1.390625) (-0.00013824765014648437, 1.392578125) (-0.00012056720733642578, 1.39453125) (-9.852716827392577e-05, 1.396484375) (-6.939496612548828e-05, 1.3984375) (-3.4312374114990234e-05, 1.400390625) (1.3614606857299804e-06, 1.40234375) (2.9293304443359373e-05, 1.404296875) (4.042979431152344e-05, 1.40625) (3.219161987304687e-05, 1.408203125) (9.516247749328612e-06, 1.41015625) (-1.8014089584350586e-05, 1.412109375) (-4.0761489868164064e-05, 1.4140625) (-5.423805236816406e-05, 1.416015625) (-5.9342506408691404e-05, 1.41796875) (-6.007732772827148e-05, 1.419921875) (-5.987671279907226e-05, 1.421875) (-5.968780136108398e-05, 1.423828125) (-5.894237518310547e-05, 1.42578125) (-5.668626022338867e-05, 1.427734375) (-5.2929218292236325e-05, 1.4296875) (-4.868275070190429e-05, 1.431640625) (-4.492021942138672e-05, 1.43359375) (-4.219532394409179e-05, 1.435546875) (-4.0579010009765625e-05, 1.4375) (-3.98469009399414e-05, 1.439453125) (-3.978966903686523e-05, 1.44140625) (-4.01913833618164e-05, 1.443359375) (-4.071999740600586e-05, 1.4453125) (-4.099953460693359e-05, 1.447265625) (-4.0674186706542964e-05, 1.44921875) (-3.942521667480469e-05, 1.451171875) (-3.7142536163330074e-05, 1.453125) (-3.3850738525390625e-05, 1.455078125) (-2.9302724838256834e-05, 1.45703125) (-2.324119186401367e-05, 1.458984375) (-1.5747405052185058e-05, 1.4609375) (-6.7693986892700194e-06, 1.462890625) (3.048323631286621e-06, 1.46484375) (1.1915456771850585e-05, 1.466796875) (1.958246612548828e-05, 1.46875) (2.6894515991210937e-05, 1.470703125) (3.5158729553222655e-05, 1.47265625) (4.842120361328125e-05, 1.474609375) (6.810018920898437e-05, 1.4765625) (9.060702514648438e-05, 1.478515625) (0.00011183943176269531, 1.48046875) (0.0001254286422729492, 1.482421875) (0.00012802508544921875, 1.484375) (0.00012631925201416015, 1.486328125) (0.0001297955627441406, 1.48828125) (0.00014808767700195312, 1.490234375) (0.00018889819335937499, 1.4921875) (0.0002489283447265625, 1.494140625) (0.0003194608154296875, 1.49609375) (0.00039236544799804685, 1.498046875) (0.0004588211669921875, 1.5) (0.0005165274047851563, 1.501953125) (0.0005683926391601563, 1.50390625) (0.0006172525634765625, 1.505859375) (0.0006670101928710938, 1.5078125) (0.000717514892578125, 1.509765625) (0.00076309912109375, 1.51171875) (0.0007960996704101562, 1.513671875) (0.0008088432617187499, 1.515625) (0.0007973641357421875, 1.517578125) (0.0007631491088867187, 1.51953125) (0.00071108935546875, 1.521484375) (0.0006463809204101562, 1.5234375) (0.0005762184448242188, 1.525390625) (0.0005100316467285156, 1.52734375) (0.00045925375366210935, 1.529296875) (0.00043883746337890624, 1.53125) (0.0004569375, 1.533203125) (0.0005105223999023437, 1.53515625) (0.000587399658203125, 1.537109375) (0.0006645928955078124, 1.5390625) (0.0007217707519531249, 1.541015625) (0.0007493409423828124, 1.54296875) (0.0007487555541992187, 1.544921875) (0.0007397734985351562, 1.546875) (0.0007556075439453124, 1.548828125) (0.00083789697265625, 1.55078125) (0.001030744140625, 1.552734375) (0.0013618769531249999, 1.5546875) (0.0018289835205078124, 1.556640625) (0.0023896911621093747, 1.55859375) (0.002965498291015625, 1.560546875) (0.003467166015625, 1.5625) (0.0038227822265625, 1.564453125) (0.00400400927734375, 1.56640625) (0.004034019775390625, 1.568359375) (0.00397020947265625, 1.5703125) (0.00387912646484375, 1.572265625) (0.00381102392578125, 1.57421875) (0.0037865141601562497, 1.576171875) (0.0038017441406249996, 1.578125) (0.003840310791015625, 1.580078125) (0.0038824565429687497, 1.58203125) (0.003908216064453125, 1.583984375) (0.0038924404296875, 1.5859375) (0.0037994672851562497, 1.587890625) (0.00358878759765625, 1.58984375) (0.0032289189453125, 1.591796875) (0.0027155583496093747, 1.59375) (0.002084954345703125, 1.595703125) (0.001408029296875, 1.59765625) (0.0007691412963867188, 1.599609375) (0.0002390556945800781, 1.6015625) (-0.00014895547485351563, 1.603515625) (-0.0004024706115722656, 1.60546875) (-0.0005544413452148437, 1.607421875) (-0.0006454448852539062, 1.609375) (-0.0007053814086914062, 1.611328125) (-0.000748688232421875, 1.61328125) (-0.000785659423828125, 1.615234375) (-0.0008268442993164062, 1.6171875) (-0.0008846683349609375, 1.619140625) (-0.0009703138427734375, 1.62109375) (-0.001080498046875, 1.623046875) (-0.00119461767578125, 1.625) (-0.0012846246337890625, 1.626953125) (-0.0013268707275390624, 1.62890625) (-0.0013146614990234375, 1.630859375) (-0.0012678331298828125, 1.6328125) (-0.0012207996826171874, 1.634765625) (-0.0012034202880859375, 1.63671875) (-0.0012338509521484374, 1.638671875) (-0.00130278466796875, 1.640625) (-0.0013817169189453125, 1.642578125) (-0.0014463076171874999, 1.64453125) (-0.0014773013916015625, 1.646484375) (-0.0014774379882812499, 1.6484375) (-0.0014683289794921875, 1.650390625) (-0.0014683541259765624, 1.65234375) (-0.00149428173828125, 1.654296875) (-0.0015476040039062498, 1.65625) (-0.0016134500732421875, 1.658203125) (-0.0016755756835937499, 1.66015625) (-0.0017173710937499998, 1.662109375) (-0.001731554443359375, 1.6640625) (-0.0017227431640625, 1.666015625) (-0.001702541748046875, 1.66796875) (-0.0016850605468749999, 1.669921875) (-0.0016791204833984375, 1.671875) (-0.0016878133544921874, 1.673828125) (-0.0017064588623046874, 1.67578125) (-0.001726429931640625, 1.677734375) (-0.0017426663818359374, 1.6796875) (-0.001751670166015625, 1.681640625) (-0.001754107421875, 1.68359375) (-0.0017542474365234374, 1.685546875) (-0.001753927734375, 1.6875) (-0.0017541427001953125, 1.689453125) (-0.001754780517578125, 1.69140625) (-0.0017541018066406248, 1.693359375) (-0.0017515998535156249, 1.6953125) (-0.0017477259521484375, 1.697265625) (-0.0017436328125, 1.69921875) (-0.0017410334472656248, 1.701171875) (-0.001741343017578125, 1.703125) (-0.0017458193359374998, 1.705078125) (-0.00175463623046875, 1.70703125) (-0.00176655810546875, 1.708984375) (-0.0017806116943359374, 1.7109375) (-0.0017963007812499998, 1.712890625) (-0.0018145484619140624, 1.71484375) (-0.0018376259765625, 1.716796875) (-0.0018652789306640625, 1.71875) (-0.0018931705322265623, 1.720703125) (-0.0019133314208984375, 1.72265625) (-0.0019174060058593748, 1.724609375) (-0.0019016278076171875, 1.7265625) (-0.00186899951171875, 1.728515625) (-0.00182815771484375, 1.73046875) (-0.0017876453857421874, 1.732421875) (-0.00175225634765625, 1.734375) (-0.001722233642578125, 1.736328125) (-0.0016939473876953124, 1.73828125) (-0.001664608642578125, 1.740234375) (-0.0016336346435546875, 1.7421875) (-0.0016014019775390624, 1.744140625) (-0.0015691435546875, 1.74609375) (-0.0015371300048828125, 1.748046875) (-0.001504291748046875, 1.75) (-0.0014697961425781249, 1.751953125) (-0.00143308935546875, 1.75390625) (-0.0013936802978515624, 1.755859375) (-0.0013515932617187499, 1.7578125) (-0.001307244384765625, 1.759765625) (-0.0012610937499999998, 1.76171875) (-0.0012139523925781249, 1.763671875) (-0.0011670244140625, 1.765625) (-0.00112116552734375, 1.767578125) (-0.0010771149902343749, 1.76953125) (-0.0010358858642578125, 1.771484375) (-0.0009981070556640624, 1.7734375) (-0.00096395703125, 1.775390625) (-0.0009334295654296875, 1.77734375) (-0.0009059752197265624, 1.779296875) (-0.000880640869140625, 1.78125) (-0.0008567619628906249, 1.783203125) (-0.0008337003173828125, 1.78515625) (-0.0008106057128906249, 1.787109375) (-0.0007869273071289062, 1.7890625) (-0.0007623753662109375, 1.791015625) (-0.0007368071899414063, 1.79296875) (-0.0007105489501953125, 1.794921875) (-0.0006841856079101563, 1.796875) (-0.0006580528564453125, 1.798828125) (-0.000632397216796875, 1.80078125) (-0.000607473876953125, 1.802734375) (-0.0005833555908203125, 1.8046875) (-0.000560091552734375, 1.806640625) (-0.0005377438964843749, 1.80859375) (-0.0005161869506835938, 1.810546875) (-0.0004951966247558594, 1.8125) (-0.0004747243041992187, 1.814453125) (-0.00045485711669921873, 1.81640625) (-0.00043570147705078124, 1.818359375) (-0.00041739788818359375, 1.8203125) (-0.00039996337890625, 1.822265625) (-0.0003832066040039062, 1.82421875) (-0.0003669354248046875, 1.826171875) (-0.0003510982360839844, 1.828125) (-0.0003355947265625, 1.830078125) (-0.0003201652221679687, 1.83203125) (-0.0003048153076171875, 1.833984375) (-0.00028981875610351564, 1.8359375) (-0.0002755090637207031, 1.837890625) (-0.00026267486572265623, 1.83984375) (-0.00025146945190429685, 1.841796875) (-0.0002407606964111328, 1.84375) (-0.00022998431396484373, 1.845703125) (-0.00021967900085449217, 1.84765625) (-0.0002121688995361328, 1.849609375) (-0.00021183181762695312, 1.8515625) (-0.00022080957031249998, 1.853515625) (-0.00023590386962890625, 1.85546875) (-0.00024865219116210934, 1.857421875) (-0.00024739303588867186, 1.859375) (-0.00022434681701660156, 1.861328125) (-0.00018075222778320311, 1.86328125) (-0.00012686331176757813, 1.865234375) (-7.812076568603516e-05, 1.8671875) (-4.564740753173828e-05, 1.869140625) (-3.208651733398437e-05, 1.87109375) (-3.137364768981933e-05, 1.873046875) (-3.1155818939208983e-05, 1.875) (-2.2828502655029296e-05, 1.876953125) (-2.1867313385009765e-06, 1.87890625) (2.997418975830078e-05, 1.880859375) (6.699831390380858e-05, 1.8828125) (0.0001044215087890625, 1.884765625) (0.00013701080322265624, 1.88671875) (0.00016095623779296874, 1.888671875) (0.00017676425170898437, 1.890625) (0.00018425418090820312, 1.892578125) (0.0001873004150390625, 1.89453125) (0.0001899520263671875, 1.896484375) (0.0001943336639404297, 1.8984375) (0.00020367852783203125, 1.900390625) (0.0002175527648925781, 1.90234375) (0.000235806884765625, 1.904296875) (0.0002586329040527344, 1.90625) (0.00028345471191406246, 1.908203125) (0.0003106434326171875, 1.91015625) (0.0003412565307617187, 1.912109375) (0.00037579302978515625, 1.9140625) (0.00041842919921875, 1.916015625) (0.0004686282958984375, 1.91796875) (0.0005198028564453124, 1.919921875) (0.000566769287109375, 1.921875) (0.000601380859375, 1.923828125) (0.0006211481933593749, 1.92578125) (0.000634968505859375, 1.927734375) (0.0006497391357421874, 1.9296875) (0.0006730822143554687, 1.931640625) (0.0007093018188476562, 1.93359375) (0.0007514988403320312, 1.935546875) (0.0007948130493164062, 1.9375) (0.0008362249755859374, 1.939453125) (0.0008728812255859375, 1.94140625) (0.0009086729736328124, 1.943359375) (0.0009460928955078125, 1.9453125) (0.000984270263671875, 1.947265625) (0.0010244991455078125, 1.94921875) (0.0010668110351562498, 1.951171875) (0.001111869873046875, 1.953125) (0.00116346337890625, 1.955078125) (0.0012206400146484375, 1.95703125) (0.001278093017578125, 1.958984375) (0.001330269775390625, 1.9609375) (0.0013701104736328123, 1.962890625) (0.001396333984375, 1.96484375) (0.0014151961669921875, 1.966796875) (0.0014324665527343748, 1.96875) (0.0014527751464843749, 1.970703125) (0.001477747802734375, 1.97265625) (0.0015032608642578124, 1.974609375) (0.001526796875, 1.9765625) (0.0015507426757812499, 1.978515625) (0.001577492431640625, 1.98046875) (0.0016116279296875, 1.982421875) (0.001656635986328125, 1.984375) (0.0017087663574218749, 1.986328125) (0.00176430224609375, 1.98828125) (0.0018189151611328123, 1.990234375) (0.0018671308593749998, 1.9921875) (0.001908738525390625, 1.994140625) (0.0019434548339843749, 1.99609375) (0.001970173095703125, 1.998046875) (0.001989263671875, 2.0) (0.0019990294189453123, 2.001953125) (0.00199845947265625, 2.00390625) (0.001988890380859375, 2.005859375) (0.001971671630859375, 2.0078125) (0.0019487080078125, 2.009765625) (0.0019223609619140624, 2.01171875) (0.0018941400146484375, 2.013671875) (0.0018656726074218748, 2.015625) (0.0018393070068359375, 2.017578125) (0.001815806640625, 2.01953125) (0.001794269287109375, 2.021484375) (0.0017739310302734375, 2.0234375) (0.0017537818603515624, 2.025390625) (0.0017344792480468748, 2.02734375) (0.00171819287109375, 2.029296875) (0.001703945068359375, 2.03125) (0.0016878243408203124, 2.033203125) (0.00166345947265625, 2.03515625) (0.001623635498046875, 2.037109375) (0.00156548828125, 2.0390625) (0.0014893089599609375, 2.041015625) (0.0013976877441406249, 2.04296875) (0.0012961705322265624, 2.044921875) (0.0011902490234375, 2.046875) (0.0010878453369140624, 2.048828125) (0.0009982626342773437, 2.05078125) (0.0009253168334960937, 2.052734375) (0.0008686458129882812, 2.0546875) (0.00082265966796875, 2.056640625) (0.0007785725708007813, 2.05859375) (0.0007340035400390625, 2.060546875) (0.0006901782836914063, 2.0625) (0.0006477193603515624, 2.064453125) (0.0006057513427734374, 2.06640625) (0.0005571246337890625, 2.068359375) (0.0004934912719726562, 2.0703125) (0.0004147137451171875, 2.072265625) (0.0003284849243164062, 2.07421875) (0.00024795507812499997, 2.076171875) (0.00018737017822265624, 2.078125) (0.00015214683532714844, 2.080078125) (0.00013941064453124998, 2.08203125) (0.0001435515594482422, 2.083984375) (0.0001565774383544922, 2.0859375) (0.00017357740783691404, 2.087890625) (0.00019146871948242186, 2.08984375) (0.00020387741088867187, 2.091796875) (0.00020619970703125, 2.09375) (0.0001953726348876953, 2.095703125) (0.0001720883331298828, 2.09765625) (0.00014507864379882811, 2.099609375) (0.0001216703109741211, 2.1015625) (0.00010641668701171875, 2.103515625) (0.00010043528747558594, 2.10546875) (9.725529479980469e-05, 2.107421875) (9.327963256835937e-05, 2.109375) (8.702305603027344e-05, 2.111328125) (7.641143798828125e-05, 2.11328125) (6.373023986816406e-05, 2.115234375) (4.781391906738281e-05, 2.1171875) (2.770332336425781e-05, 2.119140625) (8.625585556030274e-06, 2.12109375) (-4.654215812683105e-06, 2.123046875) (-5.056053161621093e-06, 2.125) (1.2434040069580078e-05, 2.126953125) (4.200328063964843e-05, 2.12890625) (7.45142822265625e-05, 2.130859375) (0.0001008194580078125, 2.1328125) (0.00011345939636230468, 2.134765625) (0.00011538090515136719, 2.13671875) (0.0001147811050415039, 2.138671875) (0.00011751112365722656, 2.140625) (0.0001286940460205078, 2.142578125) (0.00014805267333984373, 2.14453125) (0.00017058021545410156, 2.146484375) (0.00019355960083007812, 2.1484375) (0.0002148343505859375, 2.150390625) (0.00023318078613281248, 2.15234375) (0.0002497185668945312, 2.154296875) (0.000264712890625, 2.15625) (0.00027748754882812496, 2.158203125) (0.0002872877197265625, 2.16015625) (0.00029331140136718746, 2.162109375) (0.00029527532958984376, 2.1640625) (0.00029346047973632814, 2.166015625) (0.0002884901123046875, 2.16796875) (0.00028092901611328125, 2.169921875) (0.00027086495971679687, 2.171875) (0.00025934127807617185, 2.173828125) (0.0002487863311767578, 2.17578125) (0.00023958805847167967, 2.177734375) (0.00023076707458496092, 2.1796875) (0.00021956204223632812, 2.181640625) (0.00019971168518066406, 2.18359375) (0.00017023602294921874, 2.185546875) (0.00013650924682617188, 2.1875) (0.00010617302703857421, 2.189453125) (9.040065765380858e-05, 2.19140625) (9.357990264892577e-05, 2.193359375) (0.00010882740783691405, 2.1953125) (0.00012471797180175782, 2.197265625) (0.00012838751220703125, 2.19921875) (0.00011180108642578124, 2.201171875) (7.714395904541015e-05, 2.203125) (3.505378723144531e-05, 2.205078125) (-3.865297317504883e-06, 2.20703125) (-3.056866836547851e-05, 2.208984375) (-3.7887390136718746e-05, 2.2109375) (-2.765855598449707e-05, 2.212890625) (-1.3415546417236328e-06, 2.21484375) (4.117466735839844e-05, 2.216796875) (9.271461486816405e-05, 2.21875) (0.00014787911987304686, 2.220703125) (0.00019744143676757813, 2.22265625) (0.00022386679077148437, 2.224609375) (0.00021722340393066404, 2.2265625) (0.00017482009887695313, 2.228515625) (0.00010326971435546874, 2.23046875) (2.6444171905517578e-05, 2.232421875) (-3.001953887939453e-05, 2.234375) (-4.963577270507812e-05, 2.236328125) (-2.6548501968383788e-05, 2.23828125) (2.5308265686035156e-05, 2.240234375) (8.078104400634765e-05, 2.2421875) (0.00011943656921386718, 2.244140625) (0.00012847763061523437, 2.24609375) (0.00010975117492675781, 2.248046875) (7.829948425292968e-05, 2.25) (4.922242736816406e-05, 2.251953125) (3.278951263427734e-05, 2.25390625) (3.168906784057617e-05, 2.255859375) (3.985107421875e-05, 2.2578125) (4.9133522033691406e-05, 2.259765625) (5.611869049072265e-05, 2.26171875) (6.124822616577148e-05, 2.263671875) (6.802983093261718e-05, 2.265625) (8.175065612792968e-05, 2.267578125) (0.00010146544647216796, 2.26953125) (0.0001220412826538086, 2.271484375) (0.00013931935119628906, 2.2734375) (0.00014850201416015624, 2.275390625) (0.0001504454345703125, 2.27734375) (0.0001510999755859375, 2.279296875) (0.00015244406127929686, 2.28125) (0.0001548726348876953, 2.283203125) (0.00015716482543945312, 2.28515625) (0.00015478590393066405, 2.287109375) (0.0001503519744873047, 2.2890625) (0.0001526184387207031, 2.291015625) (0.00016885113525390625, 2.29296875) (0.0002068251495361328, 2.294921875) (0.0002650056762695312, 2.296875) (0.0003306925048828125, 2.298828125) (0.00039092712402343747, 2.30078125) (0.0004305909423828125, 2.302734375) (0.0004404837951660156, 2.3046875) (0.00042213519287109374, 2.306640625) (0.00037832757568359376, 2.30859375) (0.0003175430297851562, 2.310546875) (0.00025010748291015626, 2.3125) (0.00018158212280273436, 2.314453125) (0.00012143543243408202, 2.31640625) (7.784116363525391e-05, 2.318359375) (5.464574813842773e-05, 2.3203125) (5.673014831542969e-05, 2.322265625) (8.075349426269531e-05, 2.32421875) (0.00011391352844238281, 2.326171875) (0.00014173748779296874, 2.328125) (0.00014803781127929687, 2.330078125) (0.0001229629669189453, 2.33203125) (7.312388610839843e-05, 2.333984375) (1.4841217041015625e-05, 2.3359375) (-3.0899253845214844e-05, 2.337890625) (-4.3944869995117185e-05, 2.33984375) (-1.879703330993652e-05, 2.341796875) (3.9155029296875e-05, 2.34375) (0.00011767070007324218, 2.345703125) (0.00019912088012695312, 2.34765625) (0.00027194024658203124, 2.349609375) (0.0003266383056640625, 2.3515625) (0.00035579464721679686, 2.353515625) (0.0003589300537109375, 2.35546875) (0.00033674468994140624, 2.357421875) (0.00029684518432617185, 2.359375) (0.0002537101898193359, 2.361328125) (0.00021970021057128906, 2.36328125) (0.0002041476135253906, 2.365234375) (0.00020849842834472655, 2.3671875) (0.00022425914001464843, 2.369140625) (0.0002402379913330078, 2.37109375) (0.00024824984741210937, 2.373046875) (0.00024510052490234375, 2.375) (0.0002340399169921875, 2.376953125) (0.00022225762939453124, 2.37890625) (0.00021339410400390623, 2.380859375) (0.0002074442901611328, 2.3828125) (0.0002016622772216797, 2.384765625) (0.00018942938232421874, 2.38671875) (0.00016976699829101562, 2.388671875) (0.00014838011169433592, 2.390625) (0.00013316319274902342, 2.392578125) (0.00013606288146972656, 2.39453125) (0.0001606953125, 2.396484375) (0.0001972036895751953, 2.3984375) (0.0002323612823486328, 2.400390625) (0.00025005653381347657, 2.40234375) (0.00024195182800292966, 2.404296875) (0.00021688780212402342, 2.40625) (0.00018722315979003906, 2.408203125) (0.00016493368530273437, 2.41015625) (0.00015796710205078125, 2.412109375) (0.00016069320678710936, 2.4140625) (0.00016508216857910157, 2.416015625) (0.00016609445190429687, 2.41796875) (0.00015983132934570312, 2.419921875) (0.00014922160339355468, 2.421875) (0.0001385654296875, 2.423828125) (0.0001293182373046875, 2.42578125) (0.00012247959899902344, 2.427734375) (0.00011698889160156249, 2.4296875) (0.00011132023620605469, 2.431640625) (0.0001053182373046875, 2.43359375) (9.915696716308593e-05, 2.435546875) (9.330714416503906e-05, 2.4375) (8.730824279785157e-05, 2.439453125) (8.033604431152343e-05, 2.44140625) (7.286877441406249e-05, 2.443359375) (6.554338073730469e-05, 2.4453125) (6.130444335937499e-05, 2.447265625) (6.285114669799804e-05, 2.44921875) (6.739481353759765e-05, 2.451171875) (7.062675476074218e-05, 2.453125) (6.605216217041015e-05, 2.455078125) (4.8395557403564454e-05, 2.45703125) (2.2390308380126953e-05, 2.458984375) (-3.1411967277526855e-06, 2.4609375) (-1.9458492279052733e-05, 2.462890625) (-2.0278732299804686e-05, 2.46484375) (-9.49841022491455e-06, 2.466796875) (3.2849843502044675e-06, 2.46875) (1.1244560241699218e-05, 2.470703125) (1.0791581153869628e-05, 2.47265625) (2.84723162651062e-06, 2.474609375) (-7.26401424407959e-06, 2.4765625) (-1.73773136138916e-05, 2.478515625) (-2.8653583526611327e-05, 2.48046875) (-3.9848991394042966e-05, 2.482421875) (-5.034980010986328e-05, 2.484375) (-5.8284538269042965e-05, 2.486328125) (-5.8762523651123044e-05, 2.48828125) (-5.184397888183593e-05, 2.490234375) (-4.0748416900634766e-05, 2.4921875) (-2.9083866119384765e-05, 2.494140625) (-2.3352527618408202e-05, 2.49609375) (-2.7116039276123047e-05, 2.498046875) (-3.9448791503906246e-05, 2.5) (-5.708853149414062e-05, 2.501953125) (-7.33452377319336e-05, 2.50390625) (-8.219990539550781e-05, 2.505859375) (-8.092030334472655e-05, 2.5078125) (-7.12100830078125e-05, 2.509765625) (-5.880509948730468e-05, 2.51171875) (-4.8881675720214844e-05, 2.513671875) (-4.498797225952148e-05, 2.515625) (-4.691489791870117e-05, 2.517578125) (-5.10385627746582e-05, 2.51953125) (-5.489817428588867e-05, 2.521484375) (-5.689899444580078e-05, 2.5234375) (-5.6840019226074215e-05, 2.525390625) (-5.620869445800781e-05, 2.52734375) (-5.558859634399414e-05, 2.529296875) (-5.49896354675293e-05, 2.53125) (-5.447322082519531e-05, 2.533203125) (-5.379301452636719e-05, 2.53515625) (-5.295027542114258e-05, 2.537109375) (-5.218308258056641e-05, 2.5390625) (-5.158160018920898e-05, 2.541015625) (-5.1205158233642574e-05, 2.54296875) (-5.110449981689453e-05, 2.544921875) (-5.1267066955566405e-05, 2.546875) (-5.161478424072265e-05, 2.548828125) (-5.194642639160156e-05, 2.55078125) (-5.2076427459716794e-05, 2.552734375) (-5.19712905883789e-05, 2.5546875) (-5.1633949279785155e-05, 2.556640625) (-5.112641906738281e-05, 2.55859375) (-5.0647308349609373e-05, 2.560546875) (-5.0343349456787105e-05, 2.5625) (-5.052325057983398e-05, 2.564453125) (-5.183493041992187e-05, 2.56640625) (-5.4811767578125e-05, 2.568359375) (-5.967859649658203e-05, 2.5703125) (-6.645304107666015e-05, 2.572265625) (-7.477307891845703e-05, 2.57421875) (-8.401289367675781e-05, 2.576171875) (-9.37500991821289e-05, 2.578125) (-0.00010332240295410156, 2.580078125) (-0.00011160597229003906, 2.58203125) (-0.0001175557861328125, 2.583984375) (-0.00012034133911132812, 2.5859375) (-0.00011962636566162108, 2.587890625) (-0.0001158606185913086, 2.58984375) (-0.0001098551025390625, 2.591796875) (-0.00010219889068603515, 2.59375) (-9.36957778930664e-05, 2.595703125) (-8.559041595458984e-05, 2.59765625) (-7.931805419921875e-05, 2.599609375) (-7.648547363281249e-05, 2.6015625) (-7.819726562499999e-05, 2.603515625) (-8.475355529785156e-05, 2.60546875) (-9.613639831542969e-05, 2.607421875) (-0.00011244177246093749, 2.609375) (-0.00013360432434082032, 2.611328125) (-0.000159117431640625, 2.61328125) (-0.00018799540710449217, 2.615234375) (-0.00021868919372558594, 2.6171875) (-0.000249671875, 2.619140625) (-0.00027981634521484375, 2.62109375) (-0.000308130126953125, 2.623046875) (-0.00033326489257812496, 2.625) (-0.0003538651123046875, 2.626953125) (-0.0003690188293457031, 2.62890625) (-0.00037793817138671875, 2.630859375) (-0.0003814316711425781, 2.6328125) (-0.00038192013549804687, 2.634765625) (-0.0003805081787109375, 2.63671875) (-0.0003772348022460937, 2.638671875) (-0.0003693414306640625, 2.640625) (-0.00035072906494140624, 2.642578125) (-0.0003197248840332031, 2.64453125) (-0.0002817332458496094, 2.646484375) (-0.00024900180053710936, 2.6484375) (-0.00023700604248046874, 2.650390625) (-0.000252969985961914, 2.65234375) (-0.0002896654968261719, 2.654296875) (-0.00032736361694335936, 2.65625) (-0.0003457711181640625, 2.658203125) (-0.0003341090087890625, 2.66015625) (-0.00029657086181640623, 2.662109375) (-0.00025205804443359373, 2.6640625) (-0.00021719876098632811, 2.666015625) (-0.000200281494140625, 2.66796875) (-0.0002011917266845703, 2.669921875) (-0.00020933798217773436, 2.671875) (-0.0002166265106201172, 2.673828125) (-0.00022130575561523437, 2.67578125) (-0.00022351467895507813, 2.677734375) (-0.00022565800476074217, 2.6796875) (-0.00022926974487304686, 2.681640625) (-0.0002321699676513672, 2.68359375) (-0.00023225595092773437, 2.685546875) (-0.00023115264892578123, 2.6875) (-0.00023024232482910155, 2.689453125) (-0.0002315637512207031, 2.69140625) (-0.00023763751220703123, 2.693359375) (-0.0002466451416015625, 2.6953125) (-0.0002568917541503906, 2.697265625) (-0.00026777227783203125, 2.69921875) (-0.0002779228515625, 2.701171875) (-0.0002878479309082031, 2.703125) (-0.00029818756103515626, 2.705078125) (-0.0003085751953125, 2.70703125) (-0.0003189923400878906, 2.708984375) (-0.000329315185546875, 2.7109375) (-0.00033932128906249997, 2.712890625) (-0.00034908065795898437, 2.71484375) (-0.00035862188720703125, 2.716796875) (-0.0003678088989257812, 2.71875) (-0.00037649615478515624, 2.720703125) (-0.0003845414428710937, 2.72265625) (-0.0003918017272949219, 2.724609375) (-0.00039814447021484375, 2.7265625) (-0.00040345843505859374, 2.728515625) (-0.0004076500244140625, 2.73046875) (-0.00041064587402343746, 2.732421875) (-0.0004124251708984375, 2.734375) (-0.00041300634765625, 2.736328125) (-0.00041240573120117184, 2.73828125) (-0.0004106245727539062, 2.740234375) (-0.0004076536865234375, 2.7421875) (-0.0004034641723632812, 2.744140625) (-0.00039804791259765625, 2.74609375) (-0.0003914486389160156, 2.748046875) (-0.000383733154296875, 2.75) (-0.00037500390624999996, 2.751953125) (-0.00036540338134765624, 2.75390625) (-0.0003550764770507812, 2.755859375) (-0.00034418701171874997, 2.7578125) (-0.0003329210510253906, 2.759765625) (-0.00032143798828124996, 2.76171875) (-0.0003098762512207031, 2.763671875) (-0.00029836431884765625, 2.765625) (-0.00028699822998046876, 2.767578125) (-0.00027588000488281246, 2.76953125) (-0.00026513818359375, 2.771484375) (-0.0002548958435058594, 2.7734375) (-0.00024527941894531246, 2.775390625) (-0.00023639523315429687, 2.77734375) (-0.0002283025665283203, 2.779296875) (-0.0002210435028076172, 2.78125) (-0.0002146390838623047, 2.783203125) (-0.00020907557678222655, 2.78515625) (-0.00020432098388671873, 2.787109375) (-0.00020031019592285155, 2.7890625) (-0.00019694357299804687, 2.791015625) (-0.00019413681030273436, 2.79296875) (-0.00019182133483886717, 2.794921875) (-0.00018992835998535155, 2.796875) (-0.00018839817810058592, 2.798828125) (-0.00018714451599121092, 2.80078125) (-0.00018606004333496094, 2.802734375) (-0.0001850623321533203, 2.8046875) (-0.0001840800323486328, 2.806640625) (-0.000183059326171875, 2.80859375) (-0.000181961669921875, 2.810546875) (-0.00018072010803222655, 2.8125) (-0.00017928105163574217, 2.814453125) (-0.00017764114379882813, 2.81640625) (-0.00017578930664062498, 2.818359375) (-0.00017370614624023437, 2.8203125) (-0.00017137911987304686, 2.822265625) (-0.00016876486206054687, 2.82421875) (-0.00016584988403320312, 2.826171875) (-0.00016273414611816405, 2.828125) (-0.00015950497436523437, 2.830078125) (-0.0001561798400878906, 2.83203125) (-0.00015288645935058594, 2.833984375) (-0.00014988018798828124, 2.8359375) (-0.0001473162078857422, 2.837890625) (-0.00014526370239257812, 2.83984375) (-0.00014374194335937498, 2.841796875) (-0.00014240342712402342, 2.84375) (-0.00014162748718261718, 2.845703125) (-0.00014290911865234374, 2.84765625) (-0.00014660968017578125, 2.849609375) (-0.00015172445678710936, 2.8515625) (-0.0001552039794921875, 2.853515625) (-0.00015139567565917967, 2.85546875) (-0.00013801271057128906, 2.857421875) (-0.00011885626983642577, 2.859375) (-0.00010097082519531249, 2.861328125) (-9.409473419189453e-05, 2.86328125) (-0.00010319100952148437, 2.865234375) (-0.00012247657775878905, 2.8671875) (-0.00014292233276367187, 2.869140625) (-0.00015489105224609375, 2.87109375) (-0.0001525546875, 2.873046875) (-0.00014093081665039062, 2.875) (-0.00012709463500976562, 2.876953125) (-0.00011633538818359374, 2.87890625) (-0.00011240760040283202, 2.880859375) (-0.0001126051788330078, 2.8828125) (-0.0001134563980102539, 2.884765625) (-0.00011382507324218749, 2.88671875) (-0.00011263381958007812, 2.888671875) (-0.00011074066162109374, 2.890625) (-0.00010916671752929687, 2.892578125) (-0.00010765773773193358, 2.89453125) (-0.00010613919067382812, 2.896484375) (-0.00010452410888671875, 2.8984375) (-0.00010266957855224608, 2.900390625) (-0.00010069322967529296, 2.90234375) (-9.869658660888671e-05, 2.904296875) (-9.667191314697265e-05, 2.90625) (-9.464891815185547e-05, 2.908203125) (-9.26929702758789e-05, 2.91015625) (-9.083985137939453e-05, 2.912109375) (-8.908973693847656e-05, 2.9140625) (-8.743562316894531e-05, 2.916015625) (-8.586529541015625e-05, 2.91796875) (-8.436788940429687e-05, 2.919921875) (-8.295905303955078e-05, 2.921875) (-8.165119934082031e-05, 2.923828125) (-8.044471740722657e-05, 2.92578125) (-7.934674835205077e-05, 2.927734375) (-7.836426544189452e-05, 2.9296875) (-7.750121307373047e-05, 2.931640625) (-7.676321411132812e-05, 2.93359375) (-7.6154296875e-05, 2.935546875) (-7.567637634277343e-05, 2.9375) (-7.533401489257812e-05, 2.939453125) (-7.512821960449219e-05, 2.94140625) (-7.505464935302734e-05, 2.943359375) (-7.510631561279296e-05, 2.9453125) (-7.527194213867187e-05, 2.947265625) (-7.554371643066405e-05, 2.94921875) (-7.591592407226563e-05, 2.951171875) (-7.638066864013672e-05, 2.953125) (-7.69341049194336e-05, 2.955078125) (-7.756497192382813e-05, 2.95703125) (-7.824855041503905e-05, 2.958984375) (-7.89527359008789e-05, 2.9609375) (-7.963820648193359e-05, 2.962890625) (-8.028160095214844e-05, 2.96484375) (-8.088549804687499e-05, 2.966796875) (-8.145604705810546e-05, 2.96875) (-8.198284912109375e-05, 2.970703125) (-8.243367767333984e-05, 2.97265625) (-8.278102111816405e-05, 2.974609375) (-8.307410430908203e-05, 2.9765625) (-8.344596099853516e-05, 2.978515625) (-8.394657897949218e-05, 2.98046875) (-8.450872802734374e-05, 2.982421875) (-8.500051116943358e-05, 2.984375) (-8.524929809570312e-05, 2.986328125) (-8.527610778808594e-05, 2.98828125) (-8.522392272949219e-05, 2.990234375) (-8.497803497314452e-05, 2.9921875) (-8.43059844970703e-05, 2.994140625) (-8.321403503417968e-05, 2.99609375) (-8.190021514892577e-05, 2.998046875) (-8.085025024414062e-05, 3.0) (-8.015975952148438e-05, 3.001953125) (-7.87964630126953e-05, 3.00390625) (-7.59395523071289e-05, 3.005859375) (-7.200431060791016e-05, 3.0078125) (-6.964388275146485e-05, 3.009765625) (-7.288681793212891e-05, 3.01171875) (-8.318101501464843e-05, 3.013671875) (-9.780250549316406e-05, 3.015625) (-0.00010981430053710938, 3.017578125) (-0.0001116811752319336, 3.01953125) (-0.00010078219604492187, 3.021484375) (-8.031466674804687e-05, 3.0234375) (-5.768688583374023e-05, 3.025390625) (-3.997089385986328e-05, 3.02734375) (-3.0114276885986327e-05, 3.029296875) (-2.696674156188965e-05, 3.03125) (-2.7129512786865234e-05, 3.033203125) (-2.7939294815063476e-05, 3.03515625) (-2.8315048217773435e-05, 3.037109375) (-2.8366352081298827e-05, 3.0390625) (-2.876870346069336e-05, 3.041015625) (-2.9646656036376953e-05, 3.04296875) (-3.069233512878418e-05, 3.044921875) (-3.1480195999145506e-05, 3.046875) (-3.134002113342285e-05, 3.048828125) (-2.980735206604004e-05, 3.05078125) (-2.689738655090332e-05, 3.052734375) (-2.29006233215332e-05, 3.0546875) (-1.8366416931152343e-05, 3.056640625) (-1.3745969772338867e-05, 3.05859375) (-9.201919555664062e-06, 3.060546875) (-4.817063331604004e-06, 3.0625) (-6.952699422836303e-07, 3.064453125) (2.9803419113159176e-06, 3.06640625) (6.07269287109375e-06, 3.068359375) (8.619812965393065e-06, 3.0703125) (1.0815466880798339e-05, 3.072265625) (1.2835277557373046e-05, 3.07421875) (1.4745693206787108e-05, 3.076171875) (1.6540952682495115e-05, 3.078125) (1.8180389404296875e-05, 3.080078125) (1.9683374404907225e-05, 3.08203125) (2.110699653625488e-05, 3.083984375) (2.2470426559448242e-05, 3.0859375) (2.3753429412841796e-05, 3.087890625) (2.491822052001953e-05, 3.08984375) (2.5941951751708983e-05, 3.091796875) (2.6830627441406247e-05, 3.09375) (2.7613725662231444e-05, 3.095703125) (2.8312950134277343e-05, 3.09765625) (2.8923257827758787e-05, 3.099609375) (2.9430500030517576e-05, 3.1015625) (2.9821170806884764e-05, 3.103515625) (3.0095212936401366e-05, 3.10546875) (3.0259824752807617e-05, 3.107421875) (3.030681610107422e-05, 3.109375) (3.020558738708496e-05, 3.111328125) (2.9901342391967772e-05, 3.11328125) (2.93419075012207e-05, 3.115234375) (2.8499265670776366e-05, 3.1171875) (2.7369152069091794e-05, 3.119140625) (2.5960527420043944e-05, 3.12109375) (2.4280696868896482e-05, 3.123046875) (2.2349784851074216e-05, 3.125) (2.0201801300048828e-05, 3.126953125) (1.7896358489990232e-05, 3.12890625) (1.5523805618286132e-05, 3.130859375) (1.3160303115844725e-05, 3.1328125) (1.0859064102172852e-05, 3.134765625) (8.65034294128418e-06, 3.13671875) (6.555999755859375e-06, 3.138671875) (4.625665664672851e-06, 3.140625) (2.942575216293335e-06, 3.142578125) (1.6145507097244262e-06, 3.14453125) (7.422906160354614e-07, 3.146484375) (4.0359112620353697e-07, 3.1484375) (6.565678119659423e-07, 3.150390625) (1.558192729949951e-06, 3.15234375) (3.164947509765625e-06, 3.154296875) (5.490043640136719e-06, 3.15625) (8.50524616241455e-06, 3.158203125) (1.2122476577758789e-05, 3.16015625) (1.620718002319336e-05, 3.162109375) (2.0660209655761717e-05, 3.1640625) (2.5414283752441405e-05, 3.166015625) (3.042823600769043e-05, 3.16796875) (3.567545318603515e-05, 3.169921875) (4.1096256256103516e-05, 3.171875) (4.659872436523437e-05, 3.173828125) (5.207809829711914e-05, 3.17578125) (5.7423835754394526e-05, 3.177734375) (6.251738739013672e-05, 3.1796875) (6.723641967773437e-05, 3.181640625) (7.143803405761719e-05, 3.18359375) (7.498651123046874e-05, 3.185546875) (7.781024169921875e-05, 3.1875) (7.98887710571289e-05, 3.189453125) (8.127556610107422e-05, 3.19140625) (8.206940460205077e-05, 3.193359375) (8.234027862548828e-05, 3.1953125) (8.215794372558594e-05, 3.197265625) (8.157243347167968e-05, 3.19921875) (8.061264038085938e-05, 3.201171875) (7.934705352783203e-05, 3.203125) (7.784981536865234e-05, 3.205078125) (7.621409606933593e-05, 3.20703125) (7.461606597900391e-05, 3.208984375) (7.321566772460937e-05, 3.2109375) (7.212551879882812e-05, 3.212890625) (7.147938537597656e-05, 3.21484375) (7.131716918945312e-05, 3.216796875) (7.159154510498047e-05, 3.21875) (7.231536102294922e-05, 3.220703125) (7.337784576416015e-05, 3.22265625) (7.452433013916016e-05, 3.224609375) (7.574484252929687e-05, 3.2265625) (7.720545196533203e-05, 3.228515625) (7.917364501953124e-05, 3.23046875) (8.219479370117188e-05, 3.232421875) (8.68986587524414e-05, 3.234375) (9.375564575195312e-05, 3.236328125) (0.00010311831665039063, 3.23828125) (0.00011537303924560546, 3.240234375) (0.0001298248291015625, 3.2421875) (0.0001445554504394531, 3.244140625) (0.00015847305297851563, 3.24609375) (0.0001705935363769531, 3.248046875) (0.00018081875610351562, 3.25) (0.00019169256591796874, 3.251953125) (0.000202749755859375, 3.25390625) (0.00021015087890624998, 3.255859375) (0.0002096331329345703, 3.2578125) (0.00019364068603515625, 3.259765625) (0.0001591260986328125, 3.26171875) (0.00011151371002197265, 3.263671875) (5.892416763305664e-05, 3.265625) (1.4018821716308594e-05, 3.267578125) (-1.3173637390136718e-05, 3.26953125) (-2.18102912902832e-05, 3.271484375) (-1.5816560745239256e-05, 3.2734375) (-3.7441930770874022e-06, 3.275390625) (6.301948547363281e-06, 3.27734375) (1.1531510353088378e-05, 3.279296875) (1.2537941932678222e-05, 3.28125) (1.2277287483215332e-05, 3.283203125) (1.2992722511291503e-05, 3.28515625) (1.4760951995849608e-05, 3.287109375) (1.655582046508789e-05, 3.2890625) (1.6833778381347654e-05, 3.291015625) (1.5150474548339844e-05, 3.29296875) (1.2100767135620116e-05, 3.294921875) (8.426804542541504e-06, 3.296875) (5.01539945602417e-06, 3.298828125) (2.340782642364502e-06, 3.30078125) (4.412655532360077e-07, 3.302734375) (-6.201546192169189e-07, 3.3046875) (-8.743849992752075e-07, 3.306640625) (-5.067666172981262e-07, 3.30859375) (2.861521542072296e-07, 3.310546875) (1.2520328760147094e-06, 3.3125) (2.107931613922119e-06, 3.314453125) (2.7158396244049072e-06, 3.31640625) (3.041976928710937e-06, 3.318359375) (3.0760498046875e-06, 3.3203125) (2.852590560913086e-06, 3.322265625) (2.416913032531738e-06, 3.32421875) (1.8163809776306152e-06, 3.326171875) (1.1310898065567015e-06, 3.328125) (4.6220350265502926e-07, 3.330078125) (-1.1559125781059265e-07, 3.33203125) (-5.67545235157013e-07, 3.333984375) (-8.823544979095459e-07, 3.3359375) (-1.065743565559387e-06, 3.337890625) (-1.1164416074752806e-06, 3.33984375) (-1.0180227756500243e-06, 3.341796875) (-7.584814429283142e-07, 3.34375) (-3.3863717317581173e-07, 3.345703125) (2.3036199808120727e-07, 3.34765625) (9.357907772064209e-07, 3.349609375) (1.7670309543609619e-06, 3.3515625) (2.718590497970581e-06, 3.353515625) (3.7838597297668454e-06, 3.35546875) (4.94237470626831e-06, 3.357421875) (6.165807723999023e-06, 3.359375) (7.42083740234375e-06, 3.361328125) (8.672407150268554e-06, 3.36328125) (9.896770477294922e-06, 3.365234375) (1.1078126907348633e-05, 3.3671875) (1.2201810836791992e-05, 3.369140625) (1.3254692077636717e-05, 3.37109375) (1.422447681427002e-05, 3.373046875) (1.5100934982299804e-05, 3.375) (1.5880157470703124e-05, 3.376953125) (1.65649471282959e-05, 3.37890625) (1.7157236099243165e-05, 3.380859375) (1.7653961181640626e-05, 3.3828125) (1.8049118041992186e-05, 3.384765625) (1.8336076736450194e-05, 3.38671875) (1.851102066040039e-05, 3.388671875) (1.8578792572021482e-05, 3.390625) (1.855164337158203e-05, 3.392578125) (1.8439939498901365e-05, 3.39453125) (1.8251243591308595e-05, 3.396484375) (1.7995182037353513e-05, 3.3984375) (1.7682184219360352e-05, 3.400390625) (1.7326213836669922e-05, 3.40234375) (1.6945493698120116e-05, 3.404296875) (1.654867935180664e-05, 3.40625) (1.6135398864746093e-05, 3.408203125) (1.5704891204833984e-05, 3.41015625) (1.5255037307739257e-05, 3.412109375) (1.4794245719909668e-05, 3.4140625) (1.4341358184814452e-05, 3.416015625) (1.3913383483886719e-05, 3.41796875) (1.3528396606445312e-05, 3.419921875) (1.319633388519287e-05, 3.421875) (1.2915163040161132e-05, 3.423828125) (1.2691246032714844e-05, 3.42578125) (1.2538810729980468e-05, 3.427734375) (1.2462176322937012e-05, 3.4296875) (1.246207046508789e-05, 3.431640625) (1.253422451019287e-05, 3.43359375) (1.2663078308105469e-05, 3.435546875) (1.2858633041381835e-05, 3.4375) (1.3156614303588867e-05, 3.439453125) (1.3586989402770996e-05, 3.44140625) (1.418068504333496e-05, 3.443359375) (1.4955845832824706e-05, 3.4453125) (1.59122314453125e-05, 3.447265625) (1.7056468963623046e-05, 3.44921875) (1.8398771286010742e-05, 3.451171875) (1.9950366973876953e-05, 3.453125) (2.1730159759521483e-05, 3.455078125) (2.3746242523193357e-05, 3.45703125) (2.5992708206176755e-05, 3.458984375) (2.8478397369384763e-05, 3.4609375) (3.122049713134765e-05, 3.462890625) (3.423731994628906e-05, 3.46484375) (3.7558139801025386e-05, 3.466796875) (4.117646026611328e-05, 3.46875) (4.5046928405761715e-05, 3.470703125) (4.9132350921630855e-05, 3.47265625) (5.339632415771484e-05, 3.474609375) (5.7809799194335935e-05, 3.4765625) (6.236014556884766e-05, 3.478515625) (6.702297973632813e-05, 3.48046875) (7.176248168945312e-05, 3.482421875) (7.654940795898437e-05, 3.484375) (8.135540008544921e-05, 3.486328125) (8.615657806396484e-05, 3.48828125) (9.093883514404297e-05, 3.490234375) (9.56713409423828e-05, 3.4921875) (0.00010030947875976561, 3.494140625) (0.00010480938720703124, 3.49609375) (0.00010912001037597655, 3.498046875) (0.00011321618652343749, 3.5) (0.00011710319519042968, 3.501953125) (0.00012077761840820312, 3.50390625) (0.0001242321319580078, 3.505859375) (0.0001274573974609375, 3.5078125) (0.00013043463134765625, 3.509765625) (0.00013315409851074217, 3.51171875) (0.0001356170654296875, 3.513671875) (0.0001378148193359375, 3.515625) (0.0001397315216064453, 3.517578125) (0.00014135284423828125, 3.51953125) (0.00014266171264648437, 3.521484375) (0.00014365293884277343, 3.5234375) (0.00014433375549316406, 3.525390625) (0.00014471067810058592, 3.52734375) (0.00014479325866699217, 3.529296875) (0.00014458299255371094, 3.53125) (0.00014407032775878904, 3.533203125) (0.00014325231933593748, 3.53515625) (0.00014213137817382812, 3.537109375) (0.00014071090698242186, 3.5390625) (0.0001389988098144531, 3.541015625) (0.0001370015869140625, 3.54296875) (0.00013472265625, 3.544921875) (0.00013217424011230467, 3.546875) (0.0001293767547607422, 3.548828125) (0.00012635047912597656, 3.55078125) (0.00012311727142333984, 3.552734375) (0.0001196967315673828, 3.5546875) (0.00011610469055175781, 3.556640625) (0.00011235963439941406, 3.55859375) (0.00010848184967041015, 3.560546875) (0.00010449267578125, 3.5625) (0.00010041549682617187, 3.564453125) (9.627299499511718e-05, 3.56640625) (9.208663940429687e-05, 3.568359375) (8.787890625e-05, 3.5703125) (8.367254638671874e-05, 3.572265625) (7.949007415771484e-05, 3.57421875) (7.535420227050781e-05, 3.576171875) (7.128500366210937e-05, 3.578125) (6.72995376586914e-05, 3.580078125) (6.341456604003906e-05, 3.58203125) (5.9646087646484374e-05, 3.583984375) (5.600917053222656e-05, 3.5859375) (5.251839065551757e-05, 3.587890625) (4.9186523437499995e-05, 3.58984375) (4.6024299621582026e-05, 3.591796875) (4.3041828155517575e-05, 3.59375) (4.0248458862304685e-05, 3.595703125) (3.765187835693359e-05, 3.59765625) (3.525831604003906e-05, 3.599609375) (3.307221984863281e-05, 3.6015625) (3.109607315063476e-05, 3.603515625) (2.9331157684326172e-05, 3.60546875) (2.7777549743652343e-05, 3.607421875) (2.643379783630371e-05, 3.609375) (2.529713439941406e-05, 3.611328125) (2.4363582611083984e-05, 3.61328125) (2.3627929687499998e-05, 3.615234375) (2.3084205627441406e-05, 3.6171875) (2.2725650787353515e-05, 3.619140625) (2.2544235229492185e-05, 3.62109375) (2.2531158447265625e-05, 3.623046875) (2.2677194595336914e-05, 3.625) (2.297212600708008e-05, 3.626953125) (2.340615653991699e-05, 3.62890625) (2.3969377517700193e-05, 3.630859375) (2.4649097442626952e-05, 3.6328125) (2.5432552337646482e-05, 3.634765625) (2.6307989120483396e-05, 3.63671875) (2.7262954711914062e-05, 3.638671875) (2.828684616088867e-05, 3.640625) (2.937119674682617e-05, 3.642578125) (3.0501699447631834e-05, 3.64453125) (3.166384506225586e-05, 3.646484375) (3.2855121612548824e-05, 3.6484375) (3.407160949707031e-05, 3.650390625) (3.530880737304687e-05, 3.65234375) (3.656595230102539e-05, 3.654296875) (3.782843780517578e-05, 3.65625) (3.907599639892578e-05, 3.658203125) (4.031110000610352e-05, 3.66015625) (4.1537704467773435e-05, 3.662109375) (4.2723358154296874e-05, 3.6640625) (4.3842315673828126e-05, 3.666015625) (4.487532043457031e-05, 3.66796875) (4.5796478271484374e-05, 3.669921875) (4.661980056762695e-05, 3.671875) (4.7379878997802735e-05, 3.673828125) (4.8059177398681636e-05, 3.67578125) (4.862066268920898e-05, 3.677734375) (4.9174552917480464e-05, 3.6796875) (4.985387420654297e-05, 3.681640625) (5.0576011657714844e-05, 3.68359375) (5.1336097717285155e-05, 3.685546875) (5.216830825805664e-05, 3.6875) (5.281164932250976e-05, 3.689453125) (5.397693252563476e-05, 3.69140625) (5.636128234863281e-05, 3.693359375) (5.8931373596191407e-05, 3.6953125) (6.135676193237304e-05, 3.697265625) (6.17830467224121e-05, 3.69921875) (5.800520324707031e-05, 3.701171875) (5.248735427856445e-05, 3.703125) (4.6848476409912106e-05, 3.705078125) (4.3652393341064453e-05, 3.70703125) (4.64014778137207e-05, 3.708984375) (5.20322380065918e-05, 3.7109375) (5.801335525512695e-05, 3.712890625) (6.262757110595702e-05, 3.71484375) (6.27511978149414e-05, 3.716796875) (6.111161041259766e-05, 3.71875) (6.044555282592773e-05, 3.720703125) (6.028182220458984e-05, 3.72265625) (6.160645294189453e-05, 3.724609375) (6.196586227416992e-05, 3.7265625) (5.835752868652344e-05, 3.728515625) (5.323417282104492e-05, 3.73046875) (4.798875427246093e-05, 3.732421875) (4.4939476013183593e-05, 3.734375) (4.7376220703125e-05, 3.736328125) (5.243080139160156e-05, 3.73828125) (5.7677703857421874e-05, 3.740234375) (6.155683517456055e-05, 3.7421875) (6.144318389892578e-05, 3.744140625) (5.9205116271972654e-05, 3.74609375) (5.675121688842773e-05, 3.748046875) (5.45118408203125e-05, 3.75) (5.365221405029297e-05, 3.751953125) (5.351539993286133e-05, 3.75390625) (5.3255119323730466e-05, 3.755859375) (5.302755737304687e-05, 3.7578125) (5.2713363647460934e-05, 3.759765625) (5.237429046630859e-05, 3.76171875) (5.218579864501953e-05, 3.763671875) (5.203383636474609e-05, 3.765625) (5.1828937530517574e-05, 3.767578125) (5.160013580322265e-05, 3.76953125) (5.135273742675781e-05, 3.771484375) (5.107875442504883e-05, 3.7734375) (5.0783329010009766e-05, 3.775390625) (5.047469711303711e-05, 3.77734375) (5.015842056274414e-05, 3.779296875) (4.9852722167968746e-05, 3.78125) (4.9578781127929685e-05, 3.783203125) (4.9330318450927734e-05, 3.78515625) (4.910103607177734e-05, 3.787109375) (4.889552307128906e-05, 3.7890625) (4.8714378356933594e-05, 3.791015625) (4.8558944702148437e-05, 3.79296875) (4.843164825439453e-05, 3.794921875) (4.833066940307617e-05, 3.796875) (4.825371551513672e-05, 3.798828125) (4.82018928527832e-05, 3.80078125) (4.8175575256347655e-05, 3.802734375) (4.817366027832031e-05, 3.8046875) (4.819514465332031e-05, 3.806640625) (4.823794937133789e-05, 3.80859375) (4.829949951171875e-05, 3.810546875) (4.8377296447753906e-05, 3.8125) (4.846841430664062e-05, 3.814453125) (4.856951522827148e-05, 3.81640625) (4.867697143554687e-05, 3.818359375) (4.878679656982422e-05, 3.8203125) (4.889466857910156e-05, 3.822265625) (4.899591827392578e-05, 3.82421875) (4.908558654785156e-05, 3.826171875) (4.915840530395508e-05, 3.828125) (4.92088508605957e-05, 3.830078125) (4.923118209838867e-05, 3.83203125) (4.921949005126953e-05, 3.833984375) (4.9167797088623044e-05, 3.8359375) (4.907016372680664e-05, 3.837890625) (4.892075347900391e-05, 3.83984375) (4.871390151977539e-05, 3.841796875) (4.844422149658203e-05, 3.84375) (4.810660552978515e-05, 3.845703125) (4.769630432128906e-05, 3.84765625) (4.720899963378906e-05, 3.849609375) (4.664080047607422e-05, 3.8515625) (4.598823547363281e-05, 3.853515625) (4.524833679199219e-05, 3.85546875) (4.441868591308593e-05, 3.857421875) (4.3497413635253904e-05, 3.859375) (4.2483524322509766e-05, 3.861328125) (4.137674331665039e-05, 3.86328125) (4.017720794677734e-05, 3.865234375) (3.888582611083984e-05, 3.8671875) (3.7504486083984375e-05, 3.869140625) (3.603540802001953e-05, 3.87109375) (3.448233032226562e-05, 3.873046875) (3.2849853515625e-05, 3.875) (3.1140830993652345e-05, 3.876953125) (2.935872459411621e-05, 3.87890625) (2.7508594512939453e-05, 3.880859375) (2.559529685974121e-05, 3.8828125) (2.362573432922363e-05, 3.884765625) (2.1609241485595703e-05, 3.88671875) (1.9549819946289063e-05, 3.888671875) (1.7451040267944337e-05, 3.890625) (1.5328017234802245e-05, 3.892578125) (1.3194596290588378e-05, 3.89453125) (1.1063228607177734e-05, 3.896484375) (8.950531959533691e-06, 3.8984375) (6.8591594696044916e-06, 3.900390625) (4.783432006835937e-06, 3.90234375) (2.7403585910797116e-06, 3.904296875) (7.483711242675781e-07, 3.90625) (-1.2108259201049803e-06, 3.908203125) (-3.1481103897094725e-06, 3.91015625) (-5.069005966186523e-06, 3.912109375) (-6.993690013885498e-06, 3.9140625) (-8.9012451171875e-06, 3.916015625) (-1.0741226196289061e-05, 3.91796875) (-1.2525148391723632e-05, 3.919921875) (-1.4283626556396484e-05, 3.921875) (-1.5906171798706053e-05, 3.923828125) (-1.7279106140136717e-05, 3.92578125) (-1.848491096496582e-05, 3.927734375) (-1.950650978088379e-05, 3.9296875) (-2.0311511993408203e-05, 3.931640625) (-2.118108558654785e-05, 3.93359375) (-2.1447921752929687e-05, 3.935546875) (-2.046005630493164e-05, 3.9375) (-1.91997127532959e-05, 3.939453125) (-1.794185256958008e-05, 3.94140625) (-1.840960121154785e-05, 3.943359375) (-2.2731616973876953e-05, 3.9453125) (-2.8624742507934568e-05, 3.947265625) (-3.4445308685302735e-05, 3.94921875) (-3.777397537231445e-05, 3.951171875) (-3.5516349792480466e-05, 3.953125) (-3.0479906082153318e-05, 3.955078125) (-2.5029729843139646e-05, 3.95703125) (-2.105704116821289e-05, 3.958984375) (-2.0583885192871093e-05, 3.9609375) (-2.1031713485717772e-05, 3.962890625) (-2.1403896331787108e-05, 3.96484375) (-2.1562683105468747e-05, 3.966796875) (-2.2065364837646483e-05, 3.96875) (-2.569180107116699e-05, 3.970703125) (-3.103704071044922e-05, 3.97265625) (-3.640646743774414e-05, 3.974609375) (-3.963736343383789e-05, 3.9765625) (-3.75400276184082e-05, 3.978515625) (-3.271842193603516e-05, 3.98046875) (-2.7650695800781248e-05, 3.982421875) (-2.4050148010253906e-05, 3.984375) (-2.4556089401245115e-05, 3.986328125) (-2.7261508941650388e-05, 3.98828125) (-3.025085067749023e-05, 3.990234375) (-3.309588241577148e-05, 3.9921875) (-3.4615715026855467e-05, 3.994140625) (-3.549236297607422e-05, 3.99609375) (-3.6588932037353515e-05, 3.998046875) (-3.771876525878906e-05, 4.0) (-3.900257110595703e-05, 4.001953125) (-4.038935852050781e-05, 4.00390625) (-4.169702911376953e-05, 4.005859375) (-4.304116821289062e-05, 4.0078125) (-4.451243591308594e-05, 4.009765625) (-4.607524871826171e-05, 4.01171875) (-4.772138214111328e-05, 4.013671875) (-4.946002578735351e-05, 4.015625) (-5.128250885009765e-05, 4.017578125) (-5.3175655364990234e-05, 4.01953125) (-5.5130149841308594e-05, 4.021484375) (-5.712243270874023e-05, 4.0234375) (-5.912613677978515e-05, 4.025390625) (-6.114305114746093e-05, 4.02734375) (-6.317409896850585e-05, 4.029296875) (-6.520890808105469e-05, 4.03125) (-6.724087524414062e-05, 4.033203125) (-6.926243591308593e-05, 4.03515625) (-7.126475524902344e-05, 4.037109375) (-7.32430419921875e-05, 4.0390625) (-7.519276428222656e-05, 4.041015625) (-7.710585021972656e-05, 4.04296875) (-7.897507476806641e-05, 4.044921875) (-8.079476928710937e-05, 4.046875) (-8.255944061279296e-05, 4.048828125) (-8.426486206054687e-05, 4.05078125) (-8.590758514404296e-05, 4.052734375) (-8.748424530029297e-05, 4.0546875) (-8.899202728271484e-05, 4.056640625) (-9.042874908447266e-05, 4.05859375) (-9.179256439208984e-05, 4.060546875) (-9.308228302001953e-05, 4.0625) (-9.429737854003906e-05, 4.064453125) (-9.543760681152343e-05, 4.06640625) (-9.65030517578125e-05, 4.068359375) (-9.74947509765625e-05, 4.0703125) (-9.841461181640625e-05, 4.072265625) (-9.926548767089843e-05, 4.07421875) (-0.0001000514678955078, 4.076171875) (-0.00010077706909179687, 4.078125) (-0.00010144692993164062, 4.080078125) (-0.00010206653594970703, 4.08203125) (-0.00010264186859130859, 4.083984375) (-0.00010317864990234374, 4.0859375) (-0.00010368260192871094, 4.087890625) (-0.00010415924072265625, 4.08984375) (-0.00010461342620849609, 4.091796875) (-0.0001050501708984375, 4.09375) (-0.0001054747314453125, 4.095703125) (-0.00010589236450195312, 4.09765625) (-0.00010630873107910155, 4.099609375) (-0.00010673059082031249, 4.1015625) (-0.00010716553497314453, 4.103515625) (-0.00010762052917480469, 4.10546875) (-0.000108101806640625, 4.107421875) (-0.00010861445617675781, 4.109375) (-0.00010916281127929687, 4.111328125) (-0.00010975063323974609, 4.11328125) (-0.00011038050842285156, 4.115234375) (-0.00011105445861816406, 4.1171875) (-0.00011177323913574219, 4.119140625) (-0.00011253843688964843, 4.12109375) (-0.00011335441589355469, 4.123046875) (-0.00011422508239746094, 4.125) (-0.00011515302276611328, 4.126953125) (-0.00011613896942138672, 4.12890625) (-0.00011718052673339843, 4.130859375) (-0.00011826944732666014, 4.1328125) (-0.00011939283752441406, 4.134765625) (-0.00012053577423095703, 4.13671875) (-0.0001216790313720703, 4.138671875) (-0.0001228039855957031, 4.140625) (-0.00012389237976074218, 4.142578125) (-0.00012492266845703123, 4.14453125) (-0.00012587469482421874, 4.146484375) (-0.00012673290252685548, 4.1484375) (-0.0001274881134033203, 4.150390625) (-0.00012813050842285154, 4.15234375) (-0.0001286461181640625, 4.154296875) (-0.000129021240234375, 4.15625) (-0.00012924288940429688, 4.158203125) (-0.00012930801391601563, 4.16015625) (-0.0001292240753173828, 4.162109375) (-0.00012900839233398437, 4.1640625) (-0.0001286864471435547, 4.166015625) (-0.00012828707885742188, 4.16796875) (-0.0001278483123779297, 4.169921875) (-0.0001274021453857422, 4.171875) (-0.00012697499847412109, 4.173828125) (-0.0001266071014404297, 4.17578125) (-0.0001263415069580078, 4.177734375) (-0.0001262156524658203, 4.1796875) (-0.00012625733947753905, 4.181640625) (-0.00012647217559814454, 4.18359375) (-0.0001268420944213867, 4.185546875) (-0.0001273666305541992, 4.1875) (-0.00012807533264160156, 4.189453125) (-0.0001289487762451172, 4.19140625) (-0.00012991757202148436, 4.193359375) (-0.00013082579040527343, 4.1953125) (-0.00013141055297851562, 4.197265625) (-0.00013148492431640625, 4.19921875) (-0.00013098104858398437, 4.201171875) (-0.0001298631591796875, 4.203125) (-0.00012808706665039062, 4.205078125) (-0.00012560841369628907, 4.20703125) (-0.00012240076446533201, 4.208984375) (-0.00011867913818359374, 4.2109375) (-0.00011502117919921875, 4.212890625) (-0.00011189237213134765, 4.21484375) (-0.00010944607543945311, 4.216796875) (-0.00010756043243408203, 4.21875) (-0.00010586359405517578, 4.220703125) (-0.00010406879425048828, 4.22265625) (-0.00010203426361083984, 4.224609375) (-9.91883316040039e-05, 4.2265625) (-9.424868774414062e-05, 4.228515625) (-8.594059753417968e-05, 4.23046875) (-7.340774536132812e-05, 4.232421875) (-5.7065650939941404e-05, 4.234375) (-3.860329437255859e-05, 4.236328125) (-1.918592071533203e-05, 4.23828125) (8.460912704467773e-07, 4.240234375) (2.2704759597778318e-05, 4.2421875) (4.798186492919922e-05, 4.244140625) (7.562183380126952e-05, 4.24609375) (0.00010223439025878905, 4.248046875) (0.00012171530914306641, 4.25) (0.00012733991241455078, 4.251953125) (0.00011599406433105469, 4.25390625) (8.789818572998046e-05, 4.255859375) (4.727321624755859e-05, 4.2578125) (1.3300023078918456e-06, 4.259765625) (-4.2791072845458985e-05, 4.26171875) (-7.800197601318359e-05, 4.263671875) (-9.973630523681641e-05, 4.265625) (-0.00010709884643554687, 4.267578125) (-0.000102670654296875, 4.26953125) (-9.300564575195313e-05, 4.271484375) (-8.4114501953125e-05, 4.2734375) (-7.956698608398437e-05, 4.275390625) (-8.010742950439453e-05, 4.27734375) (-8.28358917236328e-05, 4.279296875) (-8.551017761230468e-05, 4.28125) (-8.774330139160155e-05, 4.283203125) (-8.993525695800781e-05, 4.28515625) (-9.348851013183593e-05, 4.287109375) (-9.885150146484375e-05, 4.2890625) (-0.00010509490966796874, 4.291015625) (-0.00011122950744628905, 4.29296875) (-0.00011653939056396484, 4.294921875) (-0.00012069349670410156, 4.296875) (-0.00012377258300781248, 4.298828125) (-0.00012590911865234373, 4.30078125) (-0.0001271553955078125, 4.302734375) (-0.00012766702270507812, 4.3046875) (-0.00012773529052734374, 4.306640625) (-0.0001276608200073242, 4.30859375) (-0.00012761544799804687, 4.310546875) (-0.00012766066741943358, 4.3125) (-0.00012779195404052733, 4.314453125) (-0.00012799270629882813, 4.31640625) (-0.00012828829956054686, 4.318359375) (-0.00012869779968261718, 4.3203125) (-0.00012920085144042969, 4.322265625) (-0.00012975216674804686, 4.32421875) (-0.00013031948852539063, 4.326171875) (-0.00013087808227539062, 4.328125) (-0.00013140069580078125, 4.330078125) (-0.00013185873413085937, 4.33203125) (-0.00013220388793945312, 4.333984375) (-0.00013239376831054687, 4.3359375) (-0.00013240985107421875, 4.337890625) (-0.00013224736022949217, 4.33984375) (-0.00013190975952148438, 4.341796875) (-0.00013140422058105467, 4.34375) (-0.00013073196411132813, 4.345703125) (-0.00012988677978515624, 4.34765625) (-0.0001288722686767578, 4.349609375) (-0.00012769503784179688, 4.3515625) (-0.00012636000061035156, 4.353515625) (-0.00012487437438964843, 4.35546875) (-0.00012324288940429687, 4.357421875) (-0.00012147717285156249, 4.359375) (-0.00011960185241699218, 4.361328125) (-0.00011765419769287109, 4.36328125) (-0.0001156758804321289, 4.365234375) (-0.00011369635772705077, 4.3671875) (-0.00011173028564453125, 4.369140625) (-0.00010978287506103515, 4.37109375) (-0.00010785579681396484, 4.373046875) (-0.00010595237731933594, 4.375) (-0.00010408219146728515, 4.376953125) (-0.00010225247955322265, 4.37890625) (-0.00010045679473876953, 4.380859375) (-9.868290710449219e-05, 4.3828125) (-9.691036987304687e-05, 4.384765625) (-9.512055969238281e-05, 4.38671875) (-9.331436157226563e-05, 4.388671875) (-9.15029525756836e-05, 4.390625) (-8.969721984863281e-05, 4.392578125) (-8.789158630371093e-05, 4.39453125) (-8.606048583984375e-05, 4.396484375) (-8.417493438720702e-05, 4.3984375) (-8.224478149414062e-05, 4.400390625) (-8.033324432373047e-05, 4.40234375) (-7.847525787353516e-05, 4.404296875) (-7.662071228027344e-05, 4.40625) (-7.462808990478516e-05, 4.408203125) (-7.233599853515624e-05, 4.41015625) (-6.969126892089843e-05, 4.412109375) (-6.681156921386718e-05, 4.4140625) (-6.386208343505859e-05, 4.416015625) (-6.086587524414062e-05, 4.41796875) (-5.783483123779297e-05, 4.419921875) (-5.493498229980469e-05, 4.421875) (-5.253556823730469e-05, 4.423828125) (-5.117824554443359e-05, 4.42578125) (-5.1239128112792966e-05, 4.427734375) (-5.255635833740234e-05, 4.4296875) (-5.462660217285156e-05, 4.431640625) (-5.706591415405273e-05, 4.43359375) (-5.952090454101562e-05, 4.435546875) (-6.155659484863281e-05, 4.4375) (-6.25767364501953e-05, 4.439453125) (-6.161074447631836e-05, 4.44140625) (-5.777619934082031e-05, 4.443359375) (-5.10443115234375e-05, 4.4453125) (-4.204002380371093e-05, 4.447265625) (-3.148616790771484e-05, 4.44921875) (-2.019045066833496e-05, 4.451171875) (-8.823854446411132e-06, 4.453125) (2.0126497745513917e-06, 4.455078125) (1.1278533935546875e-05, 4.45703125) (1.788245391845703e-05, 4.458984375) (2.1530277252197263e-05, 4.4609375) (2.258803367614746e-05, 4.462890625) (2.1752168655395508e-05, 4.46484375) (1.997848892211914e-05, 4.466796875) (1.7911787033081053e-05, 4.46875) (1.591713809967041e-05, 4.470703125) (1.4648483276367187e-05, 4.47265625) (1.483963108062744e-05, 4.474609375) (1.679969596862793e-05, 4.4765625) (2.0477882385253905e-05, 4.478515625) (2.546893882751465e-05, 4.48046875) (3.1069660186767576e-05, 4.482421875) (3.6858612060546877e-05, 4.484375) (4.2685916900634765e-05, 4.486328125) (4.832155990600586e-05, 4.48828125) (5.35294189453125e-05, 4.490234375) (5.8156337738037105e-05, 4.4921875) (6.211067199707031e-05, 4.494140625) (6.549463653564453e-05, 4.49609375) (6.858098602294921e-05, 4.498046875) (7.151238250732421e-05, 4.5) (7.430829620361328e-05, 4.501953125) (7.696727752685547e-05, 4.50390625) (7.944695281982422e-05, 4.505859375) (8.173912811279297e-05, 4.5078125) (8.387493896484375e-05, 4.509765625) (8.584123229980468e-05, 4.51171875) (8.758877563476562e-05, 4.513671875) (8.908981323242187e-05, 4.515625) (9.033294677734374e-05, 4.517578125) (9.132786560058593e-05, 4.51953125) (9.211055755615234e-05, 4.521484375) (9.270127868652344e-05, 4.5234375) (9.310388946533203e-05, 4.525390625) (9.331983184814453e-05, 4.52734375) (9.334453582763672e-05, 4.529296875) (9.317935943603516e-05, 4.53125) (9.283317565917968e-05, 4.533203125) (9.23142852783203e-05, 4.53515625) (9.162963104248046e-05, 4.537109375) (9.078327941894531e-05, 4.5390625) (8.977619934082031e-05, 4.541015625) (8.861058044433593e-05, 4.54296875) (8.729061889648437e-05, 4.544921875) (8.582077026367187e-05, 4.546875) (8.42059097290039e-05, 4.548828125) (8.24490509033203e-05, 4.55078125) (8.055129241943359e-05, 4.552734375) (7.851616668701172e-05, 4.5546875) (7.634959411621094e-05, 4.556640625) (7.405970764160156e-05, 4.55859375) (7.165684509277344e-05, 4.560546875) (6.914979553222656e-05, 4.5625) (6.654563903808594e-05, 4.564453125) (6.385134506225585e-05, 4.56640625) (6.107367706298828e-05, 4.568359375) (5.821995162963867e-05, 4.5703125) (5.529811859130859e-05, 4.572265625) (5.231549835205078e-05, 4.57421875) (4.927878189086914e-05, 4.576171875) (4.6194740295410156e-05, 4.578125) (4.307009506225586e-05, 4.580078125) (3.991179656982422e-05, 4.58203125) (3.672700881958008e-05, 4.583984375) (3.352231216430664e-05, 4.5859375) (3.0303730010986327e-05, 4.587890625) (2.7076946258544922e-05, 4.58984375) (2.3847265243530272e-05, 4.591796875) (2.062009048461914e-05, 4.59375) (1.7400934219360352e-05, 4.595703125) (1.4195202827453613e-05, 4.59765625) (1.1008259773254394e-05, 4.599609375) (7.845454692840576e-06, 4.6015625) (4.712124824523926e-06, 4.603515625) (1.6137001514434814e-06, 4.60546875) (-1.4442942142486572e-06, 4.607421875) (-4.456350326538086e-06, 4.609375) (-7.416968345642089e-06, 4.611328125) (-1.032062530517578e-05, 4.61328125) (-1.3161806106567381e-05, 4.615234375) (-1.5934965133666993e-05, 4.6171875) (-1.8634559631347656e-05, 4.619140625) (-2.1255084991455076e-05, 4.62109375) (-2.3791088104248045e-05, 4.623046875) (-2.6237207412719727e-05, 4.625) (-2.858818435668945e-05, 4.626953125) (-3.083891868591309e-05, 4.62890625) (-3.29844970703125e-05, 4.630859375) (-3.502021789550781e-05, 4.6328125) (-3.6941627502441404e-05, 4.634765625) (-3.874451828002929e-05, 4.63671875) (-4.042496490478515e-05, 4.638671875) (-4.1979354858398436e-05, 4.640625) (-4.3404396057128906e-05, 4.642578125) (-4.4697120666503905e-05, 4.64453125) (-4.585491561889648e-05, 4.646484375) (-4.687549591064453e-05, 4.6484375) (-4.775696182250976e-05, 4.650390625) (-4.8497798919677735e-05, 4.65234375) (-4.909694671630859e-05, 4.654296875) (-4.955377197265625e-05, 4.65625) (-4.98681411743164e-05, 4.658203125) (-5.004042816162109e-05, 4.66015625) (-5.007158660888672e-05, 4.662109375) (-4.9963180541992187e-05, 4.6640625) (-4.9717418670654296e-05, 4.666015625) (-4.9337188720703126e-05, 4.66796875) (-4.88260498046875e-05, 4.669921875) (-4.818828582763672e-05, 4.671875) (-4.742888259887695e-05, 4.673828125) (-4.655356979370117e-05, 4.67578125) (-4.556877899169922e-05, 4.677734375) (-4.4481620788574215e-05, 4.6796875) (-4.329986953735351e-05, 4.681640625) (-4.2031929016113276e-05, 4.68359375) (-4.0686752319335934e-05, 4.685546875) (-3.927382659912109e-05, 4.6875) (-3.7803039550781247e-05, 4.689453125) (-3.628461456298828e-05, 4.69140625) (-3.472901916503906e-05, 4.693359375) (-3.314686203002929e-05, 4.6953125) (-3.1548828125e-05, 4.697265625) (-2.9945573806762693e-05, 4.69921875) (-2.834767150878906e-05, 4.701171875) (-2.6765491485595703e-05, 4.703125) (-2.520918846130371e-05, 4.705078125) (-2.3688629150390623e-05, 4.70703125) (-2.2213376998901365e-05, 4.708984375) (-2.0792629241943358e-05, 4.7109375) (-1.9435173034667967e-05, 4.712890625) (-1.8149314880371094e-05, 4.71484375) (-1.6942863464355468e-05, 4.716796875) (-1.5823094367980956e-05, 4.71875) (-1.4796691894531249e-05, 4.720703125) (-1.386969757080078e-05, 4.72265625) (-1.304744529724121e-05, 4.724609375) (-1.2334488868713378e-05, 4.7265625) (-1.173460578918457e-05, 4.728515625) (-1.125076675415039e-05, 4.73046875) (-1.0885082244873047e-05, 4.732421875) (-1.0638768196105957e-05, 4.734375) (-1.0512118339538574e-05, 4.736328125) (-1.0504465103149414e-05, 4.73828125) (-1.0614192962646484e-05, 4.740234375) (-1.0838759422302245e-05, 4.7421875) (-1.1174659729003906e-05, 4.744140625) (-1.1617435455322265e-05, 4.74609375) (-1.2161701202392577e-05, 4.748046875) (-1.2801187515258788e-05, 4.75) (-1.3528846740722656e-05, 4.751953125) (-1.4336964607238769e-05, 4.75390625) (-1.5217267036437987e-05, 4.755859375) (-1.616099739074707e-05, 4.7578125) (-1.7158983230590818e-05, 4.759765625) (-1.820175552368164e-05, 4.76171875) (-1.9279685974121093e-05, 4.763671875) (-2.038313102722168e-05, 4.765625) (-2.1502471923828122e-05, 4.767578125) (-2.262815475463867e-05, 4.76953125) (-2.3750711441040036e-05, 4.771484375) (-2.4860813140869138e-05, 4.7734375) (-2.594946479797363e-05, 4.775390625) (-2.7008045196533202e-05, 4.77734375) (-2.8028293609619138e-05, 4.779296875) (-2.900230598449707e-05, 4.78125) (-2.992255401611328e-05, 4.783203125) (-3.078197288513183e-05, 4.78515625) (-3.157405853271484e-05, 4.787109375) (-3.22929458618164e-05, 4.7890625) (-3.293330383300781e-05, 4.791015625) (-3.349029541015625e-05, 4.79296875) (-3.395964431762695e-05, 4.794921875) (-3.4337684631347653e-05, 4.796875) (-3.462134170532227e-05, 4.798828125) (-3.4808246612548826e-05, 4.80078125) (-3.489669036865234e-05, 4.802734375) (-3.488554000854492e-05, 4.8046875) (-3.4774364471435545e-05, 4.806640625) (-3.456349563598633e-05, 4.80859375) (-3.425405120849609e-05, 4.810546875) (-3.384801483154297e-05, 4.8125) (-3.3348136901855466e-05, 4.814453125) (-3.2757751464843746e-05, 4.81640625) (-3.208065414428711e-05, 4.818359375) (-3.1321144104003904e-05, 4.8203125) (-3.0484046936035155e-05, 4.822265625) (-2.9574634552001952e-05, 4.82421875) (-2.8598442077636718e-05, 4.826171875) (-2.7561004638671875e-05, 4.828125) (-2.6467847824096677e-05, 4.830078125) (-2.5324596405029296e-05, 4.83203125) (-2.413700485229492e-05, 4.833984375) (-2.2910934448242186e-05, 4.8359375) (-2.1651956558227538e-05, 4.837890625) (-2.0365312576293945e-05, 4.83984375) (-1.9056041717529295e-05, 4.841796875) (-1.77291202545166e-05, 4.84375) (-1.638948631286621e-05, 4.845703125) (-1.5041871070861816e-05, 4.84765625) (-1.3690738677978515e-05, 4.849609375) (-1.2340167999267577e-05, 4.8515625) (-1.0994126319885253e-05, 4.853515625) (-9.656741142272948e-06, 4.85546875) (-8.332076072692871e-06, 4.857421875) (-7.024104118347168e-06, 4.859375) (-5.736994266510009e-06, 4.861328125) (-4.474968433380127e-06, 4.86328125) (-3.242321014404297e-06, 4.865234375) (-2.0437781810760498e-06, 4.8671875) (-8.838877081871032e-07, 4.869140625) (2.3337714374065398e-07, 4.87109375) (1.3041471242904662e-06, 4.873046875) (2.3248779773712156e-06, 4.875) (3.2926688194274902e-06, 4.876953125) (4.204704284667969e-06, 4.87890625) (5.058658599853515e-06, 4.880859375) (5.85330581665039e-06, 4.8828125) (6.587466716766357e-06, 4.884765625) (7.259848594665527e-06, 4.88671875) (7.869039058685303e-06, 4.888671875) (8.412788391113281e-06, 4.890625) (8.889172554016114e-06, 4.892578125) (9.297273635864257e-06, 4.89453125) (9.636186599731446e-06, 4.896484375) (9.904830932617188e-06, 4.8984375) (1.0101244926452636e-05, 4.900390625) (1.0221843719482422e-05, 4.90234375) (1.026466941833496e-05, 4.904296875) (1.0230804443359374e-05, 4.90625) (1.012067413330078e-05, 4.908203125) (9.934223175048828e-06, 4.91015625) (9.669045448303222e-06, 4.912109375) (9.318824768066405e-06, 4.9140625) (8.881513595581054e-06, 4.916015625) (8.361069679260254e-06, 4.91796875) (7.763179779052734e-06, 4.919921875) (7.094980239868164e-06, 4.921875) (6.3640980720520014e-06, 4.923828125) (5.577364921569824e-06, 4.92578125) (4.7480349540710445e-06, 4.927734375) (3.897838115692138e-06, 4.9296875) (3.048596143722534e-06, 4.931640625) (2.222966194152832e-06, 4.93359375) (1.4371348619461058e-06, 4.935546875) (6.976922154426574e-07, 4.9375) (1.576992869377136e-08, 4.939453125) (-5.94745934009552e-07, 4.94140625) (-1.1149053573608398e-06, 4.943359375) (-1.519287347793579e-06, 4.9453125) (-1.7967046499252318e-06, 4.947265625) (-1.9521301984786985e-06, 4.94921875) (-1.9921591281890867e-06, 4.951171875) (-1.9221211671829223e-06, 4.953125) (-1.7476645708084106e-06, 4.955078125) (-1.4749870300292968e-06, 4.95703125) (-1.134238600730896e-06, 4.958984375) (-7.801864743232727e-07, 4.9609375) (-4.614068269729614e-07, 4.962890625) (-2.2301919758319854e-07, 4.96484375) (-9.095078706741333e-08, 4.966796875) (-7.336101680994034e-08, 4.96875) (-1.9151347875595093e-07, 4.970703125) (-4.6052366495132446e-07, 4.97265625) (-8.915159702301025e-07, 4.974609375) (-1.4970623254776e-06, 4.9765625) (-2.2585651874542234e-06, 4.978515625) (-3.146595001220703e-06, 4.98046875) (-4.148510456085205e-06, 4.982421875) (-5.238609313964844e-06, 4.984375) (-6.387645244598388e-06, 4.986328125) (-7.582812309265137e-06, 4.98828125) (-8.7511625289917e-06, 4.990234375) (-9.786896705627441e-06, 4.9921875) (-1.0584290504455566e-05, 4.994140625) (-1.0901850700378418e-05, 4.99609375) (-1.0465618133544922e-05, 4.998046875) (-9.12425708770752e-06, 5.0) (-6.754451751708984e-06, 5.001953125) (-3.2953481674194333e-06, 5.00390625) (1.24588942527771e-06, 5.005859375) (6.995065689086914e-06, 5.0078125) (1.3892951011657714e-05, 5.009765625) (2.1294109344482423e-05, 5.01171875) (2.8380363464355468e-05, 5.013671875) (3.456060791015625e-05, 5.015625) (4.020855712890625e-05, 5.017578125) (4.667607879638672e-05, 5.01953125) (5.472908020019531e-05, 5.021484375) (6.397282791137695e-05, 5.0234375) (7.186981964111328e-05, 5.025390625) (7.525643920898437e-05, 5.02734375) (7.429456329345702e-05, 5.029296875) (7.179625701904296e-05, 5.03125) (7.353983306884766e-05, 5.033203125) (8.659877014160156e-05, 5.03515625) (0.00011300611114501952, 5.037109375) (0.00015119947814941405, 5.0390625) (0.00019725790405273437, 5.041015625) (0.00024342124938964843, 5.04296875) (0.0002842280883789062, 5.044921875) (0.00031574053955078123, 5.046875) (0.0003321867065429687, 5.048828125) (0.00033178814697265623, 5.05078125) (0.0003129490966796875, 5.052734375) (0.00027463320922851563, 5.0546875) (0.00022333743286132813, 5.056640625) (0.00016572010803222656, 5.05859375) (0.00011070475769042969, 5.060546875) (6.96786651611328e-05, 5.0625) (4.561730575561523e-05, 5.064453125) (3.805229949951172e-05, 5.06640625) (4.2494163513183594e-05, 5.068359375) (4.879102325439453e-05, 5.0703125) (5.187863922119141e-05, 5.072265625) (5.041805267333984e-05, 5.07421875) (4.507732009887695e-05, 5.076171875) (4.034531784057617e-05, 5.078125) (3.8309425354003906e-05, 5.080078125) (3.821402740478516e-05, 5.08203125) (3.900864410400391e-05, 5.083984375) (3.883879852294922e-05, 5.0859375) (3.698424530029297e-05, 5.087890625) (3.4152824401855464e-05, 5.08984375) (3.113992881774902e-05, 5.091796875) (2.867874717712402e-05, 5.09375) (2.710866355895996e-05, 5.095703125) (2.6476226806640623e-05, 5.09765625) (2.678733444213867e-05, 5.099609375) (2.7960777282714843e-05, 5.1015625) (2.9845790863037107e-05, 5.103515625) (3.2194740295410155e-05, 5.10546875) (3.46686897277832e-05, 5.107421875) (3.695975494384765e-05, 5.109375) (3.890386581420898e-05, 5.111328125) (4.0416053771972654e-05, 5.11328125) (4.146484375e-05, 5.115234375) (4.207032775878906e-05, 5.1171875) (4.2241867065429686e-05, 5.119140625) (4.201054763793945e-05, 5.12109375) (4.1458244323730466e-05, 5.123046875) (4.0673942565917964e-05, 5.125) (3.973139953613281e-05, 5.126953125) (3.869649505615234e-05, 5.12890625) (3.760989379882812e-05, 5.130859375) (3.65087776184082e-05, 5.1328125) (3.545643615722656e-05, 5.134765625) (3.4509185791015627e-05, 5.13671875) (3.371302795410156e-05, 5.138671875) (3.310481262207031e-05, 5.140625) (3.269362640380859e-05, 5.142578125) (3.247830581665039e-05, 5.14453125) (3.246188354492187e-05, 5.146484375) (3.263901519775391e-05, 5.1484375) (3.299702453613281e-05, 5.150390625) (3.352074432373047e-05, 5.15234375) (3.4183441162109374e-05, 5.154296875) (3.495759582519531e-05, 5.15625) (3.582171630859375e-05, 5.158203125) (3.6749534606933595e-05, 5.16015625) (3.771432876586914e-05, 5.162109375) (3.868674468994141e-05, 5.1640625) (3.9631141662597655e-05, 5.166015625) (4.051957702636719e-05, 5.16796875) (4.1332691192626954e-05, 5.169921875) (4.20549087524414e-05, 5.171875) (4.267862701416016e-05, 5.173828125) (4.3200889587402345e-05, 5.17578125) (4.361896514892578e-05, 5.177734375) (4.3935981750488276e-05, 5.1796875) (4.4160099029541014e-05, 5.181640625) (4.429810333251953e-05, 5.18359375) (4.435805511474609e-05, 5.185546875) (4.434811019897461e-05, 5.1875) (4.427420425415039e-05, 5.189453125) (4.414497375488281e-05, 5.19140625) (4.3971672058105465e-05, 5.193359375) (4.376630020141601e-05, 5.1953125) (4.3542350769042966e-05, 5.197265625) (4.3312770843505856e-05, 5.19921875) (4.3088951110839844e-05, 5.201171875) (4.2882850646972654e-05, 5.203125) (4.270679092407226e-05, 5.205078125) (4.2572486877441404e-05, 5.20703125) (4.249164581298828e-05, 5.208984375) (4.247515869140625e-05, 5.2109375) (4.253314208984375e-05, 5.212890625) (4.2677024841308594e-05, 5.21484375) (4.2919273376464844e-05, 5.216796875) (4.32723159790039e-05, 5.21875) (4.3748634338378905e-05, 5.220703125) (4.436016082763672e-05, 5.22265625) (4.511803817749023e-05, 5.224609375) (4.603321075439453e-05, 5.2265625) (4.71161880493164e-05, 5.228515625) (4.837609481811523e-05, 5.23046875) (4.982073974609375e-05, 5.232421875) (5.145669555664062e-05, 5.234375) (5.328922653198242e-05, 5.236328125) (5.532255172729492e-05, 5.23828125) (5.755983734130859e-05, 5.240234375) (6.0002845764160156e-05, 5.2421875) (6.265180206298828e-05, 5.244140625) (6.550553894042968e-05, 5.24609375) (6.856146240234375e-05, 5.248046875) (7.181558990478515e-05, 5.25) (7.526266479492187e-05, 5.251953125) (7.889596557617187e-05, 5.25390625) (8.270716857910156e-05, 5.255859375) (8.668654632568359e-05, 5.2578125) (9.082310485839843e-05, 5.259765625) (9.510458374023438e-05, 5.26171875) (9.951771545410155e-05, 5.263671875) (0.00010404792785644531, 5.265625) (0.00010867932891845703, 5.267578125) (0.0001133948974609375, 5.26953125) (0.00011817655944824218, 5.271484375) (0.00012300536346435546, 5.2734375) (0.00012786145019531248, 5.275390625) (0.00013272409057617186, 5.27734375) (0.00013757179260253906, 5.279296875) (0.000142382568359375, 5.28125) (0.00014713407897949218, 5.283203125) (0.00015180369567871092, 5.28515625) (0.0001563688507080078, 5.287109375) (0.00016080685424804686, 5.2890625) (0.00016509524536132813, 5.291015625) (0.00016921185302734375, 5.29296875) (0.00017313516235351563, 5.294921875) (0.00017684425354003906, 5.296875) (0.00018031907653808592, 5.298828125) (0.00018354045104980468, 5.30078125) (0.00018649024963378905, 5.302734375) (0.00018915147399902344, 5.3046875) (0.00019150860595703125, 5.306640625) (0.00019354739379882812, 5.30859375) (0.00019525506591796873, 5.310546875) (0.00019662040710449218, 5.3125) (0.00019763363647460935, 5.314453125) (0.00019828665161132812, 5.31640625) (0.00019857299804687499, 5.318359375) (0.0001984879150390625, 5.3203125) (0.00019802830505371094, 5.322265625) (0.0001971928253173828, 5.32421875) (0.00019598190307617186, 5.326171875) (0.00019439772033691405, 5.328125) (0.00019244430541992186, 5.330078125) (0.0001901275939941406, 5.33203125) (0.0001874552307128906, 5.333984375) (0.00018443661499023436, 5.3359375) (0.00018108285522460936, 5.337890625) (0.00017740663146972657, 5.33984375) (0.00017342225646972657, 5.341796875) (0.00016914537048339843, 5.34375) (0.000164593017578125, 5.345703125) (0.00015978341674804686, 5.34765625) (0.00015473596191406248, 5.349609375) (0.00014947100830078124, 5.3515625) (0.00014400985717773437, 5.353515625) (0.00013837454223632813, 5.35546875) (0.00013258773803710938, 5.357421875) (0.00012667250061035155, 5.359375) (0.00012065221405029296, 5.361328125) (0.00011455033874511718, 5.36328125) (0.00010839028167724609, 5.365234375) (0.00010219523620605468, 5.3671875) (9.598802185058593e-05, 5.369140625) (8.979098510742187e-05, 5.37109375) (8.362592315673828e-05, 5.373046875) (7.751397705078125e-05, 5.375) (7.147551727294922e-05, 5.376953125) (6.553016662597656e-05, 5.37890625) (5.969659042358398e-05, 5.380859375) (5.39925422668457e-05, 5.3828125) (4.843467330932617e-05, 5.384765625) (4.303849029541016e-05, 5.38671875) (3.781824493408203e-05, 5.388671875) (3.2786849975585935e-05, 5.390625) (2.795582580566406e-05, 5.392578125) (2.3335254669189453e-05, 5.39453125) (1.8933761596679686e-05, 5.396484375) (1.4758490562438964e-05, 5.3984375) (1.0815136909484862e-05, 5.400390625) (7.107945919036865e-06, 5.40234375) (3.639749050140381e-06, 5.404296875) (4.119852781295776e-07, 5.40625) (-2.5752763748168944e-06, 5.408203125) (-5.323310375213623e-06, 5.41015625) (-7.83470344543457e-06, 5.412109375) (-1.0113304138183592e-05, 5.4140625) (-1.216416072845459e-05, 5.416015625) (-1.399343204498291e-05, 5.41796875) (-1.5608287811279296e-05, 5.419921875) (-1.7016796112060546e-05, 5.421875) (-1.8227779388427735e-05, 5.423828125) (-1.925069808959961e-05, 5.42578125) (-2.0095516204833984e-05, 5.427734375) (-2.077260398864746e-05, 5.4296875) (-2.1292625427246094e-05, 5.431640625) (-2.1666492462158203e-05, 5.43359375) (-2.190528678894043e-05, 5.435546875) (-2.2020214080810546e-05, 5.4375) (-2.2022552490234372e-05, 5.439453125) (-2.192359161376953e-05, 5.44140625) (-2.1734569549560545e-05, 5.443359375) (-2.1466594696044922e-05, 5.4453125) (-2.1130565643310547e-05, 5.447265625) (-2.0737071990966795e-05, 5.44921875) (-2.0296302795410155e-05, 5.451171875) (-1.98179817199707e-05, 5.453125) (-1.931128692626953e-05, 5.455078125) (-1.878483009338379e-05, 5.45703125) (-1.824661064147949e-05, 5.458984375) (-1.7703990936279298e-05, 5.4609375) (-1.7163684844970702e-05, 5.462890625) (-1.6631731033325193e-05, 5.46484375) (-1.611349105834961e-05, 5.466796875) (-1.561361789703369e-05, 5.46875) (-1.5136038780212401e-05, 5.470703125) (-1.4683926582336425e-05, 5.47265625) (-1.4259690284729003e-05, 5.474609375) (-1.386497402191162e-05, 5.4765625) (-1.3500685691833496e-05, 5.478515625) (-1.3167040824890136e-05, 5.48046875) (-1.2863626480102538e-05, 5.482421875) (-1.2589476585388183e-05, 5.484375) (-1.23431396484375e-05, 5.486328125) (-1.2122764587402343e-05, 5.48828125) (-1.1926172256469726e-05, 5.490234375) (-1.1750900268554687e-05, 5.4921875) (-1.159423828125e-05, 5.494140625) (-1.1453256607055664e-05, 5.49609375) (-1.1324810981750488e-05, 5.498046875) (-1.1205549240112304e-05, 5.5) (-1.1091936111450194e-05, 5.501953125) (-1.098027229309082e-05, 5.50390625) (-1.0866737365722655e-05, 5.505859375) (-1.0747428894042969e-05, 5.5078125) (-1.0618421554565429e-05, 5.509765625) (-1.0475822448730468e-05, 5.51171875) (-1.031583023071289e-05, 5.513671875) (-1.0134780883789061e-05, 5.515625) (-9.929178237915039e-06, 5.517578125) (-9.695733070373535e-06, 5.51953125) (-9.431373596191406e-06, 5.521484375) (-9.13326644897461e-06, 5.5234375) (-8.798839569091796e-06, 5.525390625) (-8.425819396972655e-06, 5.52734375) (-8.012249946594238e-06, 5.529296875) (-7.556531906127929e-06, 5.53125) (-7.0574607849121095e-06, 5.533203125) (-6.514254570007324e-06, 5.53515625) (-5.926577568054199e-06, 5.537109375) (-5.294548034667969e-06, 5.5390625) (-4.618716716766357e-06, 5.541015625) (-3.9000346660614015e-06, 5.54296875) (-3.1398069858551024e-06, 5.544921875) (-2.3396432399749754e-06, 5.546875) (-1.5014110803604126e-06, 5.548828125) (-6.271964907646179e-07, 5.55078125) (2.807346284389496e-07, 5.552734375) (1.2199577093124389e-06, 5.5546875) (2.1879000663757322e-06, 5.556640625) (3.181840419769287e-06, 5.55859375) (4.198901653289795e-06, 5.560546875) (5.236048221588135e-06, 5.5625) (6.290092468261718e-06, 5.564453125) (7.357714653015136e-06, 5.56640625) (8.43548011779785e-06, 5.568359375) (9.519872665405273e-06, 5.5703125) (1.0607317924499512e-05, 5.572265625) (1.16942138671875e-05, 5.57421875) (1.2776959419250488e-05, 5.576171875) (1.3851982116699219e-05, 5.578125) (1.4915754318237305e-05, 5.580078125) (1.5964820861816404e-05, 5.58203125) (1.6995800018310546e-05, 5.583984375) (1.800541305541992e-05, 5.5859375) (1.8990520477294923e-05, 5.587890625) (1.994814109802246e-05, 5.58984375) (2.087550354003906e-05, 5.591796875) (2.1770065307617187e-05, 5.59375) (2.2629554748535154e-05, 5.595703125) (2.3451971054077147e-05, 5.59765625) (2.423561096191406e-05, 5.599609375) (2.4979063034057618e-05, 5.6015625) (2.568118667602539e-05, 5.603515625) (2.6341079711914062e-05, 5.60546875) (2.6958045959472656e-05, 5.607421875) (2.753157043457031e-05, 5.609375) (2.806128692626953e-05, 5.611328125) (2.8546958923339843e-05, 5.61328125) (2.898847198486328e-05, 5.615234375) (2.938582611083984e-05, 5.6171875) (2.973910140991211e-05, 5.619140625) (3.004849624633789e-05, 5.62109375) (3.031429862976074e-05, 5.623046875) (3.053690910339355e-05, 5.625) (3.07168083190918e-05, 5.626953125) (3.085457229614258e-05, 5.62890625) (3.095085144042968e-05, 5.630859375) (3.1006338119506834e-05, 5.6328125) (3.102180099487304e-05, 5.634765625) (3.0998062133789064e-05, 5.63671875) (3.093599510192871e-05, 5.638671875) (3.083652114868164e-05, 5.640625) (3.0700597763061523e-05, 5.642578125) (3.052920341491699e-05, 5.64453125) (3.0323335647583008e-05, 5.646484375) (3.0083976745605468e-05, 5.6484375) (2.9812086105346677e-05, 5.650390625) (2.9508569717407225e-05, 5.65234375) (2.917425537109375e-05, 5.654296875) (2.8809888839721678e-05, 5.65625) (2.8416130065917967e-05, 5.658203125) (2.7993555068969725e-05, 5.66015625) (2.754268455505371e-05, 5.662109375) (2.7063987731933592e-05, 5.6640625) (2.6557905197143553e-05, 5.666015625) (2.6024887084960935e-05, 5.66796875) (2.546538734436035e-05, 5.669921875) (2.4879928588867187e-05, 5.671875) (2.426906394958496e-05, 5.673828125) (2.3633426666259766e-05, 5.67578125) (2.2973716735839843e-05, 5.677734375) (2.2290706634521484e-05, 5.6796875) (2.1585275650024413e-05, 5.681640625) (2.08583984375e-05, 5.68359375) (2.011117172241211e-05, 5.685546875) (1.9344810485839842e-05, 5.6875) (1.8560646057128905e-05, 5.689453125) (1.77601261138916e-05, 5.69140625) (1.6944801330566405e-05, 5.693359375) (1.6116331100463866e-05, 5.6953125) (1.5276446342468262e-05, 5.697265625) (1.442693519592285e-05, 5.69921875) (1.3569626808166504e-05, 5.701171875) (1.270638084411621e-05, 5.703125) (1.183908462524414e-05, 5.705078125) (1.0969667434692383e-05, 5.70703125) (1.0100091934204102e-05, 5.708984375) (9.232361793518066e-06, 5.7109375) (8.368523597717284e-06, 5.712890625) (7.510650634765625e-06, 5.71484375) (6.660833358764648e-06, 5.716796875) (5.8211660385131835e-06, 5.71875) (4.993708610534667e-06, 5.720703125) (4.180457592010498e-06, 5.72265625) (3.38329815864563e-06, 5.724609375) (2.603975534439087e-06, 5.7265625) (1.8440759181976318e-06, 5.728515625) (1.1050164699554442e-06, 5.73046875) (3.8802069425582886e-07, 5.732421875) (-3.058952987194061e-07, 5.734375) (-9.759385585784913e-07, 5.736328125) (-1.6215556859970092e-06, 5.73828125) (-2.242426872253418e-06, 5.740234375) (-2.838482141494751e-06, 5.7421875) (-3.409931182861328e-06, 5.744140625) (-3.957274436950684e-06, 5.74609375) (-4.481315612792969e-06, 5.748046875) (-4.983160018920898e-06, 5.75) (-5.464192390441894e-06, 5.751953125) (-5.926038265228271e-06, 5.75390625) (-6.370553016662598e-06, 5.755859375) (-6.799784183502197e-06, 5.7578125) (-7.2159323692321775e-06, 5.759765625) (-7.621349811553955e-06, 5.76171875) (-8.018500328063964e-06, 5.763671875) (-8.409923553466796e-06, 5.765625) (-8.798246383666991e-06, 5.767578125) (-9.186185836791991e-06, 5.76953125) (-9.576533317565917e-06, 5.771484375) (-9.97216796875e-06, 5.7734375) (-1.0376007080078125e-05, 5.775390625) (-1.0790924072265625e-05, 5.77734375) (-1.1219727516174317e-05, 5.779296875) (-1.1665142059326172e-05, 5.78125) (-1.2129733085632324e-05, 5.783203125) (-1.2615897178649902e-05, 5.78515625) (-1.3125762939453124e-05, 5.787109375) (-1.366116714477539e-05, 5.7890625) (-1.4223684310913084e-05, 5.791015625) (-1.4814613342285156e-05, 5.79296875) (-1.543496036529541e-05, 5.794921875) (-1.6085428237915038e-05, 5.796875) (-1.676637268066406e-05, 5.798828125) (-1.7477748870849608e-05, 5.80078125) (-1.821920013427734e-05, 5.802734375) (-1.8989988327026366e-05, 5.8046875) (-1.978894805908203e-05, 5.806640625) (-2.061453056335449e-05, 5.80859375) (-2.146476173400879e-05, 5.810546875) (-2.233724784851074e-05, 5.8125) (-2.3229284286499022e-05, 5.814453125) (-2.41379280090332e-05, 5.81640625) (-2.506000518798828e-05, 5.818359375) (-2.599219512939453e-05, 5.8203125) (-2.6931041717529296e-05, 5.822265625) (-2.7872882843017577e-05, 5.82421875) (-2.881393814086914e-05, 5.826171875) (-2.975037384033203e-05, 5.828125) (-3.067828369140625e-05, 5.830078125) (-3.159363555908203e-05, 5.83203125) (-3.249224853515625e-05, 5.833984375) (-3.336975860595703e-05, 5.8359375) (-3.4221778869628904e-05, 5.837890625) (-3.504410552978515e-05, 5.83984375) (-3.583268356323242e-05, 5.841796875) (-3.6583629608154294e-05, 5.84375) (-3.729328155517578e-05, 5.845703125) (-3.7958175659179685e-05, 5.84765625) (-3.85752944946289e-05, 5.849609375) (-3.9142051696777344e-05, 5.8515625) (-3.965614318847656e-05, 5.853515625) (-4.011554718017578e-05, 5.85546875) (-4.051849746704101e-05, 5.857421875) (-4.086353302001953e-05, 5.859375) (-4.114963912963867e-05, 5.861328125) (-4.137638473510742e-05, 5.86328125) (-4.154359436035156e-05, 5.865234375) (-4.165151977539062e-05, 5.8671875) (-4.170093917846679e-05, 5.869140625) (-4.169302368164062e-05, 5.87109375) (-4.162961959838867e-05, 5.873046875) (-4.1513153076171876e-05, 5.875) (-4.134642791748047e-05, 5.876953125) (-4.1132457733154296e-05, 5.87890625) (-4.0874450683593745e-05, 5.880859375) (-4.0575702667236324e-05, 5.8828125) (-4.023971557617187e-05, 5.884765625) (-3.9870445251464844e-05, 5.88671875) (-3.947202682495117e-05, 5.888671875) (-3.9048583984375e-05, 5.890625) (-3.8604267120361324e-05, 5.892578125) (-3.8143547058105464e-05, 5.89453125) (-3.7671588897705075e-05, 5.896484375) (-3.7194335937499996e-05, 5.8984375) (-3.6718406677246095e-05, 5.900390625) (-3.62502326965332e-05, 5.90234375) (-3.579603576660156e-05, 5.904296875) (-3.5362125396728514e-05, 5.90625) (-3.495480346679688e-05, 5.908203125) (-3.4580017089843745e-05, 5.91015625) (-3.424293518066406e-05, 5.912109375) (-3.394752502441406e-05, 5.9140625) (-3.3696483612060545e-05, 5.916015625) (-3.349239730834961e-05, 5.91796875) (-3.333812713623047e-05, 5.919921875) (-3.3236705780029294e-05, 5.921875) (-3.319167709350586e-05, 5.923828125) (-3.3206642150878906e-05, 5.92578125) (-3.328505706787109e-05, 5.927734375) (-3.3430377960205075e-05, 5.9296875) (-3.3645233154296875e-05, 5.931640625) (-3.3931171417236326e-05, 5.93359375) (-3.428920364379883e-05, 5.935546875) (-3.4718387603759766e-05, 5.9375) (-3.521620941162109e-05, 5.939453125) (-3.578116226196289e-05, 5.94140625) (-3.641141891479492e-05, 5.943359375) (-3.710737991333008e-05, 5.9453125) (-3.787439727783203e-05, 5.947265625) (-3.871727752685547e-05, 5.94921875) (-3.963860702514648e-05, 5.951171875) (-4.064035415649414e-05, 5.953125) (-4.1719596862792966e-05, 5.955078125) (-4.286721420288086e-05, 5.95703125) (-4.407316589355469e-05, 5.958984375) (-4.5321739196777345e-05, 5.9609375) (-4.659230804443359e-05, 5.962890625) (-4.786748886108398e-05, 5.96484375) (-4.91275520324707e-05, 5.966796875) (-5.0354923248291016e-05, 5.96875) (-5.1537353515624995e-05, 5.970703125) (-5.266210556030273e-05, 5.97265625) (-5.372138977050781e-05, 5.974609375) (-5.470760345458984e-05, 5.9765625) (-5.5604469299316406e-05, 5.978515625) (-5.639430236816406e-05, 5.98046875) (-5.706656646728515e-05, 5.982421875) (-5.761415100097656e-05, 5.984375) (-5.8045341491699214e-05, 5.986328125) (-5.8388134002685546e-05, 5.98828125) (-5.8668663024902343e-05, 5.990234375) (-5.892387390136718e-05, 5.9921875) (-5.918896484375e-05, 5.994140625) (-5.948553085327148e-05, 5.99609375) (-5.985355377197265e-05, 5.998046875) (-6.033659744262695e-05, 6.0) (-6.098115539550781e-05, 6.001953125) (-6.184111022949218e-05, 6.00390625) (-6.293461227416991e-05, 6.005859375) (-6.425463104248046e-05, 6.0078125) (-6.585428619384766e-05, 6.009765625) (-6.781411743164062e-05, 6.01171875) (-7.013941955566406e-05, 6.013671875) (-7.278199005126953e-05, 6.015625) (-7.556852722167969e-05, 6.017578125) (-7.818531799316407e-05, 6.01953125) (-8.040933227539061e-05, 6.021484375) (-8.211563873291015e-05, 6.0234375) (-8.306904602050781e-05, 6.025390625) (-8.303761291503906e-05, 6.02734375) (-8.211102294921875e-05, 6.029296875) (-8.044844818115235e-05, 6.03125) (-7.835308837890624e-05, 6.033203125) (-7.665069580078124e-05, 6.03515625) (-7.530612182617187e-05, 6.037109375) (-7.407461547851562e-05, 6.0390625) (-7.395152282714843e-05, 6.041015625) (-7.5047607421875e-05, 6.04296875) (-7.844545745849609e-05, 6.044921875) (-8.529936218261719e-05, 6.046875) (-9.260549163818359e-05, 6.048828125) (-9.762044525146484e-05, 6.05078125) (-9.656802368164062e-05, 6.052734375) (-8.520205688476562e-05, 6.0546875) (-6.528212738037109e-05, 6.056640625) (-3.94919319152832e-05, 6.05859375) (-1.137298011779785e-05, 6.060546875) (1.4815824508666992e-05, 6.0625) (3.99729995727539e-05, 6.064453125) (6.655715942382812e-05, 6.06640625) (9.624801635742188e-05, 6.068359375) (0.00012874154663085937, 6.0703125) (0.00015871078491210938, 6.072265625) (0.00017797314453125, 6.07421875) (0.0001801715087890625, 6.076171875) (0.00016295025634765624, 6.078125) (0.00012913586425781248, 6.080078125) (8.56319808959961e-05, 6.08203125) (3.8333526611328126e-05, 6.083984375) (-7.081899642944336e-06, 6.0859375) (-4.587325286865234e-05, 6.087890625) (-7.586564636230468e-05, 6.08984375) (-9.354261779785155e-05, 6.091796875) (-9.903936004638672e-05, 6.09375) (-9.635794067382812e-05, 6.095703125) (-8.836579895019531e-05, 6.09765625) (-7.980632019042969e-05, 6.099609375) (-7.290623474121094e-05, 6.1015625) (-6.604712677001953e-05, 6.103515625) (-5.9290309906005856e-05, 6.10546875) (-5.244303131103515e-05, 6.107421875) (-4.5689437866210937e-05, 6.109375) (-4.0932079315185544e-05, 6.111328125) (-3.878488159179687e-05, 6.11328125) (-3.878205108642578e-05, 6.115234375) (-4.046354675292968e-05, 6.1171875) (-4.2879478454589845e-05, 6.119140625) (-4.5092514038085936e-05, 6.12109375) (-4.6812240600585935e-05, 6.123046875) (-4.789896011352539e-05, 6.125) (-4.821398544311523e-05, 6.126953125) (-4.789226531982422e-05, 6.12890625) (-4.7145111083984374e-05, 6.130859375) (-4.614470672607422e-05, 6.1328125) (-4.517481994628906e-05, 6.134765625) (-4.455290222167969e-05, 6.13671875) (-4.440699768066406e-05, 6.138671875) (-4.4779830932617187e-05, 6.140625) (-4.568037033081054e-05, 6.142578125) (-4.7014911651611326e-05, 6.14453125) (-4.8703304290771485e-05, 6.146484375) (-5.068581771850586e-05, 6.1484375) (-5.285621643066406e-05, 6.150390625) (-5.509938049316406e-05, 6.15234375) (-5.7330947875976557e-05, 6.154296875) (-5.949533462524414e-05, 6.15625) (-6.156755828857421e-05, 6.158203125) (-6.354399871826172e-05, 6.16015625) (-6.540795135498046e-05, 6.162109375) (-6.713465881347656e-05, 6.1640625) (-6.870652770996094e-05, 6.166015625) (-7.01147003173828e-05, 6.16796875) (-7.136201477050781e-05, 6.169921875) (-7.245097351074218e-05, 6.171875) (-7.337963867187499e-05, 6.173828125) (-7.414652252197265e-05, 6.17578125) (-7.475385284423827e-05, 6.177734375) (-7.521370697021485e-05, 6.1796875) (-7.554469299316405e-05, 6.181640625) (-7.576778411865234e-05, 6.18359375) (-7.590470886230468e-05, 6.185546875) (-7.597000122070312e-05, 6.1875) (-7.597225952148438e-05, 6.189453125) (-7.591938781738281e-05, 6.19140625) (-7.581735229492187e-05, 6.193359375) (-7.56697998046875e-05, 6.1953125) (-7.547914123535155e-05, 6.197265625) (-7.52435302734375e-05, 6.19921875) (-7.49571533203125e-05, 6.201171875) (-7.46173858642578e-05, 6.203125) (-7.422382354736328e-05, 6.205078125) (-7.377599334716797e-05, 6.20703125) (-7.327445220947266e-05, 6.208984375) (-7.271763610839843e-05, 6.2109375) (-7.210234069824218e-05, 6.212890625) (-7.142582702636719e-05, 6.21484375) (-7.068491363525391e-05, 6.216796875) (-6.987691497802734e-05, 6.21875) (-6.90002212524414e-05, 6.220703125) (-6.805340576171875e-05, 6.22265625) (-6.703580474853516e-05, 6.224609375) (-6.5947998046875e-05, 6.2265625) (-6.479097747802735e-05, 6.228515625) (-6.356669998168945e-05, 6.23046875) (-6.227832412719727e-05, 6.232421875) (-6.0928253173828124e-05, 6.234375) (-5.951823043823242e-05, 6.236328125) (-5.8049961090087885e-05, 6.23828125) (-5.652435302734375e-05, 6.240234375) (-5.4942237854003905e-05, 6.2421875) (-5.330476379394531e-05, 6.244140625) (-5.1612659454345704e-05, 6.24609375) (-4.986647033691406e-05, 6.248046875) (-4.8067138671875e-05, 6.25) (-4.621576690673828e-05, 6.251953125) (-4.431357574462891e-05, 6.25390625) (-4.236213684082031e-05, 6.255859375) (-4.0362964630126954e-05, 6.2578125) (-3.831745910644531e-05, 6.259765625) (-3.622714614868164e-05, 6.26171875) (-3.409340286254883e-05, 6.263671875) (-3.1917552947998044e-05, 6.265625) (-2.9701002120971678e-05, 6.267578125) (-2.7445262908935547e-05, 6.26953125) (-2.5151983261108398e-05, 6.271484375) (-2.282301902770996e-05, 6.2734375) (-2.046040344238281e-05, 6.275390625) (-1.8066396713256835e-05, 6.27734375) (-1.5643714904785157e-05, 6.279296875) (-1.3195459365844726e-05, 6.28125) (-1.0725027084350585e-05, 6.283203125) (-8.23604679107666e-06, 6.28515625) (-5.732249736785888e-06, 6.287109375) (-3.2175378799438475e-06, 6.2890625) (-6.96058988571167e-07, 6.291015625) (1.827847957611084e-06, 6.29296875) (4.349721908569336e-06, 6.294921875) (6.8649444580078124e-06, 6.296875) (9.36870002746582e-06, 6.298828125) (1.185594367980957e-05, 6.30078125) (1.432129669189453e-05, 6.302734375) (1.675908660888672e-05, 6.3046875) (1.9163423538208007e-05, 6.306640625) (2.152820587158203e-05, 6.30859375) (2.3847177505493164e-05, 6.310546875) (2.6114059448242188e-05, 6.3125) (2.8322521209716795e-05, 6.314453125) (3.0466178894042967e-05, 6.31640625) (3.25386734008789e-05, 6.318359375) (3.4533630371093746e-05, 6.3203125) (3.6444652557373045e-05, 6.322265625) (3.826533508300781e-05, 6.32421875) (3.9989215850830075e-05, 6.326171875) (4.160974884033203e-05, 6.328125) (4.3120399475097655e-05, 6.330078125) (4.4514774322509765e-05, 6.33203125) (4.5786674499511716e-05, 6.333984375) (4.693012237548828e-05, 6.3359375) (4.793944931030273e-05, 6.337890625) (4.880930709838867e-05, 6.33984375) (4.953475189208984e-05, 6.341796875) (5.011133575439453e-05, 6.34375) (5.0534976959228517e-05, 6.345703125) (5.0801879882812495e-05, 6.34765625) (5.09085693359375e-05, 6.349609375) (5.085189056396484e-05, 6.3515625) (5.0629020690917966e-05, 6.353515625) (5.0237495422363277e-05, 6.35546875) (4.9675182342529294e-05, 6.357421875) (4.894026184082031e-05, 6.359375) (4.80313835144043e-05, 6.361328125) (4.6947765350341794e-05, 6.36328125) (4.5689208984375e-05, 6.365234375) (4.425608825683593e-05, 6.3671875) (4.264931869506836e-05, 