(5.025337219238281e-06, 0.0) (5.8470458984375e-06, 0.001953125) (6.724569797515869e-06, 0.00390625) (7.660974025726317e-06, 0.005859375) (8.659135818481444e-06, 0.0078125) (9.721729278564452e-06, 0.009765625) (1.0851200103759764e-05, 0.01171875) (1.2049755096435546e-05, 0.013671875) (1.3319360733032227e-05, 0.015625) (1.4661739349365233e-05, 0.017578125) (1.6078348159790038e-05, 0.01953125) (1.7570323944091796e-05, 0.021484375) (1.9138416290283202e-05, 0.0234375) (2.0782955169677732e-05, 0.025390625) (2.2503824234008788e-05, 0.02734375) (2.4300422668457032e-05, 0.029296875) (2.617165184020996e-05, 0.03125) (2.8115810394287108e-05, 0.033203125) (3.0130569458007812e-05, 0.03515625) (3.2212894439697264e-05, 0.037109375) (3.435905456542968e-05, 0.0390625) (3.6564586639404295e-05, 0.041015625) (3.882429504394531e-05, 0.04296875) (4.113218307495117e-05, 0.044921875) (4.348143768310547e-05, 0.046875) (4.5864486694335935e-05, 0.048828125) (4.827298736572265e-05, 0.05078125) (5.069795227050781e-05, 0.052734375) (5.3129745483398434e-05, 0.0546875) (5.555814361572265e-05, 0.056640625) (5.79723892211914e-05, 0.05859375) (6.036125183105469e-05, 0.060546875) (6.271308898925781e-05, 0.0625) (6.501594543457031e-05, 0.064453125) (6.725757598876953e-05, 0.06640625) (6.942544555664062e-05, 0.068359375) (7.150676727294921e-05, 0.0703125) (7.348852539062499e-05, 0.072265625) (7.535757446289062e-05, 0.07421875) (7.710067749023437e-05, 0.076171875) (7.870462036132813e-05, 0.078125) (8.01562042236328e-05, 0.080078125) (8.144229888916015e-05, 0.08203125) (8.255001068115233e-05, 0.083984375) (8.346674346923827e-05, 0.0859375) (8.418033599853516e-05, 0.087890625) (8.467909240722656e-05, 0.08984375) (8.495187377929688e-05, 0.091796875) (8.498815917968749e-05, 0.09375) (8.477816772460937e-05, 0.095703125) (8.431297302246093e-05, 0.09765625) (8.358463287353516e-05, 0.099609375) (8.258623504638672e-05, 0.1015625) (8.131199645996094e-05, 0.103515625) (7.975733947753906e-05, 0.10546875) (7.791895294189452e-05, 0.107421875) (7.579494476318359e-05, 0.109375) (7.338484191894531e-05, 0.111328125) (7.068960571289062e-05, 0.11328125) (6.771158599853515e-05, 0.115234375) (6.445449829101562e-05, 0.1171875) (6.092343139648437e-05, 0.119140625) (5.7124824523925776e-05, 0.12109375) (5.306643676757812e-05, 0.123046875) (4.875724411010742e-05, 0.125) (4.420742797851562e-05, 0.126953125) (3.942829132080078e-05, 0.12890625) (3.443229293823242e-05, 0.130859375) (2.923300743103027e-05, 0.1328125) (2.3845111846923826e-05, 0.134765625) (1.8284250259399412e-05, 0.13671875) (1.2566946029663086e-05, 0.138671875) (6.710545063018798e-06, 0.140625) (7.331523895263671e-07, 0.142578125) (-5.3464641571044915e-06, 0.14453125) (-1.1508977890014648e-05, 0.146484375) (-1.7734657287597654e-05, 0.1484375) (-2.400350570678711e-05, 0.150390625) (-3.02952823638916e-05, 0.15234375) (-3.6589576721191404e-05, 0.154296875) (-4.2865936279296874e-05, 0.15625) (-4.910396575927734e-05, 0.158203125) (-5.528350448608398e-05, 0.16015625) (-6.138479232788086e-05, 0.162109375) (-6.738857269287108e-05, 0.1640625) (-7.327619934082031e-05, 0.166015625) (-7.902983093261718e-05, 0.16796875) (-8.463247680664062e-05, 0.169921875) (-9.00682144165039e-05, 0.171875) (-9.532225036621094e-05, 0.173828125) (-0.00010038101196289063, 0.17578125) (-0.00010523208618164063, 0.177734375) (-0.00010986427307128905, 0.1796875) (-0.00011426757812499999, 0.181640625) (-0.00011843331909179687, 0.18359375) (-0.00012235411071777344, 0.185546875) (-0.00012602381134033203, 0.1875) (-0.00012943753051757812, 0.189453125) (-0.00013259164428710936, 0.19140625) (-0.00013548370361328124, 0.193359375) (-0.0001381126708984375, 0.1953125) (-0.00014047879028320311, 0.197265625) (-0.00014258340454101562, 0.19921875) (-0.00014442897033691406, 0.201171875) (-0.0001460189666748047, 0.203125) (-0.00014735791015625, 0.205078125) (-0.00014845126342773437, 0.20703125) (-0.00014930538940429686, 0.208984375) (-0.0001499272918701172, 0.2109375) (-0.00015032469177246092, 0.212890625) (-0.00015050596618652344, 0.21484375) (-0.00015048028564453123, 0.216796875) (-0.0001502574768066406, 0.21875) (-0.00014984788513183593, 0.220703125) (-0.00014926225280761717, 0.22265625) (-0.00014851165771484373, 0.224609375) (-0.00014760723876953123, 0.2265625) (-0.00014656028747558593, 0.228515625) (-0.0001453821105957031, 0.23046875) (-0.000144083740234375, 0.232421875) (-0.00014267591857910155, 0.234375) (-0.0001411690216064453, 0.236328125) (-0.00013957302856445312, 0.23828125) (-0.00013789752197265623, 0.240234375) (-0.00013615171813964843, 0.2421875) (-0.00013434466552734374, 0.244140625) (-0.0001324847412109375, 0.24609375) (-0.00013057975769042968, 0.248046875) (-0.00012863720703125, 0.25) (-0.00012666400146484375, 0.251953125) (-0.00012466668701171876, 0.25390625) (-0.00012265133666992188, 0.255859375) (-0.00012062345886230468, 0.2578125) (-0.000118587890625, 0.259765625) (-0.00011654940795898437, 0.26171875) (-0.00011451260375976562, 0.263671875) (-0.00011248185729980468, 0.265625) (-0.00011046134948730468, 0.267578125) (-0.0001084552001953125, 0.26953125) (-0.00010646757507324218, 0.271484375) (-0.00010450291442871093, 0.2734375) (-0.00010256597900390624, 0.275390625) (-0.00010066123962402343, 0.27734375) (-9.8792724609375e-05, 0.279296875) (-9.696438598632812e-05, 0.28125) (-9.518028259277343e-05, 0.283203125) (-9.344401550292968e-05, 0.28515625) (-9.175890350341797e-05, 0.287109375) (-9.012775421142578e-05, 0.2890625) (-8.855252075195312e-05, 0.291015625) (-8.703544616699218e-05, 0.29296875) (-8.55794219970703e-05, 0.294921875) (-8.418724822998046e-05, 0.296875) (-8.286190795898437e-05, 0.298828125) (-8.160656738281249e-05, 0.30078125) (-8.042403411865234e-05, 0.302734375) (-7.931748962402344e-05, 0.3046875) (-7.82904052734375e-05, 0.306640625) (-7.734548187255859e-05, 0.30859375) (-7.648482513427735e-05, 0.310546875) (-7.570846557617187e-05, 0.3125) (-7.501386260986328e-05, 0.314453125) (-7.439942932128905e-05, 0.31640625) (-7.386386871337891e-05, 0.318359375) (-7.340682983398437e-05, 0.3203125) (-7.30308609008789e-05, 0.322265625) (-7.273491668701171e-05, 0.32421875) (-7.251305389404297e-05, 0.326171875) (-7.236000061035156e-05, 0.328125) (-7.226870727539062e-05, 0.330078125) (-7.222669982910155e-05, 0.33203125) (-7.221926879882812e-05, 0.333984375) (-7.222254180908203e-05, 0.3359375) (-7.220146179199219e-05, 0.337890625) (-7.212503814697266e-05, 0.33984375) (-7.196469116210937e-05, 0.341796875) (-7.169424438476562e-05, 0.34375) (-7.129557800292969e-05, 0.345703125) (-7.07457275390625e-05, 0.34765625) (-7.001792907714843e-05, 0.349609375) (-6.90869140625e-05, 0.3515625) (-6.792172241210937e-05, 0.353515625) (-6.649710083007812e-05, 0.35546875) (-6.479834747314454e-05, 0.357421875) (-6.280566024780273e-05, 0.359375) (-6.0502414703369136e-05, 0.361328125) (-5.789023971557617e-05, 0.36328125) (-5.497798156738281e-05, 0.365234375) (-5.180274963378906e-05, 0.3671875) (-4.843923187255859e-05, 0.369140625) (-4.495032119750977e-05, 0.37109375) (-4.139559936523437e-05, 0.373046875) (-3.783197784423828e-05, 0.375) (-3.4288681030273436e-05, 0.376953125) (-3.081527519226074e-05, 0.37890625) (-2.74818058013916e-05, 0.380859375) (-2.4345909118652343e-05, 0.3828125) (-2.1475770950317383e-05, 0.384765625) (-1.8929710388183592e-05, 0.38671875) (-1.6727239608764647e-05, 0.388671875) (-1.4930006980895995e-05, 0.390625) (-1.3629336357116699e-05, 0.392578125) (-1.2817032814025878e-05, 0.39453125) (-1.241968536376953e-05, 0.396484375) (-1.2237632751464843e-05, 0.3984375) (-1.1900959968566894e-05, 0.400390625) (-1.1110304832458495e-05, 0.40234375) (-9.646489143371581e-06, 0.404296875) (-7.211891174316406e-06, 0.40625) (-3.5005199909210205e-06, 0.408203125) (1.7064368724822997e-06, 0.41015625) (8.542205810546874e-06, 0.412109375) (1.677017593383789e-05, 0.4140625) (2.5822221755981444e-05, 0.416015625) (3.528230285644531e-05, 0.41796875) (4.48333625793457e-05, 0.419921875) (5.419794082641601e-05, 0.421875) (6.315291595458984e-05, 0.423828125) (7.140371704101563e-05, 0.42578125) (7.88235855102539e-05, 0.427734375) (8.597460937499999e-05, 0.4296875) (9.391901397705078e-05, 0.431640625) (0.0001036974639892578, 0.43359375) (0.00011641419982910156, 0.435546875) (0.00013296897888183593, 0.4375) (0.00015422538757324218, 0.439453125) (0.00018142477416992187, 0.44140625) (0.00021550457763671875, 0.443359375) (0.00025645590209960936, 0.4453125) (0.000303523193359375, 0.447265625) (0.00035538079833984375, 0.44921875) (0.0004100477600097656, 0.451171875) (0.00046539279174804686, 0.453125) (0.0005187412109375, 0.455078125) (0.0005663207397460937, 0.45703125) (0.00060425390625, 0.458984375) (0.0006291840820312499, 0.4609375) (0.000638304443359375, 0.462890625) (0.0006296705322265624, 0.46484375) (0.0006023536376953125, 0.466796875) (0.0005561604003906249, 0.46875) (0.0004922225646972656, 0.470703125) (0.0004135674438476562, 0.47265625) (0.0003243048400878906, 0.474609375) (0.00022907977294921874, 0.4765625) (0.00013283938598632813, 0.478515625) (4.049372863769531e-05, 0.48046875) (-4.335404205322265e-05, 0.482421875) (-0.00011459127807617187, 0.484375) (-0.0001701773986816406, 0.486328125) (-0.00020881881713867188, 0.48828125) (-0.00023062591552734375, 0.490234375) (-0.00023655322265625, 0.4921875) (-0.00022831414794921874, 0.494140625) (-0.00020853881835937498, 0.49609375) (-0.000180438720703125, 0.498046875) (-0.00014747303771972656, 0.5) (-0.00011304350280761718, 0.501953125) (-7.964207458496094e-05, 0.50390625) (-4.8957599639892576e-05, 0.505859375) (-2.2540660858154296e-05, 0.5078125) (-1.4747390747070312e-06, 0.509765625) (1.4134422302246094e-05, 0.51171875) (2.4808795928955075e-05, 0.513671875) (3.159469223022461e-05, 0.515625) (3.598208618164062e-05, 0.517578125) (3.9043216705322265e-05, 0.51953125) (4.1609489440917964e-05, 0.521484375) (4.4864982604980464e-05, 0.5234375) (4.974390411376953e-05, 0.525390625) (5.655532073974609e-05, 0.52734375) (6.52732925415039e-05, 0.529296875) (7.540605163574218e-05, 0.53125) (8.610838317871094e-05, 0.533203125) (9.678665924072266e-05, 0.53515625) (0.000106857666015625, 0.537109375) (0.00011547535705566406, 0.5390625) (0.00012203370666503906, 0.541015625) (0.00012624035644531249, 0.54296875) (0.0001279831771850586, 0.544921875) (0.000127488899230957, 0.546875) (0.00012514283752441407, 0.548828125) (0.0001212317886352539, 0.55078125) (0.00011611342620849609, 0.552734375) (0.00011022106170654297, 0.5546875) (0.0001038553466796875, 0.556640625) (9.72642364501953e-05, 0.55859375) (9.06439208984375e-05, 0.560546875) (8.406646728515625e-05, 0.5625) (7.759957885742188e-05, 0.564453125) (7.133621215820312e-05, 0.56640625) (6.533219909667968e-05, 0.568359375) (5.965177917480468e-05, 0.5703125) (5.4385604858398436e-05, 0.572265625) (4.958381652832031e-05, 0.57421875) (4.527678680419922e-05, 0.576171875) (4.148074340820312e-05, 0.578125) (3.8167900085449217e-05, 0.580078125) (3.5301170349121094e-05, 0.58203125) (3.283908462524414e-05, 0.583984375) (3.073147964477539e-05, 0.5859375) (2.8930473327636718e-05, 0.587890625) (2.7382261276245115e-05, 0.58984375) (2.6030181884765624e-05, 0.591796875) (2.4828725814819336e-05, 0.59375) (2.3739152908325193e-05, 0.595703125) (2.2718715667724608e-05, 0.59765625) (2.172536277770996e-05, 0.599609375) (2.070185089111328e-05, 0.6015625) (1.958152961730957e-05, 0.603515625) (1.8327709197998046e-05, 0.60546875) (1.6924827575683593e-05, 0.607421875) (1.5371042251586912e-05, 0.609375) (1.3681870460510253e-05, 0.611328125) (1.1872466087341308e-05, 0.61328125) (9.959043502807617e-06, 0.615234375) (7.969544887542724e-06, 0.6171875) (5.936940670013427e-06, 0.619140625) (3.8900210857391355e-06, 0.62109375) (1.8550567626953125e-06, 0.623046875) (-1.4901560544967652e-07, 0.625) (-2.109117031097412e-06, 0.626953125) (-4.00520896911621e-06, 0.62890625) (-5.81431770324707e-06, 0.630859375) (-7.509363651275635e-06, 0.6328125) (-9.05913734436035e-06, 0.634765625) (-1.0444318771362304e-05, 0.63671875) (-1.1655139923095703e-05, 0.638671875) (-1.2685133934020995e-05, 0.640625) (-1.3533894538879394e-05, 0.642578125) (-1.4203701019287108e-05, 0.64453125) (-1.4698282241821288e-05, 0.646484375) (-1.5028802871704101e-05, 0.6484375) (-1.5211650848388671e-05, 0.650390625) (-1.5259496688842772e-05, 0.65234375) (-1.5183195114135742e-05, 0.654296875) (-1.4992334365844726e-05, 0.65625) (-1.4694334030151367e-05, 0.658203125) (-1.4300148963928222e-05, 0.66015625) (-1.3823379516601562e-05, 0.662109375) (-1.327769660949707e-05, 0.6640625) (-1.2677843093872069e-05, 0.666015625) (-1.2038036346435546e-05, 0.66796875) (-1.1371486663818358e-05, 0.669921875) (-1.0691997528076171e-05, 0.671875) (-1.001346206665039e-05, 0.673828125) (-9.348635673522949e-06, 0.67578125) (-8.709732055664063e-06, 0.677734375) (-8.107778549194335e-06, 0.6796875) (-7.5524263381958005e-06, 0.681640625) (-7.054330348968506e-06, 0.68359375) (-6.624882698059082e-06, 0.685546875) (-6.275236129760742e-06, 0.6875) (-6.016666889190674e-06, 0.689453125) (-5.859850406646729e-06, 0.69140625) (-5.814547538757324e-06, 0.693359375) (-5.8904209136962885e-06, 0.6953125) (-6.096824169158935e-06, 0.697265625) (-6.441773891448974e-06, 0.69921875) (-6.93217658996582e-06, 0.701171875) (-7.574001789093017e-06, 0.703125) (-8.372045516967772e-06, 0.705078125) (-9.330453872680664e-06, 0.70703125) (-1.045276927947998e-05, 0.708984375) (-1.1741434097290039e-05, 0.7109375) (-1.3198009490966796e-05, 0.712890625) (-1.4823423385620117e-05, 0.71484375) (-1.6617729187011716e-05, 0.716796875) (-1.8580169677734375e-05, 0.71875) (-2.0709211349487303e-05, 0.720703125) (-2.300232124328613e-05, 0.72265625) (-2.5456008911132813e-05, 0.724609375) (-2.8066022872924802e-05, 0.7265625) (-3.082721710205078e-05, 0.728515625) (-3.373356628417969e-05, 0.73046875) (-3.677828979492187e-05, 0.732421875) (-3.9953853607177735e-05, 0.734375) (-4.325200271606445e-05, 0.736328125) (-4.6663986206054684e-05, 0.73828125) (-5.018046951293945e-05, 0.740234375) (-5.379163742065429e-05, 0.7421875) (-5.748727416992187e-05, 0.744140625) (-6.12567138671875e-05, 0.74609375) (-6.508891296386718e-05, 0.748046875) (-6.897257995605469e-05, 0.75) (-7.289618682861328e-05, 0.751953125) (-7.684799194335937e-05, 0.75390625) (-8.0816162109375e-05, 0.755859375) (-8.478878784179688e-05, 0.7578125) (-8.875389099121093e-05, 0.759765625) (-9.269975280761719e-05, 0.76171875) (-9.661476135253906e-05, 0.763671875) (-0.00010048751831054687, 0.765625) (-0.00010430681610107421, 0.767578125) (-0.00010806165313720703, 0.76953125) (-0.00011174119567871093, 0.771484375) (-0.00011533484649658202, 0.7734375) (-0.00011883238220214843, 0.775390625) (-0.0001222236862182617, 0.77734375) (-0.00012549903869628906, 0.779296875) (-0.0001286491241455078, 0.78125) (-0.0001316649475097656, 0.783203125) (-0.00013453811645507813, 0.78515625) (-0.00013726066589355468, 0.787109375) (-0.00013982525634765623, 0.7890625) (-0.0001422251281738281, 0.791015625) (-0.00014445413208007813, 0.79296875) (-0.0001465067138671875, 0.794921875) (-0.00014837794494628907, 0.796875) (-0.00015006343078613282, 0.798828125) (-0.00015155944824218748, 0.80078125) (-0.00015286279296875, 0.802734375) (-0.0001539709014892578, 0.8046875) (-0.00015488172912597655, 0.806640625) (-0.00015559373474121092, 0.80859375) (-0.00015610585021972654, 0.810546875) (-0.00015641744995117187, 0.8125) (-0.00015652832031249998, 0.814453125) (-0.00015643862915039062, 0.81640625) (-0.00015614881896972656, 0.818359375) (-0.00015565959167480469, 0.8203125) (-0.00015497189331054688, 0.822265625) (-0.00015408682250976562, 0.82421875) (-0.00015300578308105467, 0.826171875) (-0.00015173031616210936, 0.828125) (-0.00015026217651367186, 0.830078125) (-0.00014860333251953125, 0.83203125) (-0.00014675592041015625, 0.833984375) (-0.0001447222900390625, 0.8359375) (-0.000142505126953125, 0.837890625) (-0.00014010726928710937, 0.83984375) (-0.00013753179931640623, 0.841796875) (-0.00013478201293945312, 0.84375) (-0.0001318613586425781, 0.845703125) (-0.00012877352905273437, 0.84765625) (-0.00012552245330810547, 0.849609375) (-0.00012211219024658204, 0.8515625) (-0.00011854691314697265, 0.853515625) (-0.00011483088684082031, 0.85546875) (-0.00011096842956542968, 0.857421875) (-0.00010696403503417969, 0.859375) (-0.00010282227325439452, 0.861328125) (-9.854785919189453e-05, 0.86328125) (-9.414553833007812e-05, 0.865234375) (-8.962020111083984e-05, 0.8671875) (-8.497689056396484e-05, 0.869140625) (-8.022088623046875e-05, 0.87109375) (-7.535774993896484e-05, 0.873046875) (-7.039333343505859e-05, 0.875) (-6.533375549316406e-05, 0.876953125) (-6.018547821044921e-05, 0.87890625) (-5.4955322265625e-05, 0.880859375) (-4.965055084228516e-05, 0.8828125) (-4.427894592285156e-05, 0.884765625) (-3.884867477416992e-05, 0.88671875) (-3.3368316650390624e-05, 0.888671875) (-2.784689903259277e-05, 0.890625) (-2.2293825149536133e-05, 0.892578125) (-1.6718921661376953e-05, 0.89453125) (-1.1132462501525879e-05, 0.896484375) (-5.5448789596557615e-06, 0.8984375) (3.3309221267700195e-08, 0.900390625) (5.591460704803466e-06, 0.90234375) (1.1118894577026367e-05, 0.904296875) (1.6604969024658203e-05, 0.90625) (2.203911209106445e-05, 0.908203125) (2.7411001205444336e-05, 0.91015625) (3.2710659027099606e-05, 0.912109375) (3.7928215026855466e-05, 0.9140625) (4.3053905487060545e-05, 0.916015625) (4.807813262939453e-05, 0.91796875) (5.299142456054687e-05, 0.919921875) (5.7784618377685545e-05, 0.921875) (6.244886779785156e-05, 0.923828125) (6.697559356689453e-05, 0.92578125) (7.135651397705078e-05, 0.927734375) (7.558379364013672e-05, 0.9296875) (7.965003204345702e-05, 0.931640625) (8.35484619140625e-05, 0.93359375) (8.727293395996094e-05, 0.935546875) (9.081790161132813e-05, 0.9375) (9.417841339111327e-05, 0.939453125) (9.735018920898437e-05, 0.94140625) (0.00010032955932617187, 0.943359375) (0.00010311370849609374, 0.9453125) (0.00010570088195800781, 0.947265625) (0.00010809007263183593, 0.94921875) (0.00011028110504150391, 0.951171875) (0.00011227492523193359, 0.953125) (0.00011407328033447265, 0.955078125) (0.00011567884063720702, 0.95703125) (0.00011709538269042968, 0.958984375) (0.0001183271026611328, 0.9609375) (0.00011937844848632812, 0.962890625) (0.00012025440979003905, 0.96484375) (0.00012096035003662109, 0.966796875) (0.00012150149536132812, 0.96875) (0.00012188324737548827, 0.970703125) (0.0001221106719970703, 0.97265625) (0.00012218829345703123, 0.974609375) (0.00012212113952636718, 0.9765625) (0.0001219146270751953, 0.978515625) (0.00012157399749755859, 0.98046875) (0.00012110450744628906, 0.982421875) (0.00012051139831542968, 0.984375) (0.00011980001831054687, 0.986328125) (0.00011897644042968749, 0.98828125) (0.00011804725646972656, 0.990234375) (0.00011701833343505859, 0.9921875) (0.00011589501953124999, 0.994140625) (0.0001146820831298828, 0.99609375) (0.00011338394927978514, 0.998046875) (0.00011200579071044922, 1.0) (0.00011055262756347656, 1.001953125) (0.0001090287628173828, 1.00390625) (0.00010743817138671875, 1.005859375) (0.00010578436279296875, 1.0078125) (0.00010407069396972656, 1.009765625) (0.00010230273437499999, 1.01171875) (0.00010048797607421874, 1.013671875) (9.86320343017578e-05, 1.015625) (9.673994445800781e-05, 1.017578125) (9.481456756591796e-05, 1.01953125) (9.285607910156249e-05, 1.021484375) (9.086851501464844e-05, 1.0234375) (8.885982513427734e-05, 1.025390625) (8.683826446533202e-05, 1.02734375) (8.481190490722656e-05, 1.029296875) (8.279100799560547e-05, 1.03125) (8.078877258300781e-05, 1.033203125) (7.882556915283203e-05, 1.03515625) (7.69311065673828e-05, 1.037109375) (7.513456726074218e-05, 1.0390625) (7.346147155761718e-05, 1.041015625) (7.193222045898438e-05, 1.04296875) (7.05615234375e-05, 1.044921875) (6.936712646484375e-05, 1.046875) (6.83694610595703e-05, 1.048828125) (6.759083557128906e-05, 1.05078125) (6.705448150634765e-05, 1.052734375) (6.677737426757813e-05, 1.0546875) (6.676909637451172e-05, 1.056640625) (6.703965759277344e-05, 1.05859375) (6.76031494140625e-05, 1.060546875) (6.846368408203124e-05, 1.0625) (6.961370086669922e-05, 1.064453125) (7.102776336669922e-05, 1.06640625) (7.264995574951172e-05, 1.068359375) (7.441795349121093e-05, 1.0703125) (7.62795181274414e-05, 1.072265625) (7.818463134765625e-05, 1.07421875) (8.009490966796874e-05, 1.076171875) (8.19821548461914e-05, 1.078125) (8.37998046875e-05, 1.080078125) (8.549154663085938e-05, 1.08203125) (8.700957489013671e-05, 1.083984375) (8.83006362915039e-05, 1.0859375) (8.932559204101562e-05, 1.087890625) (9.006832122802734e-05, 1.08984375) (9.047030639648438e-05, 1.091796875) (9.045842742919922e-05, 1.09375) (9.004428100585938e-05, 1.095703125) (8.931513977050781e-05, 1.09765625) (8.849133300781249e-05, 1.099609375) (8.792410278320313e-05, 1.1015625) (8.790653228759765e-05, 1.103515625) (8.866117858886719e-05, 1.10546875) (9.045828247070313e-05, 1.107421875) (9.357770538330078e-05, 1.109375) (9.821244812011719e-05, 1.111328125) (0.00010444811248779297, 1.11328125) (0.00011200592041015625, 1.115234375) (0.0001202860107421875, 1.1171875) (0.00012879045104980468, 1.119140625) (0.00013710653686523438, 1.12109375) (0.00014491946411132812, 1.123046875) (0.00015199851989746094, 1.125) (0.00015807458496093748, 1.126953125) (0.0001630335998535156, 1.12890625) (0.00016739642333984375, 1.130859375) (0.00017219229125976562, 1.1328125) (0.00017853692626953124, 1.134765625) (0.00018774305725097656, 1.13671875) (0.00020081275939941404, 1.138671875) (0.00021852935791015623, 1.140625) (0.00024217831420898436, 1.142578125) (0.000272919189453125, 1.14453125) (0.00031116073608398434, 1.146484375) (0.0003569336242675781, 1.1484375) (0.0004082289428710937, 1.150390625) (0.0004608749389648437, 1.15234375) (0.0005118708190917969, 1.154296875) (0.00055810546875, 1.15625) (0.0005992971801757812, 1.158203125) (0.0006393016967773437, 1.16015625) (0.000677150634765625, 1.162109375) (0.0007094393310546874, 1.1640625) (0.0007279779052734375, 1.166015625) (0.000716966552734375, 1.16796875) (0.0006689808349609374, 1.169921875) (0.00058214599609375, 1.171875) (0.00045997021484374997, 1.173828125) (0.0003201981811523437, 1.17578125) (0.00017820072937011717, 1.177734375) (4.932589340209961e-05, 1.1796875) (-4.826088333129883e-05, 1.181640625) (-0.0001107218017578125, 1.18359375) (-0.00013958480834960936, 1.185546875) (-0.00014188763427734375, 1.1875) (-0.0001342639465332031, 1.189453125) (-0.00012519210052490233, 1.19140625) (-0.00011696061706542968, 1.193359375) (-0.0001092602081298828, 1.1953125) (-9.628936767578125e-05, 1.197265625) (-7.6551513671875e-05, 1.19921875) (-5.280997467041015e-05, 1.201171875) (-2.779678153991699e-05, 1.203125) (-5.1068115234375e-06, 1.205078125) (1.3348688125610351e-05, 1.20703125) (2.7385372161865232e-05, 1.208984375) (3.726259613037109e-05, 1.2109375) (4.383795166015625e-05, 1.212890625) (4.7981903076171874e-05, 1.21484375) (5.04291763305664e-05, 1.216796875) (5.181068420410156e-05, 1.21875) (5.2505889892578124e-05, 1.220703125) (5.3182296752929684e-05, 1.22265625) (5.495294952392578e-05, 1.224609375) (5.843434143066406e-05, 1.2265625) (6.374750518798828e-05, 1.228515625) (7.075559997558593e-05, 1.23046875) (7.894567108154297e-05, 1.232421875) (8.78855972290039e-05, 1.234375) (9.734648132324218e-05, 1.236328125) (0.00010679388427734375, 1.23828125) (0.00011539517211914062, 1.240234375) (0.00012263560485839843, 1.2421875) (0.00012826812744140624, 1.244140625) (0.00013224996948242186, 1.24609375) (0.00013485240173339842, 1.248046875) (0.00013630029296875, 1.25) (0.00013672508239746093, 1.251953125) (0.00013640249633789061, 1.25390625) (0.00013567298889160157, 1.255859375) (0.00013477043151855468, 1.2578125) (0.0001338705291748047, 1.259765625) (0.00013306922912597656, 1.26171875) (0.00013236878967285155, 1.263671875) (0.00013181175231933594, 1.265625) (0.00013146307373046874, 1.267578125) (0.00013136647033691406, 1.26953125) (0.00013157423400878907, 1.271484375) (0.00013212181091308594, 1.2734375) (0.00013302525329589844, 1.275390625) (0.00013429562377929687, 1.27734375) (0.0001359205322265625, 1.279296875) (0.00013786981201171873, 1.28125) (0.0001401052551269531, 1.283203125) (0.00014257928466796874, 1.28515625) (0.00014525184631347654, 1.287109375) (0.00014808938598632812, 1.2890625) (0.00015105270385742188, 1.291015625) (0.00015410516357421873, 1.29296875) (0.0001572102813720703, 1.294921875) (0.00016032254028320312, 1.296875) (0.00016339926147460938, 1.298828125) (0.00016638847351074218, 1.30078125) (0.00016921961975097655, 1.302734375) (0.00017184132385253905, 1.3046875) (0.00017422192382812499, 1.306640625) (0.00017634153747558593, 1.30859375) (0.00017820336914062498, 1.310546875) (0.00017981414794921875, 1.3125) (0.00018117742919921873, 1.314453125) (0.00018230743408203124, 1.31640625) (0.00018322378540039063, 1.318359375) (0.00018394152832031249, 1.3203125) (0.00018447576904296874, 1.322265625) (0.00018483749389648437, 1.32421875) (0.00018503140258789062, 1.326171875) (0.00018506991577148436, 1.328125) (0.0001849703369140625, 1.330078125) (0.00018475411987304687, 1.33203125) (0.00018445094299316406, 1.333984375) (0.00018408311462402344, 1.3359375) (0.00018366427612304687, 1.337890625) (0.0001832053985595703, 1.33984375) (0.00018271144104003905, 1.341796875) (0.00018218482971191406, 1.34375) (0.00018162841796875, 1.345703125) (0.00018103948974609375, 1.34765625) (0.00018040985107421875, 1.349609375) (0.00017973446655273438, 1.3515625) (0.00017901058959960938, 1.353515625) (0.0001782370910644531, 1.35546875) (0.00017741644287109373, 1.357421875) (0.00017654833984375, 1.359375) (0.00017562968444824218, 1.361328125) (0.00017465692138671874, 1.36328125) (0.0001736253967285156, 1.365234375) (0.00017253102111816407, 1.3671875) (0.00017137077331542968, 1.369140625) (0.00017014103698730467, 1.37109375) (0.00016883792114257812, 1.373046875) (0.0001674583740234375, 1.375) (0.00016599987792968748, 1.376953125) (0.0001644611358642578, 1.37890625) (0.000162842041015625, 1.380859375) (0.0001611413116455078, 1.3828125) (0.00015935673522949218, 1.384765625) (0.00015748585510253906, 1.38671875) (0.00015552583312988282, 1.388671875) (0.00015347404479980467, 1.390625) (0.00015132839965820312, 1.392578125) (0.0001490865478515625, 1.39453125) (0.00014674594116210937, 1.396484375) (0.00014430477905273437, 1.3984375) (0.0001417620391845703, 1.400390625) (0.00013911720275878905, 1.40234375) (0.00013637037658691405, 1.404296875) (0.00013352175903320312, 1.40625) (0.0001305714416503906, 1.408203125) (0.00012751990509033204, 1.41015625) (0.00012436800384521484, 1.412109375) (0.00012111678314208984, 1.4140625) (0.00011776745605468749, 1.416015625) (0.00011432132720947266, 1.41796875) (0.00011077976989746093, 1.419921875) (0.00010714452362060547, 1.421875) (0.00010341776275634766, 1.423828125) (9.960194396972656e-05, 1.42578125) (9.56998062133789e-05, 1.427734375) (9.171424865722656e-05, 1.4296875) (8.764840698242187e-05, 1.431640625) (8.35056915283203e-05, 1.43359375) (7.928982543945312e-05, 1.435546875) (7.500471496582031e-05, 1.4375) (7.06544189453125e-05, 1.439453125) (6.624317169189453e-05, 1.44140625) (6.17753791809082e-05, 1.443359375) (5.72557258605957e-05, 1.4453125) (5.268919372558594e-05, 1.447265625) (4.808089447021484e-05, 1.44921875) (4.3436058044433594e-05, 1.451171875) (3.8760002136230464e-05, 1.453125) (3.4058074951171874e-05, 1.455078125) (2.933564758300781e-05, 1.45703125) (2.459816551208496e-05, 1.458984375) (1.985087966918945e-05, 1.4609375) (1.5098899841308593e-05, 1.462890625) (1.034726619720459e-05, 1.46484375) (5.600964546203613e-06, 1.466796875) (8.650221824645996e-07, 1.46875) (-3.8554439544677735e-06, 1.470703125) (-8.555326461791992e-06, 1.47265625) (-1.3229561805725096e-05, 1.474609375) (-1.787305450439453e-05, 1.4765625) (-2.248072624206543e-05, 1.478515625) (-2.704755210876465e-05, 1.48046875) (-3.156857299804687e-05, 1.482421875) (-3.603899002075195e-05, 1.484375) (-4.04542007446289e-05, 1.486328125) (-4.480975341796875e-05, 1.48828125) (-4.910132598876953e-05, 1.490234375) (-5.332473754882812e-05, 1.4921875) (-5.7475929260253904e-05, 1.494140625) (-6.155101013183593e-05, 1.49609375) (-6.554633331298828e-05, 1.498046875) (-6.945845031738281e-05, 1.5) (-7.328419494628906e-05, 1.501953125) (-7.702067565917968e-05, 1.50390625) (-8.066529846191405e-05, 1.505859375) (-8.421585083007812e-05, 1.5078125) (-8.767043304443358e-05, 1.509765625) (-9.102745056152343e-05, 1.51171875) (-9.428551483154297e-05, 1.513671875) (-9.744344329833984e-05, 1.515625) (-0.00010050022888183593, 1.517578125) (-0.00010345499420166016, 1.51953125) (-0.00010630699157714843, 1.521484375) (-0.00010905561828613281, 1.5234375) (-0.00011170040893554687, 1.525390625) (-0.00011424107360839844, 1.52734375) (-0.00011667753601074219, 1.529296875) (-0.0001190099639892578, 1.53125) (-0.00012123882293701171, 1.533203125) (-0.00012336476135253906, 1.53515625) (-0.00012538867950439452, 1.537109375) (-0.00012731167602539063, 1.5390625) (-0.00012913497924804687, 1.541015625) (-0.00013085998535156248, 1.54296875) (-0.00013248825073242188, 1.544921875) (-0.00013402143859863282, 1.546875) (-0.00013546133422851563, 1.548828125) (-0.00013680984497070313, 1.55078125) (-0.00013806907653808592, 1.552734375) (-0.00013924125671386717, 1.5546875) (-0.00014032876586914062, 1.556640625) (-0.00014133409118652343, 1.55859375) (-0.00014225978088378905, 1.560546875) (-0.00014310838317871093, 1.5625) (-0.00014388243103027342, 1.564453125) (-0.00014458441162109375, 1.56640625) (-0.0001452167053222656, 1.568359375) (-0.00014578164672851562, 1.5703125) (-0.00014628140258789063, 1.572265625) (-0.00014671813964843748, 1.57421875) (-0.00014709403991699217, 1.576171875) (-0.00014741117858886718, 1.578125) (-0.00014767176818847655, 1.580078125) (-0.00014787800598144532, 1.58203125) (-0.00014803208923339843, 1.583984375) (-0.00014813623046875, 1.5859375) (-0.000148192626953125, 1.587890625) (-0.00014820336914062499, 1.58984375) (-0.0001481704864501953, 1.591796875) (-0.00014809587097167968, 1.59375) (-0.00014798130798339843, 1.595703125) (-0.00014782839965820312, 1.59765625) (-0.00014763864135742188, 1.599609375) (-0.00014741346740722655, 1.6015625) (-0.00014715411376953124, 1.603515625) (-0.00014686175537109375, 1.60546875) (-0.000146537353515625, 1.607421875) (-0.00014618176269531248, 1.609375) (-0.000145795654296875, 1.611328125) (-0.0001453795166015625, 1.61328125) (-0.00014493362426757812, 1.615234375) (-0.00014445811462402344, 1.6171875) (-0.000143952880859375, 1.619140625) (-0.0001434176788330078, 1.62109375) (-0.00014285226440429686, 1.623046875) (-0.0001422562255859375, 1.625) (-0.0001416292266845703, 1.626953125) (-0.00014097091674804686, 1.62890625) (-0.000140281005859375, 1.630859375) (-0.00013955920410156248, 1.6328125) (-0.00013880535888671875, 1.634765625) (-0.00013801927185058593, 1.63671875) (-0.00013720080566406248, 1.638671875) (-0.00013634982299804687, 1.640625) (-0.00013546617126464843, 1.642578125) (-0.00013454972839355468, 1.64453125) (-0.00013360043334960937, 1.646484375) (-0.00013261820983886719, 1.6484375) (-0.00013160311889648437, 1.650390625) (-0.00013055523681640625, 1.65234375) (-0.00012947482299804686, 1.654296875) (-0.0001283622589111328, 1.65625) (-0.00012721812438964844, 1.658203125) (-0.0001260431213378906, 1.66015625) (-0.00012483813476562498, 1.662109375) (-0.00012360418701171875, 1.6640625) (-0.00012234249877929687, 1.666015625) (-0.00012105458068847656, 1.66796875) (-0.00011974217224121094, 1.669921875) (-0.00011840726470947265, 1.671875) (-0.00011705215454101562, 1.673828125) (-0.00011567934417724609, 1.67578125) (-0.00011429164123535155, 1.677734375) (-0.00011289212036132813, 1.6796875) (-0.00011148405456542968, 1.681640625) (-0.00011007091522216796, 1.68359375) (-0.00010865624237060546, 1.685546875) (-0.0001072436065673828, 1.6875) (-0.0001058366470336914, 1.689453125) (-0.00010443901062011718, 1.69140625) (-0.00010305435180664062, 1.693359375) (-0.00010168622589111327, 1.6953125) (-0.00010033807373046874, 1.697265625) (-9.901329803466796e-05, 1.69921875) (-9.771511840820312e-05, 1.701171875) (-9.644676971435546e-05, 1.703125) (-9.521131134033202e-05, 1.705078125) (-9.401155090332031e-05, 1.70703125) (-9.285016632080078e-05, 1.708984375) (-9.172964477539062e-05, 1.7109375) (-9.065217590332031e-05, 1.712890625) (-8.961976623535156e-05, 1.71484375) (-8.863406372070312e-05, 1.716796875) (-8.769631958007812e-05, 1.71875) (-8.68074951171875e-05, 1.720703125) (-8.596827697753906e-05, 1.72265625) (-8.517892456054687e-05, 1.724609375) (-8.443941497802735e-05, 1.7265625) (-8.374930572509765e-05, 1.728515625) (-8.310763549804687e-05, 1.73046875) (-8.251297760009765e-05, 1.732421875) (-8.196337890624999e-05, 1.734375) (-8.145643615722656e-05, 1.736328125) (-8.098928833007812e-05, 1.73828125) (-8.05586700439453e-05, 1.740234375) (-8.016078186035156e-05, 1.7421875) (-7.979139709472656e-05, 1.744140625) (-7.944597625732422e-05, 1.74609375) (-7.911977386474609e-05, 1.748046875) (-7.880789184570312e-05, 1.75) (-7.85052490234375e-05, 1.751953125) (-7.820645904541015e-05, 1.75390625) (-7.790597534179688e-05, 1.755859375) (-7.759832763671875e-05, 1.7578125) (-7.7278076171875e-05, 1.759765625) (-7.693982696533203e-05, 1.76171875) (-7.657832336425781e-05, 1.763671875) (-7.618830108642578e-05, 1.765625) (-7.576473999023437e-05, 1.767578125) (-7.530314636230469e-05, 1.76953125) (-7.47992935180664e-05, 1.771484375) (-7.42491683959961e-05, 1.7734375) (-7.364936065673828e-05, 1.775390625) (-7.299696350097656e-05, 1.77734375) (-7.228970336914063e-05, 1.779296875) (-7.152650451660156e-05, 1.78125) (-7.070684051513672e-05, 1.783203125) (-6.983051300048828e-05, 1.78515625) (-6.889825439453124e-05, 1.787109375) (-6.791139221191406e-05, 1.7890625) (-6.687162017822265e-05, 1.791015625) (-6.578131103515625e-05, 1.79296875) (-6.464287567138672e-05, 1.794921875) (-6.34583511352539e-05, 1.796875) (-6.223041152954101e-05, 1.798828125) (-6.096233749389648e-05, 1.80078125) (-5.965769577026367e-05, 1.802734375) (-5.8321510314941406e-05, 1.8046875) (-5.6959491729736324e-05, 1.806640625) (-5.5577655792236324e-05, 1.80859375) (-5.418305969238281e-05, 1.810546875) (-5.27828254699707e-05, 1.8125) (-5.138349151611328e-05, 1.814453125) (-4.999201202392578e-05, 1.81640625) (-4.8614166259765625e-05, 1.818359375) (-4.725308990478515e-05, 1.8203125) (-4.591233444213867e-05, 1.822265625) (-4.4595695495605466e-05, 1.82421875) (-4.330867767333984e-05, 1.826171875) (-4.206106185913086e-05, 1.828125) (-4.086170959472656e-05, 1.830078125) (-3.971671676635742e-05, 1.83203125) (-3.863095474243164e-05, 1.833984375) (-3.7606472015380854e-05, 1.8359375) (-3.664130783081054e-05, 1.837890625) (-3.5729530334472656e-05, 1.83984375) (-3.485637283325195e-05, 1.841796875) (-3.3998802185058595e-05, 1.84375) (-3.3133880615234375e-05, 1.845703125) (-3.2238834381103515e-05, 1.84765625) (-3.129484176635742e-05, 1.849609375) (-3.0289928436279294e-05, 1.8515625) (-2.921129608154297e-05, 1.853515625) (-2.8044633865356444e-05, 1.85546875) (-2.6771389007568357e-05, 1.857421875) (-2.5366752624511718e-05, 1.859375) (-2.3807508468627928e-05, 1.861328125) (-2.207709503173828e-05, 1.86328125) (-2.01650390625e-05, 1.865234375) (-1.8066181182861326e-05, 1.8671875) (-1.578629207611084e-05, 1.869140625) (-1.334933853149414e-05, 1.87109375) (-1.081039047241211e-05, 1.873046875) (-8.247925758361816e-06, 1.875) (-5.745597839355468e-06, 1.876953125) (-3.3789365291595457e-06, 1.87890625) (-1.2010729312896728e-06, 1.880859375) (7.335785031318664e-07, 1.8828125) (2.3604054450988767e-06, 1.884765625) (3.6119847297668455e-06, 1.88671875) (4.410430431365967e-06, 1.888671875) (4.685914039611816e-06, 1.890625) (4.39096975326538e-06, 1.892578125) (3.461650848388672e-06, 1.89453125) (1.8089619874954222e-06, 1.896484375) (-5.831540822982788e-07, 1.8984375) (-3.6278810501098632e-06, 1.900390625) (-7.119691848754882e-06, 1.90234375) (-1.0689434051513672e-05, 1.904296875) (-1.3954734802246094e-05, 1.90625) (-1.662723159790039e-05, 1.908203125) (-1.8386688232421875e-05, 1.91015625) (-1.8846496582031248e-05, 1.912109375) (-1.7772865295410155e-05, 1.9140625) (-1.517985439300537e-05, 1.916015625) (-1.1359726905822753e-05, 1.91796875) (-6.961291313171386e-06, 1.919921875) (-2.6375694274902344e-06, 1.921875) (1.2986581325531006e-06, 1.923828125) (4.605917930603027e-06, 1.92578125) (6.908715724945068e-06, 1.927734375) (8.068547248840332e-06, 1.9296875) (8.394104003906249e-06, 1.931640625) (8.661643028259277e-06, 1.93359375) (1.031983470916748e-05, 1.935546875) (1.506580352783203e-05, 1.9375) (2.4079551696777344e-05, 1.939453125) (3.829573059082031e-05, 1.94140625) (5.898561096191406e-05, 1.943359375) (8.729747772216796e-05, 1.9453125) (0.00012386569213867186, 1.947265625) (0.0001687658233642578, 1.94921875) (0.00022012596130371092, 1.951171875) (0.00027427536010742184, 1.953125) (0.0003279947509765625, 1.955078125) (0.0003790683898925781, 1.95703125) (0.00042760125732421874, 1.958984375) (0.0004749296264648437, 1.9609375) (0.0005196593627929687, 1.962890625) (0.000555843505859375, 1.96484375) (0.0005723628540039062, 1.966796875) (0.0005592497558593749, 1.96875) (0.000513383056640625, 1.970703125) (0.0004391645812988281, 1.97265625) (0.00034844384765624997, 1.974609375) (0.0002508175201416016, 1.9765625) (0.0001501411437988281, 1.978515625) (4.8986694335937495e-05, 1.98046875) (-5.049144744873047e-05, 1.982421875) (-0.00013977465820312499, 1.984375) (-0.00020774755859375, 1.986328125) (-0.0002485490264892578, 1.98828125) (-0.00026126660156249997, 1.990234375) (-0.00025402320861816406, 1.9921875) (-0.00023535346984863281, 1.994140625) (-0.000209302734375, 1.99609375) (-0.00018101966857910154, 1.998046875) (-0.0001508435516357422, 2.0) (-0.00012083892822265625, 2.001953125) (-9.652515411376953e-05, 2.00390625) (-7.690260314941406e-05, 2.005859375) (-6.19914321899414e-05, 2.0078125) (-5.144056701660156e-05, 2.009765625) (-4.1657882690429685e-05, 2.01171875) (-3.365792465209961e-05, 2.013671875) (-2.7942476272583005e-05, 2.015625) (-2.298521614074707e-05, 2.017578125) (-1.8664918899536133e-05, 2.01953125) (-1.3482521057128905e-05, 2.021484375) (-6.0432429313659665e-06, 2.0234375) (3.7194561958312986e-06, 2.025390625) (1.5833105087280273e-05, 2.02734375) (2.9820899963378904e-05, 2.029296875) (4.477741241455078e-05, 2.03125) (5.968238830566406e-05, 2.033203125) (7.350735473632812e-05, 2.03515625) (8.564080810546874e-05, 2.037109375) (9.578564453124999e-05, 2.0390625) (0.00010376817321777343, 2.041015625) (0.00010962037658691406, 2.04296875) (0.00011340708923339843, 2.044921875) (0.00011526890563964843, 2.046875) (0.00011562598419189453, 2.048828125) (0.00011497611236572265, 2.05078125) (0.0001136798095703125, 2.052734375) (0.00011200936889648437, 2.0546875) (0.00011012886810302734, 2.056640625) (0.00010810926818847656, 2.05859375) (0.00010609012603759764, 2.060546875) (0.00010424920654296875, 2.0625) (0.0001027061996459961, 2.064453125) (0.00010155933380126952, 2.06640625) (0.00010087232971191405, 2.068359375) (0.00010066856384277343, 2.0703125) (0.00010098653411865234, 2.072265625) (0.00010186166381835936, 2.07421875) (0.00010329323577880859, 2.076171875) (0.00010525411987304686, 2.078125) (0.00010768455505371093, 2.080078125) (0.00011050017547607421, 2.08203125) (0.00011362310791015624, 2.083984375) (0.00011698464202880859, 2.0859375) (0.00012052806091308593, 2.087890625) (0.0001242085189819336, 2.08984375) (0.0001279642639160156, 2.091796875) (0.00013171914672851563, 2.09375) (0.000135396484375, 2.095703125) (0.00013891891479492186, 2.09765625) (0.00014223739624023436, 2.099609375) (0.00014532934570312498, 2.1015625) (0.00014817526245117186, 2.103515625) (0.00015076531982421876, 2.10546875) (0.00015310067749023436, 2.107421875) (0.0001551917724609375, 2.109375) (0.0001570654602050781, 2.111328125) (0.00015876004028320313, 2.11328125) (0.0001603065490722656, 2.115234375) (0.00016172940063476562, 2.1171875) (0.00016304823303222655, 2.119140625) (0.0001642764892578125, 2.12109375) (0.00016543489074707032, 2.123046875) (0.00016654937744140625, 2.125) (0.0001676462707519531, 2.126953125) (0.00016875416564941404, 2.12890625) (0.00016989242553710937, 2.130859375) (0.00017107154846191406, 2.1328125) (0.0001723008270263672, 2.134765625) (0.00017358596801757812, 2.13671875) (0.00017492796325683594, 2.138671875) (0.00017632461547851562, 2.140625) (0.000177767333984375, 2.142578125) (0.00017924212646484375, 2.14453125) (0.00018073832702636717, 2.146484375) (0.00018224784851074218, 2.1484375) (0.00018376286315917968, 2.150390625) (0.00018527711486816405, 2.15234375) (0.00018678189086914062, 2.154296875) (0.00018826670837402342, 2.15625) (0.00018972094726562498, 2.158203125) (0.00019113305664062498, 2.16015625) (0.00019249179077148436, 2.162109375) (0.00019378646850585937, 2.1640625) (0.00019500601196289062, 2.166015625) (0.0001961392822265625, 2.16796875) (0.00019717608642578124, 2.169921875) (0.00019810653686523437, 2.171875) (0.00019892199707031248, 2.173828125) (0.00019961517333984375, 2.17578125) (0.00020017819213867186, 2.177734375) (0.00020060260009765625, 2.1796875) (0.0002008804168701172, 2.181640625) (0.00020100344848632813, 2.18359375) (0.00020096444702148437, 2.185546875) (0.00020075711059570312, 2.1875) (0.0002003754425048828, 2.189453125) (0.00019981394958496092, 2.19140625) (0.00019906838989257813, 2.193359375) (0.00019813560485839842, 2.1953125) (0.00019701330566406248, 2.197265625) (0.00019570040893554687, 2.19921875) (0.0001941964874267578, 2.201171875) (0.00019250180053710937, 2.203125) (0.0001906174621582031, 2.205078125) (0.00018854522705078123, 2.20703125) (0.00018628756713867187, 2.208984375) (0.00018384759521484375, 2.2109375) (0.000181229248046875, 2.212890625) (0.00017843717956542968, 2.21484375) (0.00017547653198242186, 2.216796875) (0.00017235305786132812, 2.21875) (0.00016907304382324218, 2.220703125) (0.00016564329528808593, 2.22265625) (0.00016207115173339843, 2.224609375) (0.00015836451721191406, 2.2265625) (0.00015453158569335936, 2.228515625) (0.00015058082580566404, 2.23046875) (0.00014652101135253907, 2.232421875) (0.00014236117553710937, 2.234375) (0.0001381105194091797, 2.236328125) (0.00013377833557128905, 2.23828125) (0.00012937394714355468, 2.240234375) (0.00012490657806396485, 2.2421875) (0.00012038536071777343, 2.244140625) (0.00011581919860839843, 2.24609375) (0.00011121684265136718, 2.248046875) (0.00010658674621582031, 2.25) (0.0001019371109008789, 2.251953125) (9.727586364746094e-05, 2.25390625) (9.26104507446289e-05, 2.255859375) (8.794795227050781e-05, 2.2578125) (8.329511260986328e-05, 2.259765625) (7.865837097167969e-05, 2.26171875) (7.404386901855469e-05, 2.263671875) (6.945741271972655e-05, 2.265625) (6.4904541015625e-05, 2.267578125) (6.039048385620117e-05, 2.26953125) (5.592031478881836e-05, 2.271484375) (5.1498882293701166e-05, 2.2734375) (4.713080596923828e-05, 2.275390625) (4.282048034667969e-05, 2.27734375) (3.857208633422851e-05, 2.279296875) (3.438957977294922e-05, 2.28125) (3.02767333984375e-05, 2.283203125) (2.623708915710449e-05, 2.28515625) (2.2273942947387695e-05, 2.287109375) (1.8390312194824217e-05, 2.2890625) (1.4588941574096679e-05, 2.291015625) (1.087228775024414e-05, 2.29296875) (7.242530345916748e-06, 2.294921875) (3.7015471458435058e-06, 2.296875) (2.5091874599456785e-07, 2.298828125) (-3.1080405712127684e-06, 2.30078125) (-6.374261379241943e-06, 2.302734375) (-9.54686164855957e-06, 2.3046875) (-1.2625101089477538e-05, 2.306640625) (-1.5608369827270506e-05, 2.30859375) (-1.8496185302734373e-05, 2.310546875) (-2.1288164138793943e-05, 2.3125) (-2.398402976989746e-05, 2.314453125) (-2.658360481262207e-05, 2.31640625) (-2.90867862701416e-05, 2.318359375) (-3.1493576049804684e-05, 2.3203125) (-3.3804122924804684e-05, 2.322265625) (-3.601869201660156e-05, 2.32421875) (-3.8137718200683594e-05, 2.326171875) (-4.016173934936523e-05, 2.328125) (-4.209143447875976e-05, 2.330078125) (-4.392766571044922e-05, 2.33203125) (-4.567147064208984e-05, 2.333984375) (-4.7324108123779295e-05, 2.3359375) (-4.888706588745117e-05, 2.337890625) (-5.036205673217773e-05, 2.33984375) (-5.175102615356445e-05, 2.341796875) (-5.305617141723632e-05, 2.34375) (-5.427992248535156e-05, 2.345703125) (-5.5424903869628906e-05, 2.34765625) (-5.649389266967773e-05, 2.349609375) (-5.7489738464355466e-05, 2.3515625) (-5.8415367126464844e-05, 2.353515625) (-5.9273681640625e-05, 2.35546875) (-6.006761932373047e-05, 2.357421875) (-6.080007171630859e-05, 2.359375) (-6.14738883972168e-05, 2.361328125) (-6.209188842773437e-05, 2.36328125) (-6.265685272216796e-05, 2.365234375) (-6.317156219482422e-05, 2.3671875) (-6.36388168334961e-05, 2.369140625) (-6.40614013671875e-05, 2.37109375) (-6.444208526611328e-05, 2.373046875) (-6.478361511230469e-05, 2.375) (-6.508869171142578e-05, 2.376953125) (-6.535998535156249e-05, 2.37890625) (-6.560014343261718e-05, 2.380859375) (-6.581178283691406e-05, 2.3828125) (-6.599746704101563e-05, 2.384765625) (-6.615974426269531e-05, 2.38671875) (-6.630116271972656e-05, 2.388671875) (-6.642422485351562e-05, 2.390625) (-6.653146362304687e-05, 2.392578125) (-6.662533569335937e-05, 2.39453125) (-6.670821380615235e-05, 2.396484375) (-6.678231811523438e-05, 2.3984375) (-6.684973144531249e-05, 2.400390625) (-6.691232299804687e-05, 2.40234375) (-6.697179412841797e-05, 2.404296875) (-6.702959442138672e-05, 2.40625) (-6.708700561523437e-05, 2.408203125) (-6.714515686035155e-05, 2.41015625) (-6.720502471923828e-05, 2.412109375) (-6.72675323486328e-05, 2.4140625) (-6.73335723876953e-05, 2.416015625) (-6.740400695800781e-05, 2.41796875) (-6.747970581054687e-05, 2.419921875) (-6.756149291992187e-05, 2.421875) (-6.76502227783203e-05, 2.423828125) (-6.774671173095703e-05, 2.42578125) (-6.78517837524414e-05, 2.427734375) (-6.796622467041016e-05, 2.4296875) (-6.809084320068359e-05, 2.431640625) (-6.822644042968749e-05, 2.43359375) (-6.837387084960937e-05, 2.435546875) (-6.853401947021485e-05, 2.4375) (-6.87078857421875e-05, 2.439453125) (-6.889649200439453e-05, 2.44140625) (-6.910089111328124e-05, 2.443359375) (-6.932210540771484e-05, 2.4453125) (-6.95611343383789e-05, 2.447265625) (-6.981889343261718e-05, 2.44921875) (-7.009618377685547e-05, 2.451171875) (-7.039369201660156e-05, 2.453125) (-7.071197509765625e-05, 2.455078125) (-7.105152893066406e-05, 2.45703125) (-7.141273498535157e-05, 2.458984375) (-7.179601287841797e-05, 2.4609375) (-7.220177459716796e-05, 2.462890625) (-7.263045501708984e-05, 2.46484375) (-7.308255767822266e-05, 2.466796875) (-7.355859375e-05, 2.46875) (-7.405907440185546e-05, 2.470703125) (-7.458448791503906e-05, 2.47265625) (-7.513526916503906e-05, 2.474609375) (-7.571176147460937e-05, 2.4765625) (-7.631419372558594e-05, 2.478515625) (-7.694271850585937e-05, 2.48046875) (-7.759733581542969e-05, 2.482421875) (-7.827802276611328e-05, 2.484375) (-7.898468017578125e-05, 2.486328125) (-7.971715545654297e-05, 2.48828125) (-8.047520446777343e-05, 2.490234375) (-8.125851440429687e-05, 2.4921875) (-8.206663513183593e-05, 2.494140625) (-8.289898681640625e-05, 2.49609375) (-8.375485229492186e-05, 2.498046875) (-8.463325500488281e-05, 2.5) (-8.553298950195312e-05, 2.501953125) (-8.645265197753906e-05, 2.50390625) (-8.739068603515624e-05, 2.505859375) (-8.834545135498046e-05, 2.5078125) (-8.93152847290039e-05, 2.509765625) (-9.029852294921874e-05, 2.51171875) (-9.129356384277344e-05, 2.513671875) (-9.229891204833984e-05, 2.515625) (-9.33130874633789e-05, 2.517578125) (-9.433472442626952e-05, 2.51953125) (-9.53624496459961e-05, 2.521484375) (-9.639488220214844e-05, 2.5234375) (-9.743063354492187e-05, 2.525390625) (-9.846822357177734e-05, 2.52734375) (-9.950607299804688e-05, 2.529296875) (-0.0001005426788330078, 2.53125) (-0.00010157653808593749, 2.533203125) (-0.00010260620117187499, 2.53515625) (-0.00010363027954101562, 2.537109375) (-0.00010464747619628906, 2.5390625) (-0.0001056565170288086, 2.541015625) (-0.00010665625, 2.54296875) (-0.00010764556884765624, 2.544921875) (-0.0001086232681274414, 2.546875) (-0.00010958804321289062, 2.548828125) (-0.00011053853607177733, 2.55078125) (-0.00011147329711914062, 2.552734375) (-0.00011239083862304687, 2.5546875) (-0.00011328972625732421, 2.556640625) (-0.00011416842651367187, 2.55859375) (-0.00011502544403076171, 2.560546875) (-0.00011585946655273437, 2.5625) (-0.00011666942596435547, 2.564453125) (-0.00011745436096191406, 2.56640625) (-0.00011821343994140625, 2.568359375) (-0.00011894580841064453, 2.5703125) (-0.0001196505889892578, 2.572265625) (-0.00012032679748535156, 2.57421875) (-0.00012097338104248047, 2.576171875) (-0.00012158905029296874, 2.578125) (-0.00012217247009277342, 2.580078125) (-0.00012272216796875, 2.58203125) (-0.0001232366027832031, 2.583984375) (-0.0001237143096923828, 2.5859375) (-0.00012415382385253906, 2.587890625) (-0.00012455380249023438, 2.58984375) (-0.00012491311645507813, 2.591796875) (-0.00012523056030273438, 2.59375) (-0.00012550479888916014, 2.595703125) (-0.00012573465728759765, 2.59765625) (-0.00012591886138916015, 2.599609375) (-0.00012605622100830079, 2.6015625) (-0.00012614569091796873, 2.603515625) (-0.00012618630981445312, 2.60546875) (-0.00012617716217041015, 2.607421875) (-0.00012611797332763672, 2.609375) (-0.00012600907897949217, 2.611328125) (-0.0001258511962890625, 2.61328125) (-0.00012564546203613282, 2.615234375) (-0.00012539364624023438, 2.6171875) (-0.00012509798431396485, 2.619140625) (-0.0001247614288330078, 2.62109375) (-0.00012438796997070312, 2.623046875) (-0.00012398165893554686, 2.625) (-0.00012354664611816406, 2.626953125) (-0.00012308773803710937, 2.62890625) (-0.00012261013793945312, 2.630859375) (-0.00012211907958984374, 2.6328125) (-0.00012162030792236327, 2.634765625) (-0.00012111924743652344, 2.63671875) (-0.00012062075805664062, 2.638671875) (-0.00012013067626953125, 2.640625) (-0.00011965493011474609, 2.642578125) (-0.00011919952392578124, 2.64453125) (-0.00011877150726318358, 2.646484375) (-0.00011837781524658203, 2.6484375) (-0.00011802567291259766, 2.650390625) (-0.0001177233428955078, 2.65234375) (-0.00011747810363769531, 2.654296875) (-0.0001172964630126953, 2.65625) (-0.0001171851577758789, 2.658203125) (-0.00011714830780029297, 2.66015625) (-0.00011718801879882813, 2.662109375) (-0.00011730792236328125, 2.6640625) (-0.00011751013183593749, 2.666015625) (-0.00011779815673828125, 2.66796875) (-0.00011818020629882811, 2.669921875) (-0.00011866036224365234, 2.671875) (-0.00011924073791503905, 2.673828125) (-0.00011992474365234375, 2.67578125) (-0.00012071002960205078, 2.677734375) (-0.00012159005737304687, 2.6796875) (-0.00012255503845214844, 2.681640625) (-0.00012358358001708983, 2.68359375) (-0.00012464749908447264, 2.685546875) (-0.00012572232055664063, 2.6875) (-0.00012678173828124998, 2.689453125) (-0.00012780345153808593, 2.69140625) (-0.0001287727813720703, 2.693359375) (-0.0001296682891845703, 2.6953125) (-0.00013047039794921873, 2.697265625) (-0.0001311593017578125, 2.69921875) (-0.00013170295715332031, 2.701171875) (-0.00013207658386230468, 2.703125) (-0.00013225787353515626, 2.705078125) (-0.00013221852111816406, 2.70703125) (-0.00013194418334960936, 2.708984375) (-0.00013143287658691407, 2.7109375) (-0.00013069523620605467, 2.712890625) (-0.00012977734374999998, 2.71484375) (-0.00012874670410156249, 2.716796875) (-0.00012766436767578125, 2.71875) (-0.00012659127807617188, 2.720703125) (-0.00012557330322265624, 2.72265625) (-0.00012464996337890625, 2.724609375) (-0.00012388899230957032, 2.7265625) (-0.00012335552978515624, 2.728515625) (-0.00012311676025390623, 2.73046875) (-0.00012324966430664062, 2.732421875) (-0.00012378997802734375, 2.734375) (-0.00012480824279785156, 2.736328125) (-0.00012642233276367187, 2.73828125) (-0.00012865231323242187, 2.740234375) (-0.00013144161987304687, 2.7421875) (-0.00013461680603027342, 2.744140625) (-0.00013782498168945313, 2.74609375) (-0.00014074038696289062, 2.748046875) (-0.00014314071655273437, 2.75) (-0.00014473182678222655, 2.751953125) (-0.00014520623779296874, 2.75390625) (-0.00014441323852539063, 2.755859375) (-0.00014226856994628906, 2.7578125) (-0.0001390465850830078, 2.759765625) (-0.000135373291015625, 2.76171875) (-0.00013167727661132813, 2.763671875) (-0.00012826832580566406, 2.765625) (-0.00012535094451904296, 2.767578125) (-0.00012295716094970702, 2.76953125) (-0.0001211011734008789, 2.771484375) (-0.0001196563491821289, 2.7734375) (-0.00011785098266601562, 2.775390625) (-0.0001144682388305664, 2.77734375) (-0.00010840466308593749, 2.779296875) (-9.848686218261719e-05, 2.78125) (-8.395248413085937e-05, 2.783203125) (-6.436677551269531e-05, 2.78515625) (-3.8833927154541014e-05, 2.787109375) (-6.598099708557129e-06, 2.7890625) (3.2350902557373044e-05, 2.791015625) (7.761021423339843e-05, 2.79296875) (0.00012721194458007812, 2.794921875) (0.00017766314697265624, 2.796875) (0.00022672119140625, 2.798828125) (0.00027303744506835935, 2.80078125) (0.00031751657104492185, 2.802734375) (0.00036310272216796873, 2.8046875) (0.00040839221191406246, 2.806640625) (0.0004467496337890625, 2.80859375) (0.0004666749877929687, 2.810546875) (0.000455458740234375, 2.8125) (0.00040905770874023436, 2.814453125) (0.0003341251831054687, 2.81640625) (0.00024405892944335937, 2.818359375) (0.00015194337463378906, 2.8203125) (6.218174743652343e-05, 2.822265625) (-2.8703102111816404e-05, 2.82421875) (-0.0001239817886352539, 2.826171875) (-0.00022045523071289062, 2.828125) (-0.0003063436279296875, 2.830078125) (-0.00036742184448242186, 2.83203125) (-0.00039703060913085934, 2.833984375) (-0.00039880307006835936, 2.8359375) (-0.00038431320190429683, 2.837890625) (-0.00036574862670898435, 2.83984375) (-0.0003491972961425781, 2.841796875) (-0.00033496878051757814, 2.84375) (-0.00032009814453125, 2.845703125) (-0.00030252520751953123, 2.84765625) (-0.0002825570068359375, 2.849609375) (-0.0002617314453125, 2.8515625) (-0.00024207015991210937, 2.853515625) (-0.00022449313354492187, 2.85546875) (-0.0002091240234375, 2.857421875) (-0.00019581005859374998, 2.859375) (-0.00018377606201171875, 2.861328125) (-0.00017238969421386717, 2.86328125) (-0.0001616298828125, 2.865234375) (-0.0001516256866455078, 2.8671875) (-0.00014258697509765623, 2.869140625) (-0.0001345821075439453, 2.87109375) (-0.0001270555877685547, 2.873046875) (-0.00011942781066894531, 2.875) (-0.00011164616394042968, 2.876953125) (-0.00010385375976562499, 2.87890625) (-9.618344116210938e-05, 2.880859375) (-8.878070831298827e-05, 2.8828125) (-8.16571044921875e-05, 2.884765625) (-7.493104553222655e-05, 2.88671875) (-6.913516998291015e-05, 2.888671875) (-6.47488021850586e-05, 2.890625) (-6.192524337768555e-05, 2.892578125) (-6.0643775939941405e-05, 2.89453125) (-6.071116638183594e-05, 2.896484375) (-6.187465667724609e-05, 2.8984375) (-6.397511291503906e-05, 2.900390625) (-6.679882049560547e-05, 2.90234375) (-6.997286987304687e-05, 2.904296875) (-7.317237854003906e-05, 2.90625) (-7.6166748046875e-05, 2.908203125) (-7.878925323486328e-05, 2.91015625) (-8.098145294189452e-05, 2.912109375) (-8.269937133789061e-05, 2.9140625) (-8.388023376464843e-05, 2.916015625) (-8.450143432617187e-05, 2.91796875) (-8.458024597167969e-05, 2.919921875) (-8.414199066162109e-05, 2.921875) (-8.32211685180664e-05, 2.923828125) (-8.185733032226562e-05, 2.92578125) (-8.008135986328124e-05, 2.927734375) (-7.794071960449218e-05, 2.9296875) (-7.549876403808593e-05, 2.931640625) (-7.281463623046875e-05, 2.93359375) (-6.994755554199218e-05, 2.935546875) (-6.695554351806641e-05, 2.9375) (-6.389617919921875e-05, 2.939453125) (-6.0825748443603515e-05, 2.94140625) (-5.780255889892578e-05, 2.943359375) (-5.4884281158447264e-05, 2.9453125) (-5.2105560302734375e-05, 2.947265625) (-4.9486324310302734e-05, 2.94921875) (-4.703683853149414e-05, 2.951171875) (-4.475015258789062e-05, 2.953125) (-4.261450958251953e-05, 2.955078125) (-4.06141242980957e-05, 2.95703125) (-3.8722072601318355e-05, 2.958984375) (-3.6905513763427736e-05, 2.9609375) (-3.513442230224609e-05, 2.962890625) (-3.337919616699219e-05, 2.96484375) (-3.1613162994384764e-05, 2.966796875) (-2.9815576553344724e-05, 2.96875) (-2.7961278915405273e-05, 2.970703125) (-2.602387237548828e-05, 2.97265625) (-2.3976547241210936e-05, 2.974609375) (-2.178948211669922e-05, 2.9765625) (-1.94423828125e-05, 2.978515625) (-1.692328643798828e-05, 2.98046875) (-1.4223676681518554e-05, 2.982421875) (-1.1341545104980468e-05, 2.984375) (-8.278437614440918e-06, 2.986328125) (-5.037577152252197e-06, 2.98828125) (-1.6284811496734618e-06, 2.990234375) (1.934060454368591e-06, 2.9921875) (5.637453079223632e-06, 2.994140625) (9.469497680664062e-06, 2.99609375) (1.341824722290039e-05, 2.998046875) (1.747408103942871e-05, 3.0) (2.1624338150024412e-05, 3.001953125) (2.585368728637695e-05, 3.00390625) (3.0146402359008788e-05, 3.005859375) (3.448524475097656e-05, 3.0078125) (3.885318756103515e-05, 3.009765625) (4.323421859741211e-05, 3.01171875) (4.7611671447753906e-05, 3.013671875) (5.1968303680419917e-05, 3.015625) (5.6287704467773434e-05, 3.017578125) (6.0553833007812496e-05, 3.01953125) (6.475167083740234e-05, 3.021484375) (6.886764526367187e-05, 3.0234375) (7.288733673095702e-05, 3.025390625) (7.679557800292968e-05, 3.02734375) (8.057752227783202e-05, 3.029296875) (8.42183837890625e-05, 3.03125) (8.770412445068359e-05, 3.033203125) (9.102182006835936e-05, 3.03515625) (9.415892028808593e-05, 3.037109375) (9.710337829589843e-05, 3.0390625) (9.984461975097656e-05, 3.041015625) (0.00010237345886230468, 3.04296875) (0.00010468203735351562, 3.044921875) (0.00010676404571533203, 3.046875) (0.00010861418151855468, 3.048828125) (0.00011022798156738281, 3.05078125) (0.00011160223388671874, 3.052734375) (0.00011273489379882812, 3.0546875) (0.00011362486267089843, 3.056640625) (0.00011427226257324218, 3.05859375) (0.00011467809295654296, 3.060546875) (0.00011484405517578125, 3.0625) (0.00011477282714843749, 3.064453125) (0.00011446810913085937, 3.06640625) (0.00011393446350097656, 3.068359375) (0.00011317727661132813, 3.0703125) (0.00011220280456542968, 3.072265625) (0.00011101776123046874, 3.07421875) (0.00010962950134277344, 3.076171875) (0.00010804602050781249, 3.078125) (0.00010627581024169921, 3.080078125) (0.00010432769012451172, 3.08203125) (0.00010221085357666016, 3.083984375) (9.993470001220702e-05, 3.0859375) (9.750888061523437e-05, 3.087890625) (9.494342803955077e-05, 3.08984375) (9.224853515624999e-05, 3.091796875) (8.943457794189452e-05, 3.09375) (8.65121612548828e-05, 3.095703125) (8.349185943603515e-05, 3.09765625) (8.038421630859375e-05, 3.099609375) (7.719985961914062e-05, 3.1015625) (7.394927978515624e-05, 3.103515625) (7.064260864257812e-05, 3.10546875) (6.728982543945312e-05, 3.107421875) (6.390052795410156e-05, 3.109375) (6.048395538330078e-05, 3.111328125) (5.704922866821289e-05, 3.11328125) (5.360529708862304e-05, 3.115234375) (5.016080474853515e-05, 3.1171875) (4.672422409057617e-05, 3.119140625) (4.330383682250977e-05, 3.12109375) (3.9907676696777344e-05, 3.123046875) (3.654373550415039e-05, 3.125) (3.3219928741455075e-05, 3.126953125) (2.994384765625e-05, 3.12890625) (2.6722732543945312e-05, 3.130859375) (2.3563480377197264e-05, 3.1328125) (2.047260284423828e-05, 3.134765625) (1.745639419555664e-05, 3.13671875) (1.452097225189209e-05, 3.138671875) (1.1672112464904784e-05, 3.140625) (8.91526699066162e-06, 3.142578125) (6.255593299865722e-06, 3.14453125) (3.6978540420532226e-06, 3.146484375) (1.2466211318969727e-06, 3.1484375) (-1.0937190055847168e-06, 3.150390625) (-3.3193144798278805e-06, 3.15234375) (-5.426804542541504e-06, 3.154296875) (-7.413318634033203e-06, 3.15625) (-9.276671409606933e-06, 3.158203125) (-1.1015020370483399e-05, 3.16015625) (-1.2626726150512695e-05, 3.162109375) (-1.4110805511474608e-05, 3.1640625) (-1.5466863632202147e-05, 3.166015625) (-1.66948127746582e-05, 3.16796875) (-1.779507064819336e-05, 3.169921875) (-1.8768304824829102e-05, 3.171875) (-1.961526107788086e-05, 3.173828125) (-2.0337364196777342e-05, 3.17578125) (-2.0936817169189453e-05, 3.177734375) (-2.1416177749633788e-05, 3.1796875) (-2.1778347015380858e-05, 3.181640625) (-2.202689552307129e-05, 3.18359375) (-2.216603088378906e-05, 3.185546875) (-2.220105743408203e-05, 3.1875) (-2.213876914978027e-05, 3.189453125) (-2.1986385345458985e-05, 3.19140625) (-2.1751138687133787e-05, 3.193359375) (-2.14406623840332e-05, 3.1953125) (-2.1063018798828123e-05, 3.197265625) (-2.0626316070556638e-05, 3.19921875) (-2.0138832092285156e-05, 3.201171875) (-1.960818099975586e-05, 3.203125) (-1.9040201187133787e-05, 3.205078125) (-1.844061279296875e-05, 3.20703125) (-1.781574058532715e-05, 3.208984375) (-1.7172245025634765e-05, 3.2109375) (-1.6518154144287107e-05, 3.212890625) (-1.586161231994629e-05, 3.21484375) (-1.5209123611450195e-05, 3.216796875) (-1.4566862106323242e-05, 3.21875) (-1.3940582275390624e-05, 3.220703125) (-1.3334827423095702e-05, 3.22265625) (-1.2754547119140625e-05, 3.224609375) (-1.2202165603637695e-05, 3.2265625) (-1.1674943923950195e-05, 3.228515625) (-1.117099952697754e-05, 3.23046875) (-1.0690101623535156e-05, 3.232421875) (-1.0234048843383789e-05, 3.234375) (-9.812367439270018e-06, 3.236328125) (-9.433549880981444e-06, 3.23828125) (-9.098289489746094e-06, 3.240234375) (-8.806772232055664e-06, 3.2421875) (-8.5560884475708e-06, 3.244140625) (-8.335841178894042e-06, 3.24609375) (-8.135801315307617e-06, 3.248046875) (-7.938747406005859e-06, 3.25) (-7.713605403900147e-06, 3.251953125) (-7.431775569915771e-06, 3.25390625) (-7.0670166015625e-06, 3.255859375) (-6.59505558013916e-06, 3.2578125) (-6.005951881408691e-06, 3.259765625) (-5.287562370300292e-06, 3.26171875) (-4.417812824249268e-06, 3.263671875) (-3.374771118164062e-06, 3.265625) (-2.124164819717407e-06, 3.267578125) (-6.330242156982422e-07, 3.26953125) (1.1093028783798218e-06, 3.271484375) (3.1136498451232907e-06, 3.2734375) (5.384883880615234e-06, 3.275390625) (7.898979187011718e-06, 3.27734375) (1.0624719619750975e-05, 3.279296875) (1.3510225296020507e-05, 3.28125) (1.6468873977661132e-05, 3.283203125) (1.9429771423339842e-05, 3.28515625) (2.232413864135742e-05, 3.287109375) (2.506414794921875e-05, 3.2890625) (2.7583152770996093e-05, 3.291015625) (2.9803779602050778e-05, 3.29296875) (3.163123321533203e-05, 3.294921875) (3.3007591247558593e-05, 3.296875) (3.3832599639892574e-05, 3.298828125) (3.396603012084961e-05, 3.30078125) (3.336749267578125e-05, 3.302734375) (3.2055351257324216e-05, 3.3046875) (3.0155216217041015e-05, 3.306640625) (2.7974784851074217e-05, 3.30859375) (2.5798685073852538e-05, 3.310546875) (2.3851087570190427e-05, 3.3125) (2.2469278335571287e-05, 3.314453125) (2.2010103225708008e-05, 3.31640625) (2.269373321533203e-05, 3.318359375) (2.4641620635986326e-05, 3.3203125) (2.7557100296020506e-05, 3.322265625) (3.0754779815673824e-05, 3.32421875) (3.370481872558594e-05, 3.326171875) (3.599226760864258e-05, 3.328125) (3.7305328369140624e-05, 3.330078125) (3.74642105102539e-05, 3.33203125) (3.6288780212402344e-05, 3.333984375) (3.385360336303711e-05, 3.3359375) (3.103775405883789e-05, 3.337890625) (2.932036781311035e-05, 3.33984375) (3.0162109375e-05, 3.341796875) (3.500922012329102e-05, 3.34375) (4.4937782287597656e-05, 3.345703125) (6.088017272949219e-05, 3.34765625) (8.408026123046874e-05, 3.349609375) (0.00011533695983886718, 3.3515625) (0.00015446151733398438, 3.353515625) (0.0002004173126220703, 3.35546875) (0.0002515302581787109, 3.357421875) (0.0003056994934082031, 3.359375) (0.00036081732177734374, 3.361328125) (0.00041421435546874996, 3.36328125) (0.00046227947998046874, 3.365234375) (0.000501403076171875, 3.3671875) (0.00052814599609375, 3.369140625) (0.0005397465820312499, 3.37109375) (0.0005344481811523438, 3.373046875) (0.0005107761840820312, 3.375) (0.00046885394287109373, 3.376953125) (0.0004101351623535156, 3.37890625) (0.00033607891845703126, 3.380859375) (0.00025003985595703124, 3.3828125) (0.00015441465759277344, 3.384765625) (5.160634613037109e-05, 3.38671875) (-5.086805725097656e-05, 3.388671875) (-0.00014626913452148437, 3.390625) (-0.0002271531982421875, 3.392578125) (-0.00028605215454101564, 3.39453125) (-0.00032429675292968747, 3.396484375) (-0.0003441644897460937, 3.3984375) (-0.0003480943908691406, 3.400390625) (-0.00034090313720703126, 3.40234375) (-0.0003229154357910156, 3.404296875) (-0.00029525082397460935, 3.40625) (-0.00026136032104492185, 3.408203125) (-0.00022387762451171874, 3.41015625) (-0.00018668995666503904, 3.412109375) (-0.0001531701202392578, 3.4140625) (-0.00012520194244384765, 3.416015625) (-0.00010397721099853516, 3.41796875) (-8.946104431152343e-05, 3.419921875) (-8.079502868652343e-05, 3.421875) (-7.669702911376953e-05, 3.423828125) (-7.537981414794921e-05, 3.42578125) (-7.53753204345703e-05, 3.427734375) (-7.535816955566406e-05, 3.4296875) (-7.373112487792968e-05, 3.431640625) (-6.961486816406249e-05, 3.43359375) (-6.277363204956055e-05, 3.435546875) (-5.328915405273437e-05, 3.4375) (-4.186067199707031e-05, 3.439453125) (-2.9467559814453123e-05, 3.44140625) (-1.6829788208007812e-05, 3.443359375) (-4.752334594726562e-06, 3.4453125) (5.771376609802246e-06, 3.447265625) (1.423711585998535e-05, 3.44921875) (2.0435375213623047e-05, 3.451171875) (2.4297061920166014e-05, 3.453125) (2.6148921966552732e-05, 3.455078125) (2.6387447357177733e-05, 3.45703125) (2.5320302963256836e-05, 3.458984375) (2.33873348236084e-05, 3.4609375) (2.1065059661865233e-05, 3.462890625) (1.863920211791992e-05, 3.46484375) (1.634961700439453e-05, 3.466796875) (1.4398534774780272e-05, 3.46875) (1.2866348266601562e-05, 3.470703125) (1.1867494583129883e-05, 3.47265625) (1.1500797271728515e-05, 3.474609375) (1.177365493774414e-05, 3.4765625) (1.268457508087158e-05, 3.478515625) (1.4227577209472655e-05, 3.48046875) (1.63786563873291e-05, 3.482421875) (1.911709403991699e-05, 3.484375) (2.2406488418579102e-05, 3.486328125) (2.6172874450683592e-05, 3.48828125) (3.0332979202270507e-05, 3.490234375) (3.480527114868164e-05, 3.4921875) (3.951470947265625e-05, 3.494140625) (4.4404266357421874e-05, 3.49609375) (4.9402484893798825e-05, 3.498046875) (5.442120361328125e-05, 3.5) (5.9372741699218746e-05, 3.501953125) (6.416590118408202e-05, 3.50390625) (6.873930358886719e-05, 3.505859375) (7.306219482421874e-05, 3.5078125) (7.710855102539062e-05, 3.509765625) (8.086532592773437e-05, 3.51171875) (8.433290100097656e-05, 3.513671875) (8.752165222167968e-05, 3.515625) (9.045890808105468e-05, 3.517578125) (9.318482971191406e-05, 3.51953125) (9.57347640991211e-05, 3.521484375) (9.813983154296875e-05, 3.5234375) (0.00010042884063720703, 3.525390625) (0.00010262372589111327, 3.52734375) (0.0001047527618408203, 3.529296875) (0.00010684936523437499, 3.53125) (0.00010894688415527343, 3.533203125) (0.00011108159637451171, 3.53515625) (0.00011328036499023437, 3.537109375) (0.00011556031799316405, 3.5390625) (0.0001179368438720703, 3.541015625) (0.0001204210968017578, 3.54296875) (0.00012301921081542968, 3.544921875) (0.0001257337188720703, 3.546875) (0.00012856069946289063, 3.548828125) (0.00013149040222167969, 3.55078125) (0.00013451596069335937, 3.552734375) (0.00013763278198242188, 3.5546875) (0.00014083584594726562, 3.556640625) (0.00014412142944335936, 3.55859375) (0.00014748315429687498, 3.560546875) (0.00015091235351562498, 3.5625) (0.000154399658203125, 3.564453125) (0.00015793426513671874, 3.56640625) (0.00016150503540039062, 3.568359375) (0.00016510061645507812, 3.5703125) (0.0001687086181640625, 3.572265625) (0.00017231584167480467, 3.57421875) (0.00017590908813476563, 3.576171875) (0.000179474609375, 3.578125) (0.0001829989471435547, 3.580078125) (0.0001864693145751953, 3.58203125) (0.00018987113952636717, 3.583984375) (0.0001931885986328125, 3.5859375) (0.00019640536499023435, 3.587890625) (0.00019950437927246094, 3.58984375) (0.00020246876525878906, 3.591796875) (0.00020528216552734375, 3.59375) (0.000207927978515625, 3.595703125) (0.0002103898010253906, 3.59765625) (0.000212652099609375, 3.599609375) (0.00021470021057128904, 3.6015625) (0.00021652044677734374, 3.603515625) (0.00021810009765625, 3.60546875) (0.00021942727661132812, 3.607421875) (0.00022049090576171875, 3.609375) (0.00022128099060058593, 3.611328125) (0.00022178866577148435, 3.61328125) (0.00022200611877441404, 3.615234375) (0.00022192681884765624, 3.6171875) (0.00022154553222656248, 3.619140625) (0.0002208584747314453, 3.62109375) (0.00021986309814453123, 3.623046875) (0.00021855810546875, 3.625) (0.00021694366455078125, 3.626953125) (0.00021502124023437498, 3.62890625) (0.00021279379272460936, 3.630859375) (0.00021026560974121093, 3.6328125) (0.0002074423828125, 3.634765625) (0.00020433099365234375, 3.63671875) (0.00020093960571289062, 3.638671875) (0.00019727767944335936, 3.640625) (0.00019335588073730468, 3.642578125) (0.00018918588256835938, 3.64453125) (0.0001847804412841797, 3.646484375) (0.00018015325927734374, 3.6484375) (0.00017531884765625, 3.650390625) (0.00017029240417480468, 3.65234375) (0.00016508985900878906, 3.654296875) (0.00015972770690917968, 3.65625) (0.00015422286987304686, 3.658203125) (0.00014859274291992186, 3.66015625) (0.0001428547668457031, 3.662109375) (0.00013702655029296874, 3.6640625) (0.00013112574768066405, 3.666015625) (0.00012516999053955078, 3.66796875) (0.0001191768341064453, 3.669921875) (0.00011316361999511718, 3.671875) (0.00010714745330810546, 3.673828125) (0.00010114504241943359, 3.67578125) (9.517274475097656e-05, 3.677734375) (8.924647521972656e-05, 3.6796875) (8.338156127929688e-05, 3.681640625) (7.75927276611328e-05, 3.68359375) (7.189398193359375e-05, 3.685546875) (6.629856872558593e-05, 3.6875) (6.081897354125976e-05, 3.689453125) (5.5466888427734375e-05, 3.69140625) (5.02531509399414e-05, 3.693359375) (4.5187698364257814e-05, 3.6953125) (4.0279586791992185e-05, 3.697265625) (3.553694152832031e-05, 3.69921875) (3.096698570251465e-05, 3.701171875) (2.657602310180664e-05, 3.703125) (2.2369422912597654e-05, 3.705078125) (1.8351625442504883e-05, 3.70703125) (1.4526144981384277e-05, 3.708984375) (1.0895606994628905e-05, 3.7109375) (7.461795806884765e-06, 3.712890625) (4.225675582885742e-06, 3.71484375) (1.1874077320098876e-06, 3.716796875) (-1.6536214351654053e-06, 3.71875) (-4.298774719238281e-06, 3.720703125) (-6.750120162963867e-06, 3.72265625) (-9.010361671447753e-06, 3.724609375) (-1.1082813262939453e-05, 3.7265625) (-1.2971389770507812e-05, 3.728515625) (-1.4680578231811523e-05, 3.73046875) (-1.621538162231445e-05, 3.732421875) (-1.758127975463867e-05, 3.734375) (-1.8784154891967774e-05, 3.736328125) (-1.9830265045166016e-05, 3.73828125) (-2.0726213455200195e-05, 3.740234375) (-2.1478912353515623e-05, 3.7421875) (-2.2095518112182617e-05, 3.744140625) (-2.258337593078613e-05, 3.74609375) (-2.2949974060058594e-05, 3.748046875) (-2.3202899932861327e-05, 3.75) (-2.3349828720092773e-05, 3.751953125) (-2.3398483276367186e-05, 3.75390625) (-2.3356597900390623e-05, 3.755859375) (-2.3231884002685545e-05, 3.7578125) (-2.30319881439209e-05, 3.759765625) (-2.2764488220214843e-05, 3.76171875) (-2.2436885833740233e-05, 3.763671875) (-2.2056577682495115e-05, 3.765625) (-2.1630876541137696e-05, 3.767578125) (-2.1166957855224608e-05, 3.76953125) (-2.067184829711914e-05, 3.771484375) (-2.015243911743164e-05, 3.7734375) (-1.961548614501953e-05, 3.775390625) (-1.9067604064941404e-05, 3.77734375) (-1.851523208618164e-05, 3.779296875) (-1.796462059020996e-05, 3.78125) (-1.7421777725219726e-05, 3.783203125) (-1.689251136779785e-05, 3.78515625) (-1.6382425308227537e-05, 3.787109375) (-1.589688491821289e-05, 3.7890625) (-1.5441015243530274e-05, 3.791015625) (-1.501968193054199e-05, 3.79296875) (-1.4637468338012695e-05, 3.794921875) (-1.429871654510498e-05, 3.796875) (-1.4007527351379394e-05, 3.798828125) (-1.37677001953125e-05, 3.80078125) (-1.3582717895507812e-05, 3.802734375) (-1.3455732345581053e-05, 3.8046875) (-1.3389548301696777e-05, 3.806640625) (-1.3386658668518065e-05, 3.80859375) (-1.3449261665344238e-05, 3.810546875) (-1.3579238891601562e-05, 3.8125) (-1.3778181076049804e-05, 3.814453125) (-1.4047381401062011e-05, 3.81640625) (-1.4387826919555663e-05, 3.818359375) (-1.4800252914428711e-05, 3.8203125) (-1.5285148620605467e-05, 3.822265625) (-1.5842700004577637e-05, 3.82421875) (-1.647281265258789e-05, 3.826171875) (-1.7175052642822265e-05, 3.828125) (-1.7948585510253906e-05, 3.830078125) (-1.879226493835449e-05, 3.83203125) (-1.9704654693603515e-05, 3.833984375) (-2.0683948516845703e-05, 3.8359375) (-2.1727970123291016e-05, 3.837890625) (-2.283424186706543e-05, 3.83984375) (-2.3999897003173828e-05, 3.841796875) (-2.5221820831298827e-05, 3.84375) (-2.6496709823608398e-05, 3.845703125) (-2.782093048095703e-05, 3.84765625) (-2.919050598144531e-05, 3.849609375) (-3.060120010375976e-05, 3.8515625) (-3.2048488616943356e-05, 3.853515625) (-3.352756118774414e-05, 3.85546875) (-3.503338623046875e-05, 3.857421875) (-3.6560585021972654e-05, 3.859375) (-3.8103458404541015e-05, 3.861328125) (-3.965619659423828e-05, 3.86328125) (-4.121289825439453e-05, 3.865234375) (-4.276760482788086e-05, 3.8671875) (-4.431438827514648e-05, 3.869140625) (-4.584724044799804e-05, 3.87109375) (-4.736014556884765e-05, 3.873046875) (-4.884709930419922e-05, 3.875) (-5.030207061767578e-05, 3.876953125) (-5.171902465820312e-05, 3.87890625) (-5.309198760986328e-05, 3.880859375) (-5.441492462158203e-05, 3.8828125) (-5.5681781768798823e-05, 3.884765625) (-5.6886657714843747e-05, 3.88671875) (-5.802371215820312e-05, 3.888671875) (-5.9087371826171874e-05, 3.890625) (-6.0072521209716795e-05, 3.892578125) (-6.0974212646484374e-05, 3.89453125) (-6.178765106201171e-05, 3.896484375) (-6.250846099853515e-05, 3.8984375) (-6.313268280029297e-05, 3.900390625) (-6.365665435791016e-05, 3.90234375) (-6.40773468017578e-05, 3.904296875) (-6.439196777343749e-05, 3.90625) (-6.459790802001953e-05, 3.908203125) (-6.46932373046875e-05, 3.91015625) (-6.467680358886719e-05, 3.912109375) (-6.45479965209961e-05, 3.9140625) (-6.43068389892578e-05, 3.916015625) (-6.395418548583984e-05, 3.91796875) (-6.349158096313476e-05, 3.919921875) (-6.292164611816406e-05, 3.921875) (-6.224845123291016e-05, 3.923828125) (-6.147668838500977e-05, 3.92578125) (-6.0611572265624997e-05, 3.927734375) (-5.965912246704101e-05, 3.9296875) (-5.862592315673828e-05, 3.931640625) (-5.751888275146484e-05, 3.93359375) (-5.634543228149414e-05, 3.935546875) (-5.5112960815429683e-05, 3.9375) (-5.382856750488281e-05, 3.939453125) (-5.2500083923339844e-05, 3.94140625) (-5.113554382324219e-05, 3.943359375) (-4.974331283569336e-05, 3.9453125) (-4.8333038330078125e-05, 3.947265625) (-4.691471099853515e-05, 3.94921875) (-4.54989013671875e-05, 3.951171875) (-4.409726333618164e-05, 3.953125) (-4.2720661163330076e-05, 3.955078125) (-4.137917327880859e-05, 3.95703125) (-4.008358383178711e-05, 3.958984375) (-3.884261322021484e-05, 3.9609375) (-3.7662834167480465e-05, 3.962890625) (-3.655224609375e-05, 3.96484375) (-3.5517425537109374e-05, 3.966796875) (-3.4565692901611324e-05, 3.96875) (-3.37088508605957e-05, 3.970703125) (-3.295618438720703e-05, 3.97265625) (-3.231439208984375e-05, 3.974609375) (-3.1791542053222655e-05, 3.9765625) (-3.139141845703125e-05, 3.978515625) (-3.1112119674682615e-05, 3.98046875) (-3.094904327392578e-05, 3.982421875) (-3.088751220703125e-05, 3.984375) (-3.090486526489257e-05, 3.986328125) (-3.098089218139648e-05, 3.98828125) (-3.109318923950195e-05, 3.990234375) (-3.122077178955078e-05, 3.9921875) (-3.134859466552734e-05, 3.994140625) (-3.145681571960449e-05, 3.99609375) (-3.152545166015625e-05, 3.998046875) (-3.15363655090332e-05, 4.0) (-3.146308517456055e-05, 4.001953125) (-3.1281944274902344e-05, 4.00390625) (-3.0975893020629884e-05, 4.005859375) (-3.052189445495605e-05, 4.0078125) (-2.990506362915039e-05, 4.009765625) (-2.9128795623779295e-05, 4.01171875) (-2.8206438064575195e-05, 4.013671875) (-2.7179792404174803e-05, 4.015625) (-2.6114654541015624e-05, 4.017578125) (-2.5072818756103514e-05, 4.01953125) (-2.4113094329833984e-05, 4.021484375) (-2.329016304016113e-05, 4.0234375) (-2.2659421920776367e-05, 4.025390625) (-2.2293228149414063e-05, 4.02734375) (-2.227076721191406e-05, 4.029296875) (-2.2665273666381834e-05, 4.03125) (-2.3544677734375e-05, 4.033203125) (-2.4951164245605467e-05, 4.03515625) (-2.6945997238159177e-05, 4.037109375) (-2.9635158538818358e-05, 4.0390625) (-3.305092620849609e-05, 4.041015625) (-3.7137058258056637e-05, 4.04296875) (-4.173945617675781e-05, 4.044921875) (-4.6550590515136714e-05, 4.046875) (-5.1279621124267574e-05, 4.048828125) (-5.5748260498046876e-05, 4.05078125) (-5.97156982421875e-05, 4.052734375) (-6.287843322753906e-05, 4.0546875) (-6.503655242919922e-05, 4.056640625) (-6.60286865234375e-05, 4.05859375) (-6.595024108886719e-05, 4.060546875) (-6.52720489501953e-05, 4.0625) (-6.432048034667969e-05, 4.064453125) (-6.316949462890625e-05, 4.06640625) (-6.186185455322265e-05, 4.068359375) (-6.033383560180664e-05, 4.0703125) (-5.849851989746093e-05, 4.072265625) (-5.641474914550781e-05, 4.07421875) (-5.3688461303710934e-05, 4.076171875) (-4.935213851928711e-05, 4.078125) (-4.2565574645996094e-05, 4.080078125) (-3.2669403076171875e-05, 4.08203125) (-1.9183807373046873e-05, 4.083984375) (-1.870070457458496e-06, 4.0859375) (1.965280532836914e-05, 4.087890625) (4.603366088867187e-05, 4.08984375) (7.764308166503906e-05, 4.091796875) (0.00011433548736572266, 4.09375) (0.00015551263427734374, 4.095703125) (0.000200430419921875, 4.09765625) (0.0002473996887207031, 4.099609375) (0.0002933927001953125, 4.1015625) (0.00033651739501953124, 4.103515625) (0.0003750028381347656, 4.10546875) (0.0004080614929199219, 4.107421875) (0.00043763571166992185, 4.109375) (0.00046037335205078125, 4.111328125) (0.00046863500976562496, 4.11328125) (0.0004555128784179687, 4.115234375) (0.0004126282958984375, 4.1171875) (0.0003410318603515625, 4.119140625) (0.0002521203918457031, 4.12109375) (0.00015484811401367187, 4.123046875) (5.843831634521484e-05, 4.125) (-3.266342544555664e-05, 4.126953125) (-0.00012248498535156248, 4.12890625) (-0.00020829736328125, 4.130859375) (-0.00028355267333984375, 4.1328125) (-0.00034324908447265625, 4.134765625) (-0.0003777779541015625, 4.13671875) (-0.0003848631591796875, 4.138671875) (-0.00037003927612304686, 4.140625) (-0.00033660638427734376, 4.142578125) (-0.0002943218994140625, 4.14453125) (-0.00025317886352539063, 4.146484375) (-0.00021724658203124998, 4.1484375) (-0.00019301261901855468, 4.150390625) (-0.00018039202880859375, 4.15234375) (-0.0001736506805419922, 4.154296875) (-0.0001704049835205078, 4.15625) (-0.00016587655639648436, 4.158203125) (-0.0001579794006347656, 4.16015625) (-0.00014942630004882813, 4.162109375) (-0.00014040289306640626, 4.1640625) (-0.00013145372009277343, 4.166015625) (-0.000122986328125, 4.16796875) (-0.00011296818542480468, 4.169921875) (-0.00010044805908203124, 4.171875) (-8.574703979492187e-05, 4.173828125) (-6.934294891357421e-05, 4.17578125) (-5.2579353332519526e-05, 4.177734375) (-3.696834564208984e-05, 4.1796875) (-2.311127662658691e-05, 4.181640625) (-1.1224485397338868e-05, 4.18359375) (-1.5386078357696532e-06, 4.185546875) (5.873913764953613e-06, 4.1875) (1.1012052536010741e-05, 4.189453125) (1.3901063919067382e-05, 4.19140625) (1.484164810180664e-05, 4.193359375) (1.4377082824707031e-05, 4.1953125) (1.2873326301574707e-05, 4.197265625) (1.0566612243652344e-05, 4.19921875) (7.661083698272705e-06, 4.201171875) (4.2456626892089846e-06, 4.203125) (4.436098337173462e-07, 4.205078125) (-3.5498743057250974e-06, 4.20703125) (-7.5831975936889645e-06, 4.208984375) (-1.1557286262512206e-05, 4.2109375) (-1.5366071701049803e-05, 4.212890625) (-1.8918548583984375e-05, 4.21484375) (-2.2119680404663085e-05, 4.216796875) (-2.4836832046508787e-05, 4.21875) (-2.698554229736328e-05, 4.220703125) (-2.8538707733154295e-05, 4.22265625) (-2.9502412796020507e-05, 4.224609375) (-2.9925739288330077e-05, 4.2265625) (-2.9862323760986326e-05, 4.228515625) (-2.935615348815918e-05, 4.23046875) (-2.8454574584960936e-05, 4.232421875) (-2.720406150817871e-05, 4.234375) (-2.565084648132324e-05, 4.236328125) (-2.3853052139282224e-05, 4.23828125) (-2.1871658325195313e-05, 4.240234375) (-1.9754945755004884e-05, 4.2421875) (-1.7552577972412108e-05, 4.244140625) (-1.531111717224121e-05, 4.24609375) (-1.3079608917236328e-05, 4.248046875) (-1.0921714782714843e-05, 4.25) (-8.880674362182616e-06, 4.251953125) (-6.9720072746276855e-06, 4.25390625) (-5.192751407623291e-06, 4.255859375) (-3.5216331481933593e-06, 4.2578125) (-1.935719013214111e-06, 4.259765625) (-4.1675710678100585e-07, 4.26171875) (1.0583940744400025e-06, 4.263671875) (2.5192384719848633e-06, 4.265625) (3.992249965667724e-06, 4.267578125) (5.502917289733886e-06, 4.26953125) (7.072750091552734e-06, 4.271484375) (8.71486473083496e-06, 4.2734375) (1.0446934700012207e-05, 4.275390625) (1.228994846343994e-05, 4.27734375) (1.4267057418823242e-05, 4.279296875) (1.6406486511230467e-05, 4.28125) (1.8727169036865233e-05, 4.283203125) (2.1236488342285156e-05, 4.28515625) (2.3936203002929685e-05, 4.287109375) (2.682252883911133e-05, 4.2890625) (2.9888751983642577e-05, 4.291015625) (3.312738037109375e-05, 4.29296875) (3.652569580078125e-05, 4.294921875) (4.006478118896484e-05, 4.296875) (4.3727695465087886e-05, 4.298828125) (4.749979400634766e-05, 4.30078125) (5.136792755126953e-05, 4.302734375) (5.5321197509765624e-05, 4.3046875) (5.9345825195312494e-05, 4.306640625) (6.342503356933593e-05, 4.30859375) (6.754122924804687e-05, 4.310546875) (7.167601776123047e-05, 4.3125) (7.581173706054687e-05, 4.314453125) (7.993168640136719e-05, 4.31640625) (8.40186996459961e-05, 4.318359375) (8.805548095703125e-05, 4.3203125) (9.202574157714843e-05, 4.322265625) (9.591396331787108e-05, 4.32421875) (9.970609283447265e-05, 4.326171875) (0.00010338961791992186, 4.328125) (0.00010695127868652343, 4.330078125) (0.0001103772735595703, 4.33203125) (0.00011365418243408202, 4.333984375) (0.00011676870727539062, 4.3359375) (0.00011970834350585936, 4.337890625) (0.00012246163940429688, 4.33984375) (0.0001250173797607422, 4.341796875) (0.00012736475372314453, 4.34375) (0.0001294942169189453, 4.345703125) (0.00013139755249023436, 4.34765625) (0.00013306771850585936, 4.349609375) (0.00013449887084960937, 4.3515625) (0.00013568585205078125, 4.353515625) (0.00013662420654296875, 4.35546875) (0.00013731039428710936, 4.357421875) (0.0001377418518066406, 4.359375) (0.00013791688537597655, 4.361328125) (0.00013783441162109375, 4.36328125) (0.00013749391174316405, 4.365234375) (0.00013689553833007813, 4.3671875) (0.00013604031372070312, 4.369140625) (0.00013493013000488282, 4.37109375) (0.00013356771850585937, 4.373046875) (0.00013195648193359375, 4.375) (0.00013010060119628906, 4.376953125) (0.0001280048828125, 4.37890625) (0.00012567488861083985, 4.380859375) (0.00012311680603027344, 4.3828125) (0.00012033738708496094, 4.384765625) (0.00011734379577636718, 4.38671875) (0.00011414356994628905, 4.388671875) (0.00011074459838867187, 4.390625) (0.00010715525817871093, 4.392578125) (0.00010338438415527343, 4.39453125) (9.944120788574219e-05, 4.396484375) (9.533527374267578e-05, 4.3984375) (9.10765151977539e-05, 4.400390625) (8.667518615722656e-05, 4.40234375) (8.214187622070312e-05, 4.404296875) (7.748753356933593e-05, 4.40625) (7.27232437133789e-05, 4.408203125) (6.786016845703125e-05, 4.41015625) (6.290959167480468e-05, 4.412109375) (5.788291931152344e-05, 4.4140625) (5.279170989990234e-05, 4.416015625) (4.764775085449219e-05, 4.41796875) (4.246294784545898e-05, 4.419921875) (3.724933624267578e-05, 4.421875) (3.201910400390625e-05, 4.423828125) (2.6784589767456053e-05, 4.42578125) (2.15582218170166e-05, 4.427734375) (1.6352466583251953e-05, 4.4296875) (1.117974281311035e-05, 4.431640625) (6.052287101745605e-06, 4.43359375) (9.821203947067261e-07, 4.435546875) (-4.018996715545654e-06, 4.4375) (-8.939616203308104e-06, 4.439453125) (-1.3768629074096679e-05, 4.44140625) (-1.8495306015014647e-05, 4.443359375) (-2.310936737060547e-05, 4.4453125) (-2.760099411010742e-05, 4.447265625) (-3.196084403991699e-05, 4.44921875) (-3.618013763427734e-05, 4.451171875) (-4.025067901611328e-05, 4.453125) (-4.4164939880371095e-05, 4.455078125) (-4.791609954833984e-05, 4.45703125) (-5.14981689453125e-05, 4.458984375) (-5.490596771240234e-05, 4.4609375) (-5.8135185241699216e-05, 4.462890625) (-6.118242645263671e-05, 4.46484375) (-6.404512023925781e-05, 4.466796875) (-6.672159576416016e-05, 4.46875) (-6.921105194091797e-05, 4.470703125) (-7.151353454589844e-05, 4.47265625) (-7.362995910644532e-05, 4.474609375) (-7.556211853027344e-05, 4.4765625) (-7.731265258789062e-05, 4.478515625) (-7.888511657714843e-05, 4.48046875) (-8.0283935546875e-05, 4.482421875) (-8.151445007324219e-05, 4.484375) (-8.258287048339843e-05, 4.486328125) (-8.349625396728515e-05, 4.48828125) (-8.426237487792968e-05, 4.490234375) (-8.488975524902343e-05, 4.4921875) (-8.538755798339843e-05, 4.494140625) (-8.576544189453125e-05, 4.49609375) (-8.603350830078125e-05, 4.498046875) (-8.620228576660156e-05, 4.5) (-8.62825469970703e-05, 4.501953125) (-8.628532409667969e-05, 4.50390625) (-8.622181701660156e-05, 4.505859375) (-8.610326385498047e-05, 4.5078125) (-8.594094848632813e-05, 4.509765625) (-8.574618530273437e-05, 4.51171875) (-8.5530029296875e-05, 4.513671875) (-8.530323791503906e-05, 4.515625) (-8.507626342773438e-05, 4.517578125) (-8.485906219482421e-05, 4.51953125) (-8.466096496582031e-05, 4.521484375) (-8.449069976806641e-05, 4.5234375) (-8.435612487792968e-05, 4.525390625) (-8.426424407958984e-05, 4.52734375) (-8.422135925292968e-05, 4.529296875) (-8.423298645019531e-05, 4.53125) (-8.430383300781249e-05, 4.533203125) (-8.443788146972656e-05, 4.53515625) (-8.463816833496093e-05, 4.537109375) (-8.490694427490235e-05, 4.5390625) (-8.524565887451171e-05, 4.541015625) (-8.565480041503906e-05, 4.54296875) (-8.613392639160156e-05, 4.544921875) (-8.668174743652343e-05, 4.546875) (-8.729591369628906e-05, 4.548828125) (-8.797316741943359e-05, 4.55078125) (-8.870948791503905e-05, 4.552734375) (-8.949992370605468e-05, 4.5546875) (-9.033883666992188e-05, 4.556640625) (-9.122016906738281e-05, 4.55859375) (-9.213713836669922e-05, 4.560546875) (-9.308232116699219e-05, 4.5625) (-9.404801940917969e-05, 4.564453125) (-9.5026123046875e-05, 4.56640625) (-9.600814819335936e-05, 4.568359375) (-9.698563385009765e-05, 4.5703125) (-9.794985961914062e-05, 4.572265625) (-9.889183044433594e-05, 4.57421875) (-9.980291748046875e-05, 4.576171875) (-0.00010067485046386718, 4.578125) (-0.00010149969482421875, 4.580078125) (-0.00010227001953125, 4.58203125) (-0.00010297918701171875, 4.583984375) (-0.00010362138366699218, 4.5859375) (-0.0001041920166015625, 4.587890625) (-0.00010468779754638672, 4.58984375) (-0.00010510623168945312, 4.591796875) (-0.00010544556427001952, 4.59375) (-0.00010570504760742188, 4.595703125) (-0.000105885009765625, 4.59765625) (-0.00010598643493652343, 4.599609375) (-0.00010601088714599609, 4.6015625) (-0.0001059602813720703, 4.603515625) (-0.00010583663940429686, 4.60546875) (-0.00010564307403564452, 4.607421875) (-0.00010538384246826171, 4.609375) (-0.00010506399536132812, 4.611328125) (-0.0001046896514892578, 4.61328125) (-0.00010426778411865234, 4.615234375) (-0.00010380605316162109, 4.6171875) (-0.00010331346893310546, 4.619140625) (-0.00010279999542236327, 4.62109375) (-0.00010227529907226562, 4.623046875) (-0.00010174964904785156, 4.625) (-0.0001012319564819336, 4.626953125) (-0.00010072877502441406, 4.62890625) (-0.00010024839782714843, 4.630859375) (-9.979925537109375e-05, 4.6328125) (-9.939053344726562e-05, 4.634765625) (-9.903520202636718e-05, 4.63671875) (-9.874388122558594e-05, 4.638671875) (-9.852240753173827e-05, 4.640625) (-9.837792205810547e-05, 4.642578125) (-9.831612396240234e-05, 4.64453125) (-9.833634185791015e-05, 4.646484375) (-9.843618774414062e-05, 4.6484375) (-9.86041030883789e-05, 4.650390625) (-9.881593322753906e-05, 4.65234375) (-9.905010223388672e-05, 4.654296875) (-9.92854995727539e-05, 4.65625) (-9.95011978149414e-05, 4.658203125) (-9.968390655517578e-05, 4.66015625) (-9.981592559814452e-05, 4.662109375) (-9.987457275390625e-05, 4.6640625) (-9.983981323242186e-05, 4.666015625) (-9.96857452392578e-05, 4.66796875) (-9.938880157470703e-05, 4.669921875) (-9.893934631347656e-05, 4.671875) (-9.832196044921874e-05, 4.673828125) (-9.752144622802734e-05, 4.67578125) (-9.654409790039062e-05, 4.677734375) (-9.540007019042968e-05, 4.6796875) (-9.412496948242187e-05, 4.681640625) (-9.279565429687499e-05, 4.68359375) (-9.148122406005859e-05, 4.685546875) (-9.024652099609375e-05, 4.6875) (-8.915861511230468e-05, 4.689453125) (-8.82595977783203e-05, 4.69140625) (-8.760566711425781e-05, 4.693359375) (-8.727989196777343e-05, 4.6953125) (-8.735052490234374e-05, 4.697265625) (-8.789088439941405e-05, 4.69921875) (-8.896696472167969e-05, 4.701171875) (-9.05943603515625e-05, 4.703125) (-9.2827392578125e-05, 4.705078125) (-9.575025939941405e-05, 4.70703125) (-9.934080505371093e-05, 4.708984375) (-0.00010351747894287109, 4.7109375) (-0.00010807474517822266, 4.712890625) (-0.00011263220214843749, 4.71484375) (-0.00011686989593505859, 4.716796875) (-0.00012054228973388672, 4.71875) (-0.00012331806945800781, 4.720703125) (-0.00012485950469970703, 4.72265625) (-0.00012492008209228516, 4.724609375) (-0.00012331117248535155, 4.7265625) (-0.00012021089935302734, 4.728515625) (-0.00011611580657958984, 4.73046875) (-0.00011138503265380859, 4.732421875) (-0.0001063482666015625, 4.734375) (-0.00010129231262207031, 4.736328125) (-9.642777252197265e-05, 4.73828125) (-9.204590606689453e-05, 4.740234375) (-8.829473876953125e-05, 4.7421875) (-8.465608978271484e-05, 4.744140625) (-8.01581802368164e-05, 4.74609375) (-7.380323791503905e-05, 4.748046875) (-6.435503387451172e-05, 4.75) (-5.080390167236328e-05, 4.751953125) (-3.229343795776367e-05, 4.75390625) (-7.527640342712402e-06, 4.755859375) (2.465434646606445e-05, 4.7578125) (6.456155395507812e-05, 4.759765625) (0.00011184365844726562, 4.76171875) (0.00016471575927734375, 4.763671875) (0.0002196890869140625, 4.765625) (0.00027370175170898434, 4.767578125) (0.00032440490722656246, 4.76953125) (0.00037111813354492185, 4.771484375) (0.0004142030029296875, 4.7734375) (0.00045158981323242185, 4.775390625) (0.0004776586303710937, 4.77734375) (0.00048330627441406246, 4.779296875) (0.0004607749328613281, 4.78125) (0.00040768502807617184, 4.783203125) (0.0003276898498535156, 4.78515625) (0.0002289727783203125, 4.787109375) (0.00011887121582031249, 4.7890625) (3.603518486022949e-06, 4.791015625) (-0.00010974311828613281, 4.79296875) (-0.0002117537384033203, 4.794921875) (-0.0002914869384765625, 4.796875) (-0.000342034423828125, 4.798828125) (-0.00036412509155273433, 4.80078125) (-0.00036619818115234376, 4.802734375) (-0.0003585418701171875, 4.8046875) (-0.0003474888000488281, 4.806640625) (-0.00033435308837890626, 4.80859375) (-0.0003165272827148437, 4.810546875) (-0.00029274688720703124, 4.8125) (-0.00026487145996093747, 4.814453125) (-0.0002361994171142578, 4.81640625) (-0.0002106655578613281, 4.818359375) (-0.0001903720245361328, 4.8203125) (-0.0001756348114013672, 4.822265625) (-0.00016611709594726562, 4.82421875) (-0.00016068692016601562, 4.826171875) (-0.00015794641113281248, 4.828125) (-0.00015654461669921873, 4.830078125) (-0.00015514431762695313, 4.83203125) (-0.00015264076232910157, 4.833984375) (-0.00014838519287109375, 4.8359375) (-0.00014192170715332032, 4.837890625) (-0.00013308648681640626, 4.83984375) (-0.00012215100860595701, 4.841796875) (-0.00010972868347167969, 4.84375) (-9.667008972167968e-05, 4.845703125) (-8.387639617919921e-05, 4.84765625) (-7.219206237792969e-05, 4.849609375) (-6.216592407226562e-05, 4.8515625) (-5.413928985595703e-05, 4.853515625) (-4.82899055480957e-05, 4.85546875) (-4.456049728393555e-05, 4.857421875) (-4.2757026672363276e-05, 4.859375) (-4.257207870483398e-05, 4.861328125) (-4.359986114501953e-05, 4.86328125) (-4.5403411865234374e-05, 4.865234375) (-4.7674587249755854e-05, 4.8671875) (-5.020881271362305e-05, 4.869140625) (-5.2851913452148434e-05, 4.87109375) (-5.551766204833984e-05, 4.873046875) (-5.8097389221191406e-05, 4.875) (-6.0471641540527344e-05, 4.876953125) (-6.256580352783204e-05, 4.87890625) (-6.43189697265625e-05, 4.880859375) (-6.565487670898437e-05, 4.8828125) (-6.650962829589843e-05, 4.884765625) (-6.683279418945312e-05, 4.88671875) (-6.658587646484375e-05, 4.888671875) (-6.578125e-05, 4.890625) (-6.44616470336914e-05, 4.892578125) (-6.267670059204101e-05, 4.89453125) (-6.049065017700195e-05, 4.896484375) (-5.7961944580078125e-05, 4.8984375) (-5.513665390014648e-05, 4.900390625) (-5.206372833251953e-05, 4.90234375) (-4.8792030334472655e-05, 4.904296875) (-4.537128067016601e-05, 4.90625) (-4.185856628417968e-05, 4.908203125) (-3.830778503417969e-05, 4.91015625) (-3.4774391174316405e-05, 4.912109375) (-3.132034683227539e-05, 4.9140625) (-2.7991714477539063e-05, 4.916015625) (-2.4817365646362302e-05, 4.91796875) (-2.1812211990356446e-05, 4.919921875) (-1.896955680847168e-05, 4.921875) (-1.627437400817871e-05, 4.923828125) (-1.3710051536560058e-05, 4.92578125) (-1.125104522705078e-05, 4.927734375) (-8.869017601013184e-06, 4.9296875) (-6.541065692901611e-06, 4.931640625) (-4.245455265045166e-06, 4.93359375) (-1.964582085609436e-06, 4.935546875) (3.1438881158828733e-07, 4.9375) (2.6097970008850098e-06, 4.939453125) (4.942466735839843e-06, 4.94140625) (7.3355331420898436e-06, 4.943359375) (9.816741943359375e-06, 4.9453125) (1.240646743774414e-05, 4.947265625) (1.5117005348205566e-05, 4.94921875) (1.7956581115722656e-05, 4.951171875) (2.0926603317260743e-05, 4.953125) (2.4024938583374022e-05, 4.955078125) (2.7248222351074216e-05, 4.95703125) (3.058743667602539e-05, 4.958984375) (3.4028915405273434e-05, 4.9609375) (3.75610237121582e-05, 4.962890625) (4.117315292358398e-05, 4.96484375) (4.485589981079101e-05, 4.966796875) (4.860224151611328e-05, 4.96875) (5.240233612060547e-05, 4.970703125) (5.624364852905273e-05, 4.97265625) (6.011288452148437e-05, 4.974609375) (6.399520492553711e-05, 4.9765625) (6.787625122070312e-05, 4.978515625) (7.174264526367187e-05, 4.98046875) (7.558038330078124e-05, 4.982421875) (7.937519073486328e-05, 4.984375) (8.31136474609375e-05, 4.986328125) (8.678277587890625e-05, 4.98828125) (9.03709487915039e-05, 4.990234375) (9.386793518066406e-05, 4.9921875) (9.726270294189453e-05, 4.994140625) (0.00010054354095458984, 4.99609375) (0.00010369895935058593, 4.998046875) (0.0001067174301147461, 5.0) (0.00010958813476562499, 5.001953125) (0.00011230117797851561, 5.00390625) (0.00011484681701660155, 5.005859375) (0.00011721556091308594, 5.0078125) (0.00011939907836914062, 5.009765625) (0.00012139011383056641, 5.01171875) (0.00012318246459960938, 5.013671875) (0.00012477114105224608, 5.015625) (0.00012615174865722656, 5.017578125) (0.00012732056427001954, 5.01953125) (0.00012827482604980467, 5.021484375) (0.00012901266479492187, 5.0234375) (0.00012953318786621093, 5.025390625) (0.0001298365478515625, 5.02734375) (0.00012992350769042968, 5.029296875) (0.0001297955627441406, 5.03125) (0.0001294551544189453, 5.033203125) (0.00012890560913085937, 5.03515625) (0.00012815115356445313, 5.037109375) (0.00012719689178466797, 5.0390625) (0.00012604853057861327, 5.041015625) (0.00012471240234375, 5.04296875) (0.0001231954650878906, 5.044921875) (0.00012150531005859375, 5.046875) (0.0001196499786376953, 5.048828125) (0.00011763784027099609, 5.05078125) (0.00011547753143310547, 5.052734375) (0.0001131778335571289, 5.0546875) (0.00011074774169921874, 5.056640625) (0.00010819650268554687, 5.05859375) (0.00010553340911865233, 5.060546875) (0.00010276783752441405, 5.0625) (9.99091796875e-05, 5.064453125) (9.696676635742186e-05, 5.06640625) (9.394996643066406e-05, 5.068359375) (9.086810302734375e-05, 5.0703125) (8.77303466796875e-05, 5.072265625) (8.454562377929688e-05, 5.07421875) (8.132267761230468e-05, 5.076171875) (7.807003784179686e-05, 5.078125) (7.479605102539063e-05, 5.080078125) (7.150900268554688e-05, 5.08203125) (6.821697998046875e-05, 5.083984375) (6.49278564453125e-05, 5.0859375) (6.164934539794922e-05, 5.087890625) (5.8388961791992183e-05, 5.08984375) (5.515406799316406e-05, 5.091796875) (5.195180892944336e-05, 5.09375) (4.87890510559082e-05, 5.095703125) (4.567237091064453e-05, 5.09765625) (4.260797882080078e-05, 5.099609375) (3.9601745605468746e-05, 5.1015625) (3.665924835205078e-05, 5.103515625) (3.3785751342773434e-05, 5.10546875) (3.0986171722412106e-05, 5.107421875) (2.82651309967041e-05, 5.109375) (2.562690544128418e-05, 5.111328125) (2.3075477600097656e-05, 5.11328125) (2.0614553451538084e-05, 5.115234375) (1.8247591018676758e-05, 5.1171875) (1.5977758407592772e-05, 5.119140625) (1.3807937622070312e-05, 5.12109375) (1.1740729331970215e-05, 5.123046875) (9.77846336364746e-06, 5.125) (7.923233032226562e-06, 5.126953125) (6.176902770996094e-06, 5.12890625) (4.54110050201416e-06, 5.130859375) (3.017202854156494e-06, 5.1328125) (1.6063464879989622e-06, 5.134765625) (3.09416651725769e-07, 5.13671875) (-8.729600310325622e-07, 5.138671875) (-1.940441012382507e-06, 5.140625) (-2.8930239677429198e-06, 5.142578125) (-3.73108696937561e-06, 5.14453125) (-4.455417633056641e-06, 5.146484375) (-5.067231655120849e-06, 5.1484375) (-5.56817102432251e-06, 5.150390625) (-5.960314273834228e-06, 5.15234375) (-6.246187210083008e-06, 5.154296875) (-6.428757667541504e-06, 5.15625) (-6.51141881942749e-06, 5.158203125) (-6.497956275939941e-06, 5.16015625) (-6.392509460449218e-06, 5.162109375) (-6.199550151824951e-06, 5.1640625) (-5.923871994018554e-06, 5.166015625) (-5.570574283599853e-06, 5.16796875) (-5.145041465759277e-06, 5.169921875) (-4.652910232543945e-06, 5.171875) (-4.100029945373535e-06, 5.173828125) (-3.49243688583374e-06, 5.17578125) (-2.8363521099090577e-06, 5.177734375) (-2.138160705566406e-06, 5.1796875) (-1.4043837785720825e-06, 5.181640625) (-6.416495442390442e-07, 5.18359375) (1.4334377646446228e-07, 5.185546875) (9.438453912734984e-07, 5.1875) (1.7530503273010253e-06, 5.189453125) (2.564110994338989e-06, 5.19140625) (3.370157241821289e-06, 5.193359375) (4.1643228530883784e-06, 5.1953125) (4.939785957336426e-06, 5.197265625) (5.689799308776855e-06, 5.19921875) (6.407720565795898e-06, 5.201171875) (7.087060928344726e-06, 5.203125) (7.721555709838868e-06, 5.205078125) (8.30523681640625e-06, 5.20703125) (8.832508087158202e-06, 5.208984375) (9.298208236694335e-06, 5.2109375) (9.697647094726563e-06, 5.212890625) (1.0026643753051758e-05, 5.21484375) (1.0281583786010742e-05, 5.216796875) (1.0459439277648925e-05, 5.21875) (1.0557795524597168e-05, 5.220703125) (1.057485008239746e-05, 5.22265625) (1.0509398460388183e-05, 5.224609375) (1.0360828399658202e-05, 5.2265625) (1.0129133224487304e-05, 5.228515625) (9.814903259277344e-06, 5.23046875) (9.419333457946777e-06, 5.232421875) (8.944188117980956e-06, 5.234375) (8.391785621643066e-06, 5.236328125) (7.764959812164306e-06, 5.23828125) (7.067062377929687e-06, 5.240234375) (6.3019347190856935e-06, 5.2421875) (5.47388219833374e-06, 5.244140625) (4.587629795074462e-06, 5.24609375) (3.648280620574951e-06, 5.248046875) (2.66128945350647e-06, 5.25) (1.6324567794799804e-06, 5.251953125) (5.679161548614501e-07, 5.25390625) (-5.258811712265015e-07, 5.255859375) (-1.6421923637390137e-06, 5.2578125) (-2.774019956588745e-06, 5.259765625) (-3.914140224456787e-06, 5.26171875) (-5.055130958557128e-06, 5.263671875) (-6.1894211769104005e-06, 5.265625) (-7.309356689453124e-06, 5.267578125) (-8.407283782958984e-06, 5.26953125) (-9.475638389587402e-06, 5.271484375) (-1.0507011413574219e-05, 5.2734375) (-1.1494207382202149e-05, 5.275390625) (-1.2430292129516601e-05, 5.27734375) (-1.330865478515625e-05, 5.279296875) (-1.412305450439453e-05, 5.28125) (-1.4867668151855468e-05, 5.283203125) (-1.553711223602295e-05, 5.28515625) (-1.6126443862915038e-05, 5.287109375) (-1.6631210327148436e-05, 5.2890625) (-1.7047470092773435e-05, 5.291015625) (-1.7371829986572265e-05, 5.29296875) (-1.7601497650146484e-05, 5.294921875) (-1.7734264373779297e-05, 5.296875) (-1.776852798461914e-05, 5.298828125) (-1.7703252792358396e-05, 5.30078125) (-1.753800582885742e-05, 5.302734375) (-1.727293586730957e-05, 5.3046875) (-1.6908748626708982e-05, 5.306640625) (-1.6446672439575195e-05, 5.30859375) (-1.5888426780700682e-05, 5.310546875) (-1.5236204147338866e-05, 5.3125) (-1.449268341064453e-05, 5.314453125) (-1.3661020278930663e-05, 5.31640625) (-1.2744865417480468e-05, 5.318359375) (-1.1748344421386719e-05, 5.3203125) (-1.0676040649414062e-05, 5.322265625) (-9.53297233581543e-06, 5.32421875) (-8.32458209991455e-06, 5.326171875) (-7.0567111968994136e-06, 5.328125) (-5.735540390014648e-06, 5.330078125) (-4.367529392242432e-06, 5.33203125) (-2.9593386650085446e-06, 5.333984375) (-1.5177865028381347e-06, 5.3359375) (-4.9817264080047605e-08, 5.337890625) (1.4375286102294922e-06, 5.33984375) (2.9371542930603025e-06, 5.341796875) (4.441952228546142e-06, 5.34375) (5.944847106933594e-06, 5.345703125) (7.438824653625488e-06, 5.34765625) (8.916963577270507e-06, 5.349609375) (1.0372476577758788e-05, 5.3515625) (1.179878520965576e-05, 5.353515625) (1.318958568572998e-05, 5.35546875) (1.4538909912109374e-05, 5.357421875) (1.584115791320801e-05, 5.359375) (1.709111785888672e-05, 5.361328125) (1.8283966064453126e-05, 5.36328125) (1.9415290832519532e-05, 5.365234375) (2.0481094360351563e-05, 5.3671875) (2.147778511047363e-05, 5.369140625) (2.240216064453125e-05, 5.37109375) (2.325137710571289e-05, 5.373046875) (2.402297592163086e-05, 5.375) (2.471487808227539e-05, 5.376953125) (2.5325439453124998e-05, 5.37890625) (2.5853446960449217e-05, 5.380859375) (2.6298126220703124e-05, 5.3828125) (2.6659116744995117e-05, 5.384765625) (2.6936473846435547e-05, 5.38671875) (2.7130634307861328e-05, 5.388671875) (2.72424259185791e-05, 5.390625) (2.727302360534668e-05, 5.392578125) (2.7223896026611327e-05, 5.39453125) (2.7096778869628904e-05, 5.396484375) (2.6893650054931638e-05, 5.3984375) (2.661673355102539e-05, 5.400390625) (2.6268520355224607e-05, 5.40234375) (2.585175132751465e-05, 5.404296875) (2.53693904876709e-05, 5.40625) (2.4824607849121092e-05, 5.408203125) (2.4220729827880857e-05, 5.41015625) (2.3561233520507812e-05, 5.412109375) (2.284968566894531e-05, 5.4140625) (2.2089683532714843e-05, 5.416015625) (2.12847785949707e-05, 5.41796875) (2.0438411712646482e-05, 5.419921875) (1.955389976501465e-05, 5.421875) (1.8634410858154296e-05, 5.423828125) (1.768297576904297e-05, 5.42578125) (1.6702468872070313e-05, 5.427734375) (1.5695616722106934e-05, 5.4296875) (1.4664985656738281e-05, 5.431640625) (1.3613012313842772e-05, 5.43359375) (1.2541996955871582e-05, 5.435546875) (1.1454110145568848e-05, 5.4375) (1.035136032104492e-05, 5.439453125) (9.23557949066162e-06, 5.44140625) (8.108412742614745e-06, 5.443359375) (6.971335411071777e-06, 5.4453125) (5.825689315795898e-06, 5.447265625) (4.672721862792969e-06, 5.44921875) (3.5136046409606933e-06, 5.451171875) (2.3494653701782226e-06, 5.453125) (1.1814186573028565e-06, 5.455078125) (1.0600000619888305e-08, 5.45703125) (-1.1617995500564574e-06, 5.458984375) (-2.334536552429199e-06, 5.4609375) (-3.506343126296997e-06, 5.462890625) (-4.675946235656738e-06, 5.46484375) (-5.842071533203125e-06, 5.466796875) (-7.003430366516113e-06, 5.46875) (-8.158689498901366e-06, 5.470703125) (-9.306442260742187e-06, 5.47265625) (-1.0445198059082031e-05, 5.474609375) (-1.1573347091674805e-05, 5.4765625) (-1.2689105987548827e-05, 5.478515625) (-1.3790482521057129e-05, 5.48046875) (-1.4875233650207518e-05, 5.482421875) (-1.594085884094238e-05, 5.484375) (-1.6984632492065428e-05, 5.486328125) (-1.800361442565918e-05, 5.48828125) (-1.8994661331176756e-05, 5.490234375) (-1.9954458236694336e-05, 5.4921875) (-2.08795108795166e-05, 5.494140625) (-2.176616668701172e-05, 5.49609375) (-2.2610649108886716e-05, 5.498046875) (-2.3409069061279294e-05, 5.5) (-2.4157423019409177e-05, 5.501953125) (-2.485161018371582e-05, 5.50390625) (-2.548744964599609e-05, 5.505859375) (-2.6060722351074218e-05, 5.5078125) (-2.65672607421875e-05, 5.509765625) (-2.7003023147583008e-05, 5.51171875) (-2.7364112854003904e-05, 5.513671875) (-2.764685821533203e-05, 5.515625) (-2.7847839355468748e-05, 5.517578125) (-2.7963933944702147e-05, 5.51953125) (-2.7992387771606443e-05, 5.521484375) (-2.7930830001831054e-05, 5.5234375) (-2.7777235031127927e-05, 5.525390625) (-2.7529953002929688e-05, 5.52734375) (-2.7187719345092772e-05, 5.529296875) (-2.6749668121337888e-05, 5.53125) (-2.621541976928711e-05, 5.533203125) (-2.558512496948242e-05, 5.53515625) (-2.4859426498413084e-05, 5.537109375) (-2.4039506912231444e-05, 5.5390625) (-2.3127120971679685e-05, 5.541015625) (-2.2124595642089844e-05, 5.54296875) (-2.1034894943237304e-05, 5.544921875) (-1.9861602783203125e-05, 5.546875) (-1.860887336730957e-05, 5.548828125) (-1.7281394958496094e-05, 5.55078125) (-1.5884373664855957e-05, 5.552734375) (-1.4423484802246093e-05, 5.5546875) (-1.2904902458190917e-05, 5.556640625) (-1.133528709411621e-05, 5.55859375) (-9.721662521362304e-06, 5.560546875) (-8.071402549743652e-06, 5.5625) (-6.392201423645019e-06, 5.564453125) (-4.6919736862182615e-06, 5.56640625) (-2.9789042472839354e-06, 5.568359375) (-1.2614128589630127e-06, 5.5703125) (4.520517289638519e-07, 5.572265625) (2.1530604362487793e-06, 5.57421875) (3.833198547363281e-06, 5.576171875) (5.4841933250427245e-06, 5.578125) (7.097888469696045e-06, 5.580078125) (8.666242599487304e-06, 5.58203125) (1.0181556701660156e-05, 5.583984375) (1.1636518478393553e-05, 5.5859375) (1.302412223815918e-05, 5.587890625) (1.4337734222412108e-05, 5.58984375) (1.5571163177490235e-05, 5.591796875) (1.6718626022338865e-05, 5.59375) (1.7774959564208985e-05, 5.595703125) (1.873571014404297e-05, 5.59765625) (1.959693145751953e-05, 5.599609375) (2.035525703430176e-05, 5.6015625) (2.1007905960083006e-05, 5.603515625) (2.1552671432495116e-05, 5.60546875) (2.1988075256347656e-05, 5.607421875) (2.2313379287719726e-05, 5.609375) (2.252845764160156e-05, 5.611328125) (2.2633773803710935e-05, 5.61328125) (2.2630407333374023e-05, 5.615234375) (2.2519922256469726e-05, 5.6171875) (2.2304569244384765e-05, 5.619140625) (2.1987247467041015e-05, 5.62109375) (2.1571208953857422e-05, 5.623046875) (2.1060058593749998e-05, 5.625) (2.0457752227783204e-05, 5.626953125) (1.976837158203125e-05, 5.62890625) (1.8996360778808594e-05, 5.630859375) (1.814657211303711e-05, 5.6328125) (1.7223773956298827e-05, 5.634765625) (1.6232669830322264e-05, 5.63671875) (1.5178109169006347e-05, 5.638671875) (1.4064823150634765e-05, 5.640625) (1.2897615432739257e-05, 5.642578125) (1.1681459426879882e-05, 5.64453125) (1.042091941833496e-05, 5.646484375) (9.120104789733886e-06, 5.6484375) (7.783076286315918e-06, 5.650390625) (6.413814067840576e-06, 5.65234375) (5.015927314758301e-06, 5.654296875) (3.5926246643066406e-06, 5.65625) (2.14622163772583e-06, 5.658203125) (6.778467893600464e-07, 5.66015625) (-8.116818666458129e-07, 5.662109375) (-2.3216099739074704e-06, 5.6640625) (-3.851647138595581e-06, 5.666015625) (-5.402015686035156e-06, 5.66796875) (-6.9732031822204584e-06, 5.669921875) (-8.566096305847168e-06, 5.671875) (-1.0181097030639648e-05, 5.673828125) (-1.181723403930664e-05, 5.67578125) (-1.34735107421875e-05, 5.677734375) (-1.514932346343994e-05, 5.6796875) (-1.6844448089599608e-05, 5.681640625) (-1.8559913635253904e-05, 5.68359375) (-2.0296810150146482e-05, 5.685546875) (-2.2054832458496094e-05, 5.6875) (-2.383332061767578e-05, 5.689453125) (-2.5630939483642578e-05, 5.69140625) (-2.7445175170898436e-05, 5.693359375) (-2.927388572692871e-05, 5.6953125) (-3.111225128173828e-05, 5.697265625) (-3.2951202392578124e-05, 5.69921875) (-3.478250885009766e-05, 5.701171875) (-3.659852600097656e-05, 5.703125) (-3.8393558502197265e-05, 5.705078125) (-4.0168624877929686e-05, 5.70703125) (-4.192395782470703e-05, 5.708984375) (-4.3654666900634765e-05, 5.7109375) (-4.535657882690429e-05, 5.712890625) (-4.702260589599609e-05, 5.71484375) (-4.863947296142578e-05, 5.716796875) (-5.0194808959960936e-05, 5.71875) (-5.167043304443359e-05, 5.720703125) (-5.3038208007812495e-05, 5.72265625) (-5.427330017089843e-05, 5.724609375) (-5.5351219177246094e-05, 5.7265625) (-5.624938583374023e-05, 5.728515625) (-5.6955902099609374e-05, 5.73046875) (-5.7455101013183594e-05, 5.732421875) (-5.7725318908691407e-05, 5.734375) (-5.7744037628173826e-05, 5.736328125) (-5.747608184814453e-05, 5.73828125) (-5.688661193847656e-05, 5.740234375) (-5.5955028533935545e-05, 5.7421875) (-5.46572265625e-05, 5.744140625) (-5.297788619995117e-05, 5.74609375) (-5.0928497314453125e-05, 5.748046875) (-4.85244140625e-05, 5.75) (-4.5800373077392576e-05, 5.751953125) (-4.281577682495117e-05, 5.75390625) (-3.96124267578125e-05, 5.755859375) (-3.6241668701171876e-05, 5.7578125) (-3.2775421142578124e-05, 5.759765625) (-2.927345275878906e-05, 5.76171875) (-2.581479454040527e-05, 5.763671875) (-2.2487205505371092e-05, 5.765625) (-1.93491268157959e-05, 5.767578125) (-1.651071548461914e-05, 5.76953125) (-1.4126444816589354e-05, 5.771484375) (-1.2263336181640625e-05, 5.7734375) (-1.0925499916076659e-05, 5.775390625) (-1.0000020027160644e-05, 5.77734375) (-9.190376281738282e-06, 5.779296875) (-8.218588829040528e-06, 5.78125) (-6.871116638183593e-06, 5.783203125) (-4.836318492889404e-06, 5.78515625) (-1.7845458984375e-06, 5.787109375) (2.4438929557800292e-06, 5.7890625) (7.838318824768066e-06, 5.791015625) (1.3992277145385742e-05, 5.79296875) (2.010784912109375e-05, 5.794921875) (2.5449718475341795e-05, 5.796875) (2.9447414398193357e-05, 5.798828125) (3.160931015014648e-05, 5.80078125) (3.1559051513671876e-05, 5.802734375) (2.9223733901977538e-05, 5.8046875) (2.49659366607666e-05, 5.806640625) (1.9863468170166015e-05, 5.80859375) (1.565199279785156e-05, 5.810546875) (1.419034194946289e-05, 5.8125) (1.726026916503906e-05, 5.814453125) (2.6545665740966797e-05, 5.81640625) (4.3601303100585935e-05, 5.818359375) (6.94698257446289e-05, 5.8203125) (0.00010463253021240234, 5.822265625) (0.00014882839965820312, 5.82421875) (0.000200840576171875, 5.826171875) (0.000258909912109375, 5.828125) (0.00031983154296875, 5.830078125) (0.0003789129028320312, 5.83203125) (0.00043168597412109375, 5.833984375) (0.0004748909912109375, 5.8359375) (0.0005083771362304687, 5.837890625) (0.0005341387939453125, 5.83984375) (0.0005516981811523438, 5.841796875) (0.0005573664550781249, 5.84375) (0.0005438588256835937, 5.845703125) (0.0005030272827148437, 5.84765625) (0.00043293457031249997, 5.849609375) (0.00033639712524414063, 5.8515625) (0.00022022390747070312, 5.853515625) (9.58448486328125e-05, 5.85546875) (-2.681038665771484e-05, 5.857421875) (-0.00013613818359375, 5.859375) (-0.00021969750976562498, 5.861328125) (-0.0002727772521972656, 5.86328125) (-0.0002943629150390625, 5.865234375) (-0.0002909038391113281, 5.8671875) (-0.00027460809326171874, 5.869140625) (-0.00025188769531249997, 5.87109375) (-0.0002291016845703125, 5.873046875) (-0.00020851567077636717, 5.875) (-0.0001886452941894531, 5.876953125) (-0.00017230259704589844, 5.87890625) (-0.00015833868408203123, 5.880859375) (-0.0001461085205078125, 5.8828125) (-0.0001366142578125, 5.884765625) (-0.00012782136535644531, 5.88671875) (-0.00012126550292968749, 5.888671875) (-0.00011814474487304687, 5.890625) (-0.00011746994018554687, 5.892578125) (-0.00011928504180908203, 5.89453125) (-0.00012173638153076171, 5.896484375) (-0.00012283673095703123, 5.8984375) (-0.00012215816497802734, 5.900390625) (-0.00011912478637695312, 5.90234375) (-0.00011365213775634765, 5.904296875) (-0.00010617059326171874, 5.90625) (-9.699169921874999e-05, 5.908203125) (-8.662795257568358e-05, 5.91015625) (-7.584475708007813e-05, 5.912109375) (-6.542212677001953e-05, 5.9140625) (-5.5886566162109375e-05, 5.916015625) (-4.76158218383789e-05, 5.91796875) (-4.0833496093749997e-05, 5.919921875) (-3.55262336730957e-05, 5.921875) (-3.161149787902832e-05, 5.923828125) (-2.8912502288818357e-05, 5.92578125) (-2.7101253509521484e-05, 5.927734375) (-2.5794971466064453e-05, 5.9296875) (-2.4725488662719726e-05, 5.931640625) (-2.373240280151367e-05, 5.93359375) (-2.2742494583129883e-05, 5.935546875) (-2.177396011352539e-05, 5.9375) (-2.0816242218017577e-05, 5.939453125) (-1.9846277236938477e-05, 5.94140625) (-1.886358642578125e-05, 5.943359375) (-1.7852888107299803e-05, 5.9453125) (-1.6792253494262695e-05, 5.947265625) (-1.563545227050781e-05, 5.94921875) (-1.4307589530944824e-05, 5.951171875) (-1.2747255325317382e-05, 5.953125) (-1.0927417755126953e-05, 5.955078125) (-8.85679817199707e-06, 5.95703125) (-6.576471805572509e-06, 5.958984375) (-4.1423258781433105e-06, 5.9609375) (-1.5999412536621093e-06, 5.962890625) (1.0172641277313231e-06, 5.96484375) (3.684633731842041e-06, 5.966796875) (6.3869161605834955e-06, 5.96875) (9.1024751663208e-06, 5.970703125) (1.1812830924987792e-05, 5.97265625) (1.4502082824707031e-05, 5.974609375) (1.713831329345703e-05, 5.9765625) (1.968908882141113e-05, 5.978515625) (2.2109441757202146e-05, 5.98046875) (2.4337760925292967e-05, 5.982421875) (2.633204650878906e-05, 5.984375) (2.806902503967285e-05, 5.986328125) (2.9536497116088867e-05, 5.98828125) (3.0742031097412105e-05, 5.990234375) (3.170212936401367e-05, 5.9921875) (3.2428909301757814e-05, 5.994140625) (3.29398193359375e-05, 5.99609375) (3.3257221221923826e-05, 5.998046875) (3.3396446228027344e-05, 6.0) (3.3374099731445314e-05, 6.001953125) (3.3205291748046875e-05, 6.00390625) (3.289990615844727e-05, 6.005859375) (3.247601699829101e-05, 6.0078125) (3.195686149597168e-05, 6.009765625) (3.1371221542358394e-05, 6.01171875) (3.075605010986328e-05, 6.013671875) (3.014213943481445e-05, 6.015625) (2.9552272796630857e-05, 6.017578125) (2.9006595611572263e-05, 6.01953125) (2.8519765853881834e-05, 6.021484375) (2.8102527618408202e-05, 6.0234375) (2.7765880584716794e-05, 6.025390625) (2.7515655517578122e-05, 6.02734375) (2.7352090835571288e-05, 6.029296875) (2.7278480529785154e-05, 6.03125) (2.7299509048461912e-05, 6.033203125) (2.7420419692993163e-05, 6.03515625) (2.7649085998535156e-05, 6.037109375) (2.799094772338867e-05, 6.0390625) (2.844818878173828e-05, 6.041015625) (2.902198028564453e-05, 6.04296875) (2.9711900711059567e-05, 6.044921875) (3.0517114639282224e-05, 6.046875) (3.143727111816406e-05, 6.048828125) (3.2471302032470704e-05, 6.05078125) (3.361725234985351e-05, 6.052734375) (3.487333297729492e-05, 6.0546875) (3.623767471313476e-05, 6.056640625) (3.770877456665039e-05, 6.05859375) (3.928573989868164e-05, 6.060546875) (4.096613311767578e-05, 6.0625) (4.274591827392578e-05, 6.064453125) (4.4620174407958985e-05, 6.06640625) (4.6582939147949216e-05, 6.068359375) (4.862777709960937e-05, 6.0703125) (5.0748031616210934e-05, 6.072265625) (5.293608856201172e-05, 6.07421875) (5.518344116210937e-05, 6.076171875) (5.7481605529785155e-05, 6.078125) (5.9822082519531245e-05, 6.080078125) (6.2196231842041e-05, 6.08203125) (6.4595458984375e-05, 6.083984375) (6.701078796386718e-05, 6.0859375) (6.943278503417968e-05, 6.087890625) (7.185205841064453e-05, 6.08984375) (7.425926208496093e-05, 6.091796875) (7.664490509033203e-05, 6.09375) (7.899938964843749e-05, 6.095703125) (8.131303405761719e-05, 6.09765625) (8.3575927734375e-05, 6.099609375) (8.577812194824219e-05, 6.1015625) (8.79098663330078e-05, 6.103515625) (8.996141052246093e-05, 6.10546875) (9.192301940917969e-05, 6.107421875) (9.378507232666015e-05, 6.109375) (9.553797912597656e-05, 6.111328125) (9.717230987548828e-05, 6.11328125) (9.867887878417968e-05, 6.115234375) (0.00010004872894287109, 6.1171875) (0.00010127308654785156, 6.119140625) (0.00010234347534179687, 6.12109375) (0.00010325168609619141, 6.123046875) (0.00010398997497558594, 6.125) (0.00010455113983154296, 6.126953125) (0.00010492852020263671, 6.12890625) (0.00010511598205566406, 6.130859375) (0.00010510807800292969, 6.1328125) (0.00010490000915527344, 6.134765625) (0.00010448773193359375, 6.13671875) (0.00010386808776855469, 6.138671875) (0.00010303859710693358, 6.140625) (0.00010199748992919921, 6.142578125) (0.00010074380493164062, 6.14453125) (9.927739715576172e-05, 6.146484375) (9.759900665283202e-05, 6.1484375) (9.571029663085936e-05, 6.150390625) (9.361373901367187e-05, 6.15234375) (9.131264495849608e-05, 6.154296875) (8.881120300292968e-05, 6.15625) (8.611449432373046e-05, 6.158203125) (8.322842407226562e-05, 6.16015625) (8.015980529785156e-05, 6.162109375) (7.691624450683593e-05, 6.1640625) (7.350611877441406e-05, 6.166015625) (6.993864440917968e-05, 6.16796875) (6.622377777099609e-05, 6.169921875) (6.237225341796874e-05, 6.171875) (5.839556884765625e-05, 6.173828125) (5.4305908203125e-05, 6.17578125) (5.01160659790039e-05, 6.177734375) (4.583943176269531e-05, 6.1796875) (4.1489906311035154e-05, 6.181640625) (3.7081832885742186e-05, 6.18359375) (3.262994384765625e-05, 6.185546875) (2.8149217605590818e-05, 6.1875) (2.365482139587402e-05, 6.189453125) (1.9162025451660155e-05, 6.19140625) (1.4686107635498047e-05, 6.193359375) (1.0242271423339843e-05, 6.1953125) (5.845558643341064e-06, 6.197265625) (1.5107417106628417e-06, 6.19921875) (-2.747775077819824e-06, 6.201171875) (-6.916014671325683e-06, 6.203125) (-1.0980514526367188e-05, 6.205078125) (-1.492840003967285e-05, 6.20703125) (-1.8747455596923827e-05, 6.208984375) (-2.242617416381836e-05, 6.2109375) (-2.5953828811645505e-05, 6.212890625) (-2.9320495605468747e-05, 6.21484375) (-3.251708602905273e-05, 6.216796875) (-3.553537368774414e-05, 6.21875) (-3.836803436279297e-05, 6.220703125) (-4.1008655548095704e-05, 6.22265625) (-4.345178985595703e-05, 6.224609375) (-4.569295501708984e-05, 6.2265625) (-4.772869491577148e-05, 6.228515625) (-4.955655670166015e-05, 6.23046875) (-5.1175148010253905e-05, 6.232421875) (-5.258412551879883e-05, 6.234375) (-5.378422927856445e-05, 6.236328125) (-5.477726364135742e-05, 6.23828125) (-5.556610870361328e-05, 6.240234375) (-5.615467834472656e-05, 6.2421875) (-5.6547897338867185e-05, 6.244140625) (-5.675167465209961e-05, 6.24609375) (-5.677286529541015e-05, 6.248046875) (-5.661920928955078e-05, 6.25) (-5.629930877685547e-05, 6.251953125) (-5.5822505950927735e-05, 6.25390625) (-5.5198852539062494e-05, 6.255859375) (-5.443900680541992e-05, 6.2578125) (-5.3554161071777345e-05, 6.259765625) (-5.2555961608886717e-05, 6.26171875) (-5.145642471313476e-05, 6.263671875) (-5.0267822265625e-05, 6.265625) (-4.900262451171875e-05, 6.267578125) (-4.767339706420898e-05, 6.26953125) (-4.6292755126953124e-05, 6.271484375) (-4.4873283386230466e-05, 6.2734375) (-4.342747497558594e-05, 6.275390625) (-4.196767044067382e-05, 6.27734375) (-4.0506004333496095e-05, 6.279296875) (-3.905435562133789e-05, 6.28125) (-3.762430191040039e-05, 6.283203125) (-3.6227096557617185e-05, 6.28515625) (-3.487359619140625e-05, 6.287109375) (-3.357421112060547e-05, 6.2890625) (-3.23388442993164e-05, 6.291015625) (-3.11768741607666e-05, 6.29296875) (-3.0097095489501953e-05, 6.294921875) (-2.9107669830322266e-05, 6.296875) (-2.8216075897216794e-05, 6.298828125) (-2.7429054260253904e-05, 6.30078125) (-2.675257873535156e-05, 6.302734375) (-2.619180679321289e-05, 6.3046875) (-2.5751073837280272e-05, 6.306640625) (-2.5433876037597656e-05, 6.30859375) (-2.5242835998535155e-05, 6.310546875) (-2.51796932220459e-05, 6.3125) (-2.5245311737060546e-05, 6.314453125) (-2.543968391418457e-05, 6.31640625) (-2.5761989593505857e-05, 6.318359375) (-2.6210603713989256e-05, 6.3203125) (-2.6783126831054686e-05, 6.322265625) (-2.7476427078247068e-05, 6.32421875) (-2.8286674499511718e-05, 6.326171875) (-2.9209402084350584e-05, 6.328125) (-3.0239582061767575e-05, 6.330078125) (-3.137165260314941e-05, 6.33203125) (-3.259956359863281e-05, 6.333984375) (-3.3916820526123045e-05, 6.3359375) (-3.53165283203125e-05, 6.337890625) (-3.679142761230468e-05, 6.33984375) (-3.833396911621093e-05, 6.341796875) (-3.993632888793945e-05, 6.34375) (-4.159042739868164e-05, 6.345703125) (-4.328796005249023e-05, 6.34765625) 