(0.0002553193359375, 0.0) (0.00033725024414062496, 0.001953125) (0.00037379504394531246, 0.00390625) (0.0003659710693359375, 0.005859375) (0.0003292947692871094, 0.0078125) (0.0002884674377441406, 0.009765625) (0.00025965069580078125, 0.01171875) (0.00024951901245117184, 0.013671875) (0.000253619140625, 0.015625) (0.00025885507202148437, 0.017578125) (0.000258031494140625, 0.01953125) (0.00024810121154785153, 0.021484375) (0.00023098033142089842, 0.0234375) (0.0002138880615234375, 0.025390625) (0.00020015504455566405, 0.02734375) (0.00019059225463867186, 0.029296875) (0.00018481275939941406, 0.03125) (0.00017998858642578124, 0.033203125) (0.0001744968566894531, 0.03515625) (0.00016821693420410156, 0.037109375) (0.00016099838256835938, 0.0390625) (0.000153119384765625, 0.041015625) (0.0001449319610595703, 0.04296875) (0.00013642904663085936, 0.044921875) (0.00012769650268554687, 0.046875) (0.0001190259552001953, 0.048828125) (0.00011062106323242187, 0.05078125) (0.00010250000762939452, 0.052734375) (9.466478729248046e-05, 0.0546875) (8.703959655761718e-05, 0.056640625) (7.944271850585937e-05, 0.05859375) (7.179039764404297e-05, 0.060546875) (6.39944953918457e-05, 0.0625) (5.5921276092529293e-05, 0.064453125) (4.752936553955078e-05, 0.06640625) (3.881768035888672e-05, 0.068359375) (2.9751680374145505e-05, 0.0703125) (2.032805252075195e-05, 0.072265625) (1.070895767211914e-05, 0.07421875) (1.0750050544738768e-06, 0.076171875) (-8.587732315063476e-06, 0.078125) (-1.8193561553955077e-05, 0.080078125) (-2.7614694595336912e-05, 0.08203125) (-3.701432418823242e-05, 0.083984375) (-4.5500411987304686e-05, 0.0859375) (-5.2222904205322266e-05, 0.087890625) (-5.8218647003173826e-05, 0.08984375) (-6.379666519165039e-05, 0.091796875) (-7.096067047119141e-05, 0.09375) (-8.212942504882812e-05, 0.095703125) (-9.464958190917968e-05, 0.09765625) (-0.00010675286865234375, 0.099609375) (-0.00011579667663574219, 0.1015625) (-0.00011815298461914062, 0.103515625) (-0.0001170697784423828, 0.10546875) (-0.00011530451202392577, 0.107421875) (-0.00011477288818359375, 0.109375) (-0.00011861638641357421, 0.111328125) (-0.00012466993713378905, 0.11328125) (-0.00013076220703125, 0.115234375) (-0.0001364381561279297, 0.1171875) (-0.00014036007690429686, 0.119140625) (-0.0001433584442138672, 0.12109375) (-0.00014645936584472654, 0.123046875) (-0.0001494744415283203, 0.125) (-0.0001525367736816406, 0.126953125) (-0.00015552867126464843, 0.12890625) (-0.0001581982421875, 0.130859375) (-0.00016069155883789062, 0.1328125) (-0.00016312429809570313, 0.134765625) (-0.00016547555541992186, 0.13671875) (-0.00016776849365234374, 0.138671875) (-0.00016999163818359373, 0.140625) (-0.00017209976196289062, 0.142578125) (-0.00017410848999023436, 0.14453125) (-0.00017604330444335938, 0.146484375) (-0.0001777698974609375, 0.1484375) (-0.00017913514709472656, 0.150390625) (-0.00018021908569335935, 0.15234375) (-0.0001810293273925781, 0.154296875) (-0.0001815514678955078, 0.15625) (-0.00018207899475097656, 0.158203125) (-0.00018190029907226563, 0.16015625) (-0.0001803211669921875, 0.162109375) (-0.00017839221191406248, 0.1640625) (-0.0001764425811767578, 0.166015625) (-0.00017637130737304686, 0.16796875) (-0.00018044480895996093, 0.169921875) (-0.0001861610107421875, 0.171875) (-0.0001918501281738281, 0.173828125) (-0.00019502120971679685, 0.17578125) (-0.0001922576446533203, 0.177734375) (-0.00018658372497558592, 0.1796875) (-0.00018056352233886719, 0.181640625) (-0.00017595755004882812, 0.18359375) (-0.0001756697082519531, 0.185546875) (-0.0001776252746582031, 0.1875) (-0.00017972061157226562, 0.189453125) (-0.000181485107421875, 0.19140625) (-0.00018163320922851562, 0.193359375) (-0.00018090664672851562, 0.1953125) (-0.00018026034545898437, 0.197265625) (-0.0001795107727050781, 0.19921875) (-0.00017878016662597655, 0.201171875) (-0.00017800526428222654, 0.203125) (-0.00017699400329589842, 0.205078125) (-0.00017587687683105467, 0.20703125) (-0.00017475872802734374, 0.208984375) (-0.00017360792541503905, 0.2109375) (-0.00017241856384277342, 0.212890625) (-0.0001712033996582031, 0.21484375) (-0.00016996022033691406, 0.216796875) (-0.00016868263244628905, 0.21875) (-0.00016736764526367187, 0.220703125) (-0.00016599710083007812, 0.22265625) (-0.00016454986572265624, 0.224609375) (-0.00016303616333007812, 0.2265625) (-0.00016146632385253905, 0.228515625) (-0.00015983869934082032, 0.23046875) (-0.0001581563720703125, 0.232421875) (-0.00015642092895507811, 0.234375) (-0.00015463220214843748, 0.236328125) (-0.00015279489135742186, 0.23828125) (-0.0001509127655029297, 0.240234375) (-0.0001489847412109375, 0.2421875) (-0.00014701269531249998, 0.244140625) (-0.00014499951171875, 0.24609375) (-0.00014294598388671874, 0.248046875) (-0.00014085531616210936, 0.25) (-0.00013872933959960937, 0.251953125) (-0.00013656478881835936, 0.25390625) (-0.00013436541748046874, 0.255859375) (-0.00013213656616210936, 0.2578125) (-0.00012986993408203125, 0.259765625) (-0.0001275609588623047, 0.26171875) (-0.00012520835876464844, 0.263671875) (-0.0001228007049560547, 0.265625) (-0.0001203421401977539, 0.267578125) (-0.00011785537719726563, 0.26953125) (-0.00011533477020263671, 0.271484375) (-0.00011277263641357421, 0.2734375) (-0.00011020603942871093, 0.275390625) (-0.00010764960479736327, 0.27734375) (-0.0001051066436767578, 0.279296875) (-0.00010261482238769531, 0.28125) (-0.00010016319274902343, 0.283203125) (-9.768026733398438e-05, 0.28515625) (-9.51717071533203e-05, 0.287109375) (-9.266680908203124e-05, 0.2890625) (-9.0025634765625e-05, 0.291015625) (-8.713343048095703e-05, 0.29296875) (-8.411140441894531e-05, 0.294921875) (-8.092578125e-05, 0.296875) (-7.75127944946289e-05, 0.298828125) (-7.42762451171875e-05, 0.30078125) (-7.054704284667968e-05, 0.302734375) (-6.547586822509766e-05, 0.3046875) (-6.016086196899414e-05, 0.306640625) (-5.4950103759765625e-05, 0.30859375) (-5.1588912963867186e-05, 0.310546875) (-5.323884201049804e-05, 0.3125) (-5.794167327880859e-05, 0.314453125) (-6.288132858276367e-05, 0.31640625) (-6.512638854980469e-05, 0.318359375) (-5.917408752441406e-05, 0.3203125) (-4.5996276855468745e-05, 0.322265625) (-3.084400749206543e-05, 0.32421875) (-1.7231948852539063e-05, 0.326171875) (-1.0688536643981933e-05, 0.328125) (-1.243954849243164e-05, 0.330078125) (-1.7274394989013672e-05, 0.33203125) (-2.203481864929199e-05, 0.333984375) (-2.348226737976074e-05, 0.3359375) (-1.9590347290039063e-05, 0.337890625) (-1.3440881729125976e-05, 0.33984375) (-6.916091442108154e-06, 0.341796875) (-8.840776681900024e-07, 0.34375) (4.169462203979492e-06, 0.345703125) (9.897621154785157e-06, 0.34765625) (1.61065673828125e-05, 0.349609375) (2.2197031021118164e-05, 0.3515625) (2.646689987182617e-05, 0.353515625) (2.6634418487548827e-05, 0.35546875) (2.494880676269531e-05, 0.357421875) (2.3174421310424802e-05, 0.359375) (2.385645294189453e-05, 0.361328125) (3.03133430480957e-05, 0.36328125) (3.958667755126953e-05, 0.365234375) (4.919267272949219e-05, 0.3671875) (5.739145278930664e-05, 0.369140625) (6.131473159790039e-05, 0.37109375) (6.299252700805664e-05, 0.373046875) (6.44630126953125e-05, 0.375) (6.615755462646484e-05, 0.376953125) (6.933830261230469e-05, 0.37890625) (7.327523803710937e-05, 0.380859375) (7.70174560546875e-05, 0.3828125) (8.073997497558593e-05, 0.384765625) (8.431790924072266e-05, 0.38671875) (8.780654907226562e-05, 0.388671875) (9.139373016357421e-05, 0.390625) (9.495252227783202e-05, 0.392578125) (9.837724304199218e-05, 0.39453125) (0.00010169633483886719, 0.396484375) (0.00010491366577148437, 0.3984375) (0.0001080138931274414, 0.400390625) (0.00011099650573730469, 0.40234375) (0.00011386524200439453, 0.404296875) (0.00011662117767333983, 0.40625) (0.00011928079223632812, 0.408203125) (0.00012186517333984374, 0.41015625) (0.0001243667449951172, 0.412109375) (0.0001267781219482422, 0.4140625) (0.00012910374450683594, 0.416015625) (0.00013134555053710936, 0.41796875) (0.00013350759887695312, 0.419921875) (0.000135595458984375, 0.421875) (0.0001376116485595703, 0.423828125) (0.00013955685424804686, 0.42578125) (0.0001414339904785156, 0.427734375) (0.00014324790954589844, 0.4296875) (0.00014500338745117186, 0.431640625) (0.00014670753479003907, 0.43359375) (0.00014837001037597654, 0.435546875) (0.0001499964904785156, 0.4375) (0.00015158872985839844, 0.439453125) (0.00015314730834960937, 0.44140625) (0.00015467071533203125, 0.443359375) (0.0001561590576171875, 0.4453125) (0.00015761650085449217, 0.447265625) (0.00015904568481445313, 0.44921875) (0.00016044723510742187, 0.451171875) (0.00016182487487792968, 0.453125) (0.00016318374633789062, 0.455078125) (0.00016453369140624998, 0.45703125) (0.00016589111328124998, 0.458984375) (0.0001672660675048828, 0.4609375) (0.0001686622314453125, 0.462890625) (0.00017007669067382812, 0.46484375) (0.00017149790954589842, 0.466796875) (0.00017292655944824219, 0.46875) (0.0001743755645751953, 0.470703125) (0.00017586810302734374, 0.47265625) (0.00017743881225585937, 0.474609375) (0.00017910372924804686, 0.4765625) (0.00018085910034179687, 0.478515625) (0.0001826909484863281, 0.48046875) (0.0001845717315673828, 0.482421875) (0.00018647949218749999, 0.484375) (0.0001884088134765625, 0.486328125) (0.00019031556701660154, 0.48828125) (0.00019211322021484375, 0.490234375) (0.00019377792358398437, 0.4921875) (0.00019533204650878905, 0.494140625) (0.00019689431762695312, 0.49609375) (0.00019870083618164062, 0.498046875) (0.00020083317565917967, 0.5) (0.00020319203186035156, 0.501953125) (0.00020566383361816405, 0.50390625) (0.00020811041259765625, 0.505859375) (0.00021034967041015624, 0.5078125) (0.00021222314453125, 0.509765625) (0.00021334715270996093, 0.51171875) (0.00021308219909667967, 0.513671875) (0.00021116995239257812, 0.515625) (0.00020775804138183592, 0.517578125) (0.00020320321655273438, 0.51953125) (0.00019811988830566404, 0.521484375) (0.0001930421600341797, 0.5234375) (0.00018829664611816406, 0.525390625) (0.00018448715209960935, 0.52734375) (0.0001824975891113281, 0.529296875) (0.00018275189208984374, 0.53125) (0.00018522799682617187, 0.533203125) (0.00018949826049804687, 0.53515625) (0.0001946495361328125, 0.537109375) (0.00019996874999999998, 0.5390625) (0.0002050638427734375, 0.541015625) (0.0002093364562988281, 0.54296875) (0.00021203271484375, 0.544921875) (0.00021267955017089844, 0.546875) (0.00021102369689941406, 0.548828125) (0.00020718971252441405, 0.55078125) (0.00020174200439453124, 0.552734375) (0.00019503118896484374, 0.5546875) (0.00018716429138183592, 0.556640625) (0.00017832774353027342, 0.55859375) (0.0001687092590332031, 0.560546875) (0.00015844982910156248, 0.5625) (0.00014770782470703125, 0.564453125) (0.00013647457885742186, 0.56640625) (0.00012456826782226562, 0.568359375) (0.00011195069885253905, 0.5703125) (9.868255615234374e-05, 0.572265625) (8.48550567626953e-05, 0.57421875) (7.064382171630858e-05, 0.576171875) (5.6210327148437496e-05, 0.578125) (4.168577575683594e-05, 0.580078125) (2.723899459838867e-05, 0.58203125) (1.304766273498535e-05, 0.583984375) (-7.435154914855957e-07, 0.5859375) (-1.3995071411132811e-05, 0.587890625) (-2.6612960815429685e-05, 0.58984375) (-3.85546875e-05, 0.591796875) (-4.978619003295898e-05, 0.59375) (-6.031501770019531e-05, 0.595703125) (-7.017371368408203e-05, 0.59765625) (-7.940203094482421e-05, 0.599609375) (-8.80700454711914e-05, 0.6015625) (-9.625668334960937e-05, 0.603515625) (-0.00010404345703125, 0.60546875) (-0.00011153663635253906, 0.607421875) (-0.00011885202026367186, 0.609375) (-0.00012608534240722655, 0.611328125) (-0.00013332435607910155, 0.61328125) (-0.00014064218139648438, 0.615234375) (-0.00014810209655761718, 0.6171875) (-0.00015578814697265623, 0.619140625) (-0.00016377142333984373, 0.62109375) (-0.00017209759521484374, 0.623046875) (-0.00018079856872558594, 0.625) (-0.00018987738037109375, 0.626953125) (-0.00019932350158691404, 0.62890625) (-0.0002091273193359375, 0.630859375) (-0.00021926429748535156, 0.6328125) (-0.00022969276428222655, 0.634765625) (-0.00024036819458007812, 0.63671875) (-0.0002512322387695312, 0.638671875) (-0.00026221908569335937, 0.640625) (-0.00027328759765625, 0.642578125) (-0.0002844067687988281, 0.64453125) (-0.000295551025390625, 0.646484375) (-0.0003067040405273437, 0.6484375) (-0.00031783880615234375, 0.650390625) (-0.00032893035888671875, 0.65234375) (-0.000339969970703125, 0.654296875) (-0.00035095748901367184, 0.65625) (-0.000361896728515625, 0.658203125) (-0.00037279425048828124, 0.66015625) (-0.0003836530151367187, 0.662109375) (-0.0003944773559570312, 0.6640625) (-0.000405286376953125, 0.666015625) (-0.00041610400390625, 0.66796875) (-0.000426957763671875, 0.669921875) (-0.0004378793334960937, 0.671875) (-0.0004488880004882812, 0.673828125) (-0.00045999627685546873, 0.67578125) (-0.0004712179565429687, 0.677734375) (-0.0004825642395019531, 0.6796875) (-0.0004940438842773437, 0.681640625) (-0.0005056638793945312, 0.68359375) (-0.0005174204711914062, 0.685546875) (-0.000529301025390625, 0.6875) (-0.0005413023681640625, 0.689453125) (-0.0005534288330078125, 0.69140625) (-0.00056568896484375, 0.693359375) (-0.0005780966796875, 0.6953125) (-0.0005906586914062499, 0.697265625) (-0.0006033756103515624, 0.69921875) (-0.0006162537231445312, 0.701171875) (-0.0006293027343749999, 0.703125) (-0.0006425274047851562, 0.705078125) (-0.0006559271850585937, 0.70703125) (-0.0006694876098632813, 0.708984375) (-0.0006831832275390624, 0.7109375) (-0.000697000244140625, 0.712890625) (-0.0007109358520507813, 0.71484375) (-0.0007249982299804687, 0.716796875) (-0.0007392034912109375, 0.71875) (-0.0007535482788085938, 0.720703125) (-0.0007680126342773437, 0.72265625) (-0.0007825721435546875, 0.724609375) (-0.000797193359375, 0.7265625) (-0.00081183935546875, 0.728515625) (-0.0008264710693359374, 0.73046875) (-0.0008410245971679687, 0.732421875) (-0.000855421875, 0.734375) (-0.0008696094970703125, 0.736328125) (-0.000883558349609375, 0.73828125) (-0.0008972716064453124, 0.740234375) (-0.00091077783203125, 0.7421875) (-0.0009240831298828124, 0.744140625) (-0.000937172119140625, 0.74609375) (-0.0009500183715820312, 0.748046875) (-0.0009625930175781249, 0.75) (-0.000974893798828125, 0.751953125) (-0.0009869349975585937, 0.75390625) (-0.000998727294921875, 0.755859375) (-0.001010289855957031, 0.7578125) (-0.00102165625, 0.759765625) (-0.0010328795166015625, 0.76171875) (-0.0010440576171875, 0.763671875) (-0.001055298095703125, 0.765625) (-0.0010666583251953124, 0.767578125) (-0.001078150146484375, 0.76953125) (-0.0010897318115234375, 0.771484375) (-0.001101325439453125, 0.7734375) (-0.001112874755859375, 0.775390625) (-0.0011243363037109373, 0.77734375) (-0.0011356624755859373, 0.779296875) (-0.001146792236328125, 0.78125) (-0.0011576347656249999, 0.783203125) (-0.0011680888671875, 0.78515625) (-0.001178064453125, 0.787109375) (-0.001187457763671875, 0.7890625) (-0.0011961375732421876, 0.791015625) (-0.0012039339599609375, 0.79296875) (-0.001210620361328125, 0.794921875) (-0.0012159785156249999, 0.796875) (-0.0012198525390625, 0.798828125) (-0.0012221358642578125, 0.80078125) (-0.00122277978515625, 0.802734375) (-0.0012217685546875, 0.8046875) (-0.00121907763671875, 0.806640625) (-0.0012146925048828125, 0.80859375) (-0.00120862548828125, 0.810546875) (-0.0012009111328125, 0.8125) (-0.0011916090087890625, 0.814453125) (-0.0011807841796875, 0.81640625) (-0.0011684909667968749, 0.818359375) (-0.0011548066406249999, 0.8203125) (-0.0011398443603515625, 0.822265625) (-0.001123763671875, 0.82421875) (-0.0011067761230468748, 0.826171875) (-0.001089076416015625, 0.828125) (-0.00107081298828125, 0.830078125) (-0.00105210693359375, 0.83203125) (-0.0010330451660156249, 0.833984375) (-0.0010136997680664061, 0.8359375) (-0.0009941474609374999, 0.837890625) (-0.0009744450683593749, 0.83984375) (-0.0009546232910156249, 0.841796875) (-0.0009347037963867187, 0.84375) (-0.0009147022705078124, 0.845703125) (-0.0008946392822265625, 0.84765625) (-0.0008745484619140625, 0.849609375) (-0.0008544461669921875, 0.8515625) (-0.0008343251342773437, 0.853515625) (-0.0008141535034179687, 0.85546875) (-0.0007938729248046874, 0.857421875) (-0.0007734434814453125, 0.859375) (-0.0007528509521484375, 0.861328125) (-0.0007320913696289062, 0.86328125) (-0.0007111749267578125, 0.865234375) (-0.0006901170654296875, 0.8671875) (-0.000668933837890625, 0.869140625) (-0.0006476580810546874, 0.87109375) (-0.0006263394775390625, 0.873046875) (-0.000605025146484375, 0.875) (-0.000583758056640625, 0.876953125) (-0.0005625751953125, 0.87890625) (-0.00054150390625, 0.880859375) (-0.0005205791015625, 0.8828125) (-0.0004998436889648438, 0.884765625) (-0.0004793450012207031, 0.88671875) (-0.0004591350402832031, 0.888671875) (-0.0004392552490234375, 0.890625) (-0.00041973605346679683, 0.892578125) (-0.00040060443115234374, 0.89453125) (-0.0003818824768066406, 0.896484375) (-0.0003635877990722656, 0.8984375) (-0.00034573431396484375, 0.900390625) (-0.0003283267822265625, 0.90234375) (-0.0003113613891601562, 0.904296875) (-0.00029483648681640623, 0.90625) (-0.0002787525634765625, 0.908203125) (-0.00026311041259765623, 0.91015625) (-0.00024791287231445313, 0.912109375) (-0.00023315902709960938, 0.9140625) (-0.00021884484863281248, 0.916015625) (-0.00020496630859375, 0.91796875) (-0.0001915188751220703, 0.919921875) (-0.00017849838256835937, 0.921875) (-0.00016590136718749998, 0.923828125) (-0.00015372337341308594, 0.92578125) (-0.0001419591827392578, 0.927734375) (-0.0001306044158935547, 0.9296875) (-0.00011965475463867187, 0.931640625) (-0.0001091065216064453, 0.93359375) (-9.895661926269531e-05, 0.935546875) (-8.920010375976562e-05, 0.9375) (-7.983051300048828e-05, 0.939453125) (-7.084085845947265e-05, 0.94140625) (-6.222322845458984e-05, 0.943359375) (-5.396940231323242e-05, 0.9453125) (-4.60710334777832e-05, 0.947265625) (-3.851858520507812e-05, 0.94921875) (-3.130173492431641e-05, 0.951171875) (-2.4410737991333007e-05, 0.953125) (-1.7835611343383788e-05, 0.955078125) (-1.1565768241882324e-05, 0.95703125) (-5.590792655944824e-06, 0.958984375) (1.0146784782409668e-07, 0.9609375) (5.523941516876221e-06, 0.962890625) (1.0686939239501953e-05, 0.96484375) (1.5601308822631837e-05, 0.966796875) (2.0279783248901365e-05, 0.96875) (2.4734899520874024e-05, 0.970703125) (2.89818115234375e-05, 0.97265625) (3.303854370117187e-05, 0.974609375) (3.6916774749755856e-05, 0.9765625) (4.062846374511719e-05, 0.978515625) (4.420002746582031e-05, 0.98046875) (4.765677642822265e-05, 0.982421875) (5.102339935302734e-05, 0.984375) (5.432928848266601e-05, 0.986328125) (5.7587490081787106e-05, 0.98828125) (6.0804565429687496e-05, 0.990234375) (6.401513671875e-05, 0.9921875) (6.725518035888671e-05, 0.994140625) (7.051810455322265e-05, 0.99609375) (7.380512237548827e-05, 0.998046875) (7.712255859375e-05, 1.0) (8.046673583984374e-05, 1.001953125) (8.38848648071289e-05, 1.00390625) (8.744717407226563e-05, 1.005859375) (9.11520538330078e-05, 1.0078125) (9.497698974609375e-05, 1.009765625) (9.906588745117188e-05, 1.01171875) (0.00010358382415771484, 1.013671875) (0.00010846720886230468, 1.015625) (0.00011374562072753906, 1.017578125) (0.00011946646118164062, 1.01953125) (0.0001253423309326172, 1.021484375) (0.00013222018432617187, 1.0234375) (0.00014092359924316406, 1.025390625) (0.00015031832885742188, 1.02734375) (0.00016007118225097656, 1.029296875) (0.00016808197021484373, 1.03125) (0.00017183245849609373, 1.033203125) (0.0001741360321044922, 1.03515625) (0.00017686996459960938, 1.037109375) (0.00018282299804687498, 1.0390625) (0.0001958211669921875, 1.041015625) (0.00021249041748046873, 1.04296875) (0.00022996936035156248, 1.044921875) (0.00024629608154296874, 1.046875) (0.00025822613525390624, 1.048828125) (0.00026807470703125, 1.05078125) (0.00027818655395507813, 1.052734375) (0.00028907681274414063, 1.0546875) (0.0003021687622070312, 1.056640625) (0.0003166199035644531, 1.05859375) (0.0003313482055664062, 1.060546875) (0.00034654290771484375, 1.0625) (0.0003620517272949219, 1.064453125) (0.0003779290466308594, 1.06640625) (0.00039437292480468746, 1.068359375) (0.00041122198486328123, 1.0703125) (0.00042834210205078125, 1.072265625) (0.00044574951171875, 1.07421875) (0.0004634306945800781, 1.076171875) (0.00048134982299804683, 1.078125) (0.0004994873352050781, 1.080078125) (0.0005178284912109375, 1.08203125) (0.0005363543701171875, 1.083984375) (0.000555062255859375, 1.0859375) (0.0005739534912109375, 1.087890625) (0.0005929946899414062, 1.08984375) (0.0006121529541015624, 1.091796875) (0.0006314090576171875, 1.09375) (0.0006507393798828125, 1.095703125) (0.0006701221923828125, 1.09765625) (0.0006895377197265625, 1.099609375) (0.0007089620361328125, 1.1015625) (0.0007283720703125, 1.103515625) (0.0007477501220703125, 1.10546875) (0.0007670790405273437, 1.107421875) (0.0007863417358398437, 1.109375) (0.0008055225219726562, 1.111328125) (0.0008246063232421874, 1.11328125) (0.0008435790405273438, 1.115234375) (0.000862428466796875, 1.1171875) (0.0008811435546875, 1.119140625) (0.0008997147216796875, 1.12109375) (0.000918133544921875, 1.123046875) (0.0009363931884765625, 1.125) (0.0009544877319335937, 1.126953125) (0.0009724132080078125, 1.12890625) (0.0009901663818359374, 1.130859375) (0.001007745361328125, 1.1328125) (0.0010251492919921875, 1.134765625) (0.0010423779296874999, 1.13671875) (0.0010594324951171874, 1.138671875) (0.0010763140869140624, 1.140625) (0.0010930252685546875, 1.142578125) (0.0011095687255859375, 1.14453125) (0.001125947998046875, 1.146484375) (0.001142167236328125, 1.1484375) (0.00115823095703125, 1.150390625) (0.0011741446533203124, 1.15234375) (0.0011899141845703124, 1.154296875) (0.0012055455322265624, 1.15625) (0.00122104541015625, 1.158203125) (0.0012364208984375, 1.16015625) (0.0012516787109375, 1.162109375) (0.0012668258056640624, 1.1640625) (0.0012818695068359375, 1.166015625) (0.00129681689453125, 1.16796875) (0.0013116746826171875, 1.169921875) (0.0013264495849609375, 1.171875) (0.0013411478271484374, 1.173828125) (0.0013557756347656249, 1.17578125) (0.001370338134765625, 1.177734375) (0.00138484033203125, 1.1796875) (0.0013992861328125, 1.181640625) (0.0014136793212890623, 1.18359375) (0.0014280220947265625, 1.185546875) (0.0014423154296875, 1.1875) (0.001456560546875, 1.189453125) (0.0014707564697265625, 1.19140625) (0.001484902099609375, 1.193359375) (0.001498994384765625, 1.1953125) (0.0015130302734375, 1.197265625) (0.0015270048828125, 1.19921875) (0.001540913818359375, 1.201171875) (0.001554750244140625, 1.203125) (0.0015685081787109375, 1.205078125) (0.0015821793212890624, 1.20703125) (0.0015957552490234374, 1.208984375) (0.001609226806640625, 1.2109375) (0.0016225841064453125, 1.212890625) (0.0016358167724609375, 1.21484375) (0.0016489129638671874, 1.216796875) (0.0016618612060546874, 1.21875) (0.0016746488037109374, 1.220703125) (0.0016872626953125, 1.22265625) (0.0016996894531249999, 1.224609375) (0.0017119150390625, 1.2265625) (0.0017239249267578124, 1.228515625) (0.0017357045898437498, 1.23046875) (0.001747239990234375, 1.232421875) (0.0017585139160156249, 1.234375) (0.0017695091552734374, 1.236328125) (0.0017802091064453125, 1.23828125) (0.001790597412109375, 1.240234375) (0.0018006591796875, 1.2421875) (0.0018103820800781248, 1.244140625) (0.0018197471923828124, 1.24609375) (0.0018287357177734374, 1.248046875) (0.0018373428955078125, 1.25) (0.0018455628662109374, 1.251953125) (0.001853388671875, 1.25390625) (0.001860818359375, 1.255859375) (0.0018678323974609375, 1.2578125) (0.0018744055175781249, 1.259765625) (0.0018805416259765624, 1.26171875) (0.0018862462158203124, 1.263671875) (0.001891480224609375, 1.265625) (0.0018962142333984373, 1.267578125) (0.0019004248046875, 1.26953125) (0.0019040784912109374, 1.271484375) (0.0019071964111328124, 1.2734375) (0.0019098243408203124, 1.275390625) (0.0019119337158203125, 1.27734375) (0.001913474853515625, 1.279296875) (0.0019145751953124999, 1.28125) (0.001915385498046875, 1.283203125) (0.0019158164062499999, 1.28515625) (0.001915877197265625, 1.287109375) (0.0019155992431640625, 1.2890625) (0.0019146617431640624, 1.291015625) (0.0019139429931640623, 1.29296875) (0.0019142987060546874, 1.294921875) (0.0019145205078125, 1.296875) (0.0019142474365234374, 1.298828125) (0.0019112568359374998, 1.30078125) (0.0019028875732421875, 1.302734375) (0.0018921044921874999, 1.3046875) (0.0018808867187499999, 1.306640625) (0.001872176513671875, 1.30859375) (0.0018700107421875, 1.310546875) (0.0018708311767578125, 1.3125) (0.0018716223144531249, 1.314453125) (0.0018703189697265624, 1.31640625) (0.0018635041503906249, 1.318359375) (0.0018536313476562498, 1.3203125) (0.0018431862792968748, 1.322265625) (0.0018327287597656248, 1.32421875) (0.0018237802734375, 1.326171875) (0.0018154705810546875, 1.328125) (0.0018066776123046874, 1.330078125) (0.0017976204833984374, 1.33203125) (0.0017881561279296874, 1.333984375) (0.0017783647460937499, 1.3359375) (0.0017684832763671873, 1.337890625) (0.001758368408203125, 1.33984375) (0.0017479114990234374, 1.341796875) (0.0017371669921875, 1.34375) (0.0017261612548828125, 1.345703125) (0.0017149068603515623, 1.34765625) (0.001703435302734375, 1.349609375) (0.00169177392578125, 1.3515625) (0.00167994140625, 1.353515625) (0.0016679663085937498, 1.35546875) (0.00165587109375, 1.357421875) (0.001643645263671875, 1.359375) (0.001631275634765625, 1.361328125) (0.001618759521484375, 1.36328125) (0.0016060999755859375, 1.365234375) (0.0015932983398437499, 1.3671875) (0.001580353515625, 1.369140625) (0.0015672673339843749, 1.37109375) (0.0015540367431640624, 1.373046875) (0.0015406508789062498, 1.375) (0.0015270927734374999, 1.376953125) (0.001513326416015625, 1.37890625) (0.0014993089599609373, 1.380859375) (0.0014850192871093749, 1.3828125) (0.00147044970703125, 1.384765625) (0.00145560400390625, 1.38671875) (0.00144051123046875, 1.388671875) (0.0014252020263671875, 1.390625) (0.00140971728515625, 1.392578125) (0.0013941165771484375, 1.39453125) (0.0013784436035156249, 1.396484375) (0.0013627353515625, 1.3984375) (0.001347029541015625, 1.400390625) (0.0013313465576171874, 1.40234375) (0.001315707763671875, 1.404296875) (0.0013001530761718749, 1.40625) (0.0012847276611328124, 1.408203125) (0.0012694949951171874, 1.41015625) (0.001254535400390625, 1.412109375) (0.001239898681640625, 1.4140625) (0.0012256162109375, 1.416015625) (0.00121170849609375, 1.41796875) (0.0011981600341796875, 1.419921875) (0.00118494384765625, 1.421875) (0.0011720156249999999, 1.423828125) (0.0011592957763671874, 1.42578125) (0.00114671435546875, 1.427734375) (0.0011342169189453124, 1.4296875) (0.0011217509765625, 1.431640625) (0.0011092878417968749, 1.43359375) (0.001096806884765625, 1.435546875) (0.0010842679443359374, 1.4375) (0.0010716275634765624, 1.439453125) (0.0010588281249999999, 1.44140625) (0.0010457886962890624, 1.443359375) (0.00103245166015625, 1.4453125) (0.0010187777099609375, 1.447265625) (0.001004730224609375, 1.44921875) (0.0009903013916015624, 1.451171875) (0.00097549755859375, 1.453125) (0.0009603416748046875, 1.455078125) (0.0009448980102539062, 1.45703125) (0.0009292393188476562, 1.458984375) (0.0009134217529296874, 1.4609375) (0.0008974918823242187, 1.462890625) (0.0008814689331054687, 1.46484375) (0.0008653434448242187, 1.466796875) (0.000849114501953125, 1.46875) (0.0008327883911132812, 1.470703125) (0.00081637841796875, 1.47265625) (0.0007999281005859375, 1.474609375) (0.0007834688110351562, 1.4765625) (0.0007669991455078125, 1.478515625) (0.0007505091552734375, 1.48046875) (0.0007339732666015625, 1.482421875) (0.0007173612060546874, 1.484375) (0.0007006522216796875, 1.486328125) (0.00068380712890625, 1.48828125) (0.0006667313232421875, 1.490234375) (0.0006493033447265625, 1.4921875) (0.0006314618530273437, 1.494140625) (0.0006132596435546875, 1.49609375) (0.0005948813476562499, 1.498046875) (0.0005765284423828124, 1.5) (0.0005582740478515624, 1.501953125) (0.000540021728515625, 1.50390625) (0.0005216334228515624, 1.505859375) (0.0005031212158203125, 1.5078125) (0.00048450494384765625, 1.509765625) (0.00046564849853515623, 1.51171875) (0.00044618878173828124, 1.513671875) (0.00042567462158203125, 1.515625) (0.00040395407104492183, 1.517578125) (0.0003813897705078125, 1.51953125) (0.00035862835693359373, 1.521484375) (0.0003361080322265625, 1.5234375) (0.0003141417236328125, 1.525390625) (0.0002930910949707031, 1.52734375) (0.00027350567626953126, 1.529296875) (0.0002561177062988281, 1.53125) (0.00024130572509765624, 1.533203125) (0.00022876423645019531, 1.53515625) (0.0002177450714111328, 1.537109375) (0.00020763156127929686, 1.5390625) (0.00019799591064453124, 1.541015625) (0.00018849830627441406, 1.54296875) (0.00017872390747070312, 1.544921875) (0.00016804312133789063, 1.546875) (0.00015604135131835938, 1.548828125) (0.00014279664611816406, 1.55078125) (0.00012873417663574217, 1.552734375) (0.00011423177337646484, 1.5546875) (9.948504638671874e-05, 1.556640625) (8.456501770019531e-05, 1.55859375) (6.95353775024414e-05, 1.560546875) (5.460451507568359e-05, 1.5625) (3.9945365905761715e-05, 1.564453125) (2.5540964126586912e-05, 1.56640625) (1.1220706939697265e-05, 1.568359375) (-3.1674358844757078e-06, 1.5703125) (-1.7658664703369138e-05, 1.572265625) (-3.221286392211914e-05, 1.57421875) (-4.675943756103515e-05, 1.576171875) (-6.127590179443359e-05, 1.578125) (-7.577461242675781e-05, 1.580078125) (-9.024151611328124e-05, 1.58203125) (-0.00010461865234374999, 1.583984375) (-0.00011884754180908202, 1.5859375) (-0.00013290762329101562, 1.587890625) (-0.00014679718017578125, 1.58984375) (-0.00016052293395996093, 1.591796875) (-0.00017409953308105468, 1.59375) (-0.000187526123046875, 1.595703125) (-0.00020076629638671875, 1.59765625) (-0.0002138092346191406, 1.599609375) (-0.00022667808532714844, 1.6015625) (-0.00023937814331054686, 1.603515625) (-0.00025192684936523437, 1.60546875) (-0.00026439096069335937, 1.607421875) (-0.000276802978515625, 1.609375) (-0.0002891620788574219, 1.611328125) (-0.00030162609863281246, 1.61328125) (-0.0003143368530273437, 1.615234375) (-0.0003271508178710937, 1.6171875) (-0.00034005007934570313, 1.619140625) (-0.0003531219177246094, 1.62109375) (-0.00036601068115234373, 1.623046875) (-0.0003792427978515625, 1.625) (-0.0003935155334472656, 1.626953125) (-0.0004078292236328125, 1.62890625) (-0.00042182568359375, 1.630859375) (-0.00043379357910156246, 1.6328125) (-0.00044090545654296875, 1.634765625) (-0.0004442697143554687, 1.63671875) (-0.0004459335021972656, 1.638671875) (-0.0004498652954101562, 1.640625) (-0.00046187292480468747, 1.642578125) (-0.000483078369140625, 1.64453125) (-0.0005106034545898437, 1.646484375) (-0.000538349853515625, 1.6484375) (-0.0005590565185546875, 1.650390625) (-0.0005688434448242188, 1.65234375) (-0.0005694678344726563, 1.654296875) (-0.000567148681640625, 1.65625) (-0.0005676555786132812, 1.658203125) (-0.000574992919921875, 1.66015625) (-0.000589047119140625, 1.662109375) (-0.0006057317504882812, 1.6640625) (-0.0006222802734375, 1.666015625) (-0.0006369709472656249, 1.66796875) (-0.0006494403076171875, 1.669921875) (-0.0006612913818359375, 1.671875) (-0.000673205810546875, 1.673828125) (-0.0006851365356445313, 1.67578125) (-0.00069713232421875, 1.677734375) (-0.0007088995971679688, 1.6796875) (-0.0007203552856445312, 1.681640625) (-0.0007317310180664062, 1.68359375) (-0.0007430916137695313, 1.685546875) (-0.0007544060058593749, 1.6875) (-0.0007656920776367187, 1.689453125) (-0.0007769373168945312, 1.69140625) (-0.0007881182861328125, 1.693359375) (-0.0007992327880859374, 1.6953125) (-0.0008102673339843749, 1.697265625) (-0.0008211950073242187, 1.69921875) (-0.000832020263671875, 1.701171875) (-0.0008427736816406249, 1.703125) (-0.0008534818115234374, 1.705078125) (-0.0008641778564453125, 1.70703125) (-0.0008748911743164062, 1.708984375) (-0.0008856371459960937, 1.7109375) (-0.0008964234619140625, 1.712890625) (-0.0009072458496093749, 1.71484375) (-0.000918085205078125, 1.716796875) (-0.0009289089965820312, 1.71875) (-0.0009396792602539062, 1.720703125) (-0.0009503525390624999, 1.72265625) (-0.0009608665161132812, 1.724609375) (-0.0009711417236328124, 1.7265625) (-0.0009810860595703124, 1.728515625) (-0.0009905960083007811, 1.73046875) (-0.0009995711669921875, 1.732421875) (-0.0010079169921874999, 1.734375) (-0.0010155299072265624, 1.736328125) (-0.0010222955932617187, 1.73828125) (-0.001028111083984375, 1.740234375) (-0.001032888916015625, 1.7421875) (-0.0010365606689453125, 1.744140625) (-0.0010390823974609374, 1.74609375) (-0.00104042529296875, 1.748046875) (-0.0010405760498046874, 1.75) (-0.001039536376953125, 1.751953125) (-0.0010373222656249999, 1.75390625) (-0.0010339760742187499, 1.755859375) (-0.001029561279296875, 1.7578125) (-0.00102415966796875, 1.759765625) (-0.001017869140625, 1.76171875) (-0.0010107806396484375, 1.763671875) (-0.0010029767456054687, 1.765625) (-0.0009945476074218749, 1.767578125) (-0.0009855902709960938, 1.76953125) (-0.000976194091796875, 1.771484375) (-0.0009664385375976562, 1.7734375) (-0.0009563870849609374, 1.775390625) (-0.0009460841674804688, 1.77734375) (-0.0009355676879882812, 1.779296875) (-0.0009248692016601562, 1.78125) (-0.000914010986328125, 1.783203125) (-0.0009030061035156249, 1.78515625) (-0.0008918504028320312, 1.787109375) (-0.0008805275878906249, 1.7890625) (-0.0008690104980468749, 1.791015625) (-0.0008572631835937499, 1.79296875) (-0.0008452604980468749, 1.794921875) (-0.000832988525390625, 1.796875) (-0.0008204331054687499, 1.798828125) (-0.0008075820922851562, 1.80078125) (-0.0007944293823242188, 1.802734375) (-0.0007809746093749999, 1.8046875) (-0.0007672291870117187, 1.806640625) (-0.00075321630859375, 1.80859375) (-0.0007389581298828125, 1.810546875) (-0.0007244771118164062, 1.8125) (-0.0007097987060546875, 1.814453125) (-0.000694950439453125, 1.81640625) (-0.0006799674682617188, 1.818359375) (-0.0006648895263671875, 1.8203125) (-0.0006497589111328125, 1.822265625) (-0.0006346202392578125, 1.82421875) (-0.0006195110473632813, 1.826171875) (-0.0006044619140625, 1.828125) (-0.0005895013427734374, 1.830078125) (-0.0005746535034179687, 1.83203125) (-0.0005599382934570312, 1.833984375) (-0.0005453729858398437, 1.8359375) (-0.0005309685668945313, 1.837890625) (-0.000516730224609375, 1.83984375) (-0.000502664794921875, 1.841796875) (-0.0004887799987792968, 1.84375) (-0.00047508251953125, 1.845703125) (-0.00046157882690429686, 1.84765625) (-0.0004482725830078125, 1.849609375) (-0.00043516485595703126, 1.8515625) (-0.0004222560729980469, 1.853515625) (-0.0004095457153320312, 1.85546875) (-0.0003970331420898437, 1.857421875) (-0.00038471789550781246, 1.859375) (-0.00037259881591796874, 1.861328125) (-0.00036067477416992186, 1.86328125) (-0.0003489444885253906, 1.865234375) (-0.00033740625, 1.8671875) (-0.00032605856323242186, 1.869140625) (-0.00031489999389648437, 1.87109375) (-0.0003039272766113281, 1.873046875) (-0.0002931356506347656, 1.875) (-0.00028251928710937497, 1.876953125) (-0.0002720712585449219, 1.87890625) (-0.0002617841796875, 1.880859375) (-0.0002516504821777344, 1.8828125) (-0.00024166183471679685, 1.884765625) (-0.00023180944824218748, 1.88671875) (-0.00022208473205566405, 1.888671875) (-0.00021247937011718748, 1.890625) (-0.0002029851531982422, 1.892578125) (-0.0001935943145751953, 1.89453125) (-0.00018429896545410154, 1.896484375) (-0.00017509130859375, 1.8984375) (-0.00016596368408203124, 1.900390625) (-0.00015690869140625, 1.90234375) (-0.0001479189453125, 1.904296875) (-0.00013898736572265624, 1.90625) (-0.0001301070098876953, 1.908203125) (-0.0001212710952758789, 1.91015625) (-0.00011247314453125, 1.912109375) (-0.0001037068634033203, 1.9140625) (-9.496621704101562e-05, 1.916015625) (-8.624545288085937e-05, 1.91796875) (-7.753913116455078e-05, 1.919921875) (-6.884218597412109e-05, 1.921875) (-6.014988708496094e-05, 1.923828125) (-5.145782852172851e-05, 1.92578125) (-4.2762107849121094e-05, 1.927734375) (-3.405936813354492e-05, 1.9296875) (-2.5346807479858397e-05, 1.931640625) (-1.6622188568115232e-05, 1.93359375) (-7.883903503417968e-06, 1.935546875) (8.690707683563232e-07, 1.9375) (9.637165069580078e-06, 1.939453125) (1.8420181274414062e-05, 1.94140625) (2.721731376647949e-05, 1.943359375) (3.6027191162109375e-05, 1.9453125) (4.484786987304687e-05, 1.947265625) (5.3676872253417964e-05, 1.94921875) (6.25113639831543e-05, 1.951171875) (7.134812927246094e-05, 1.953125) (8.01835479736328e-05, 1.955078125) (8.901371002197265e-05, 1.95703125) (9.783435058593749e-05, 1.958984375) (0.00010664092254638672, 1.9609375) (0.0001154286651611328, 1.962890625) (0.00012419255065917968, 1.96484375) (0.00013292718505859374, 1.966796875) (0.00014162687683105468, 1.96875) (0.00015028556823730468, 1.970703125) (0.00015889688110351562, 1.97265625) (0.00016745413208007812, 1.974609375) (0.00017595022583007813, 1.9765625) (0.00018437774658203125, 1.978515625) (0.00019272886657714842, 1.98046875) (0.00020099546813964842, 1.982421875) (0.00020916912841796874, 1.984375) (0.00021724114990234373, 1.986328125) (0.00022520256042480468, 1.98828125) (0.00023304412841796874, 1.990234375) (0.00024075643920898435, 1.9921875) (0.0002483297882080078, 1.994140625) (0.00025575439453125, 1.99609375) (0.00026302020263671875, 1.998046875) (0.0002701170654296875, 2.0) (0.0002770346374511719, 2.001953125) (0.0002837624816894531, 2.00390625) (0.00029029013061523435, 2.005859375) (0.00029660699462890624, 2.0078125) (0.0003027025146484375, 2.009765625) (0.00030856622314453125, 2.01171875) (0.0003141875305175781, 2.013671875) (0.00031955590820312497, 2.015625) (0.0003246609191894531, 2.017578125) (0.0003294920959472656, 2.01953125) (0.00033403909301757813, 2.021484375) (0.0003382915649414062, 2.0234375) (0.00034223925781249996, 2.025390625) (0.00034587200927734376, 2.02734375) (0.0003491798095703125, 2.029296875) (0.00035215292358398436, 2.03125) (0.0003547820129394531, 2.033203125) (0.0003570578918457031, 2.03515625) (0.0003589720458984375, 2.037109375) (0.00036051632690429683, 2.0390625) (0.0003616831665039062, 2.041015625) (0.000362465576171875, 2.04296875) (0.000362857177734375, 2.044921875) (0.000362852294921875, 2.046875) (0.00036244601440429687, 2.048828125) (0.00036163391113281247, 2.05078125) (0.0003604127197265625, 2.052734375) (0.0003587796936035156, 2.0546875) (0.000356733154296875, 2.056640625) (0.00035427243041992186, 2.05859375) (0.000351397705078125, 2.060546875) (0.00034811022949218746, 2.0625) (0.0003444122924804687, 2.064453125) (0.0003403071899414062, 2.06640625) (0.00033579940795898437, 2.068359375) (0.000330894287109375, 2.0703125) (0.00032559826660156246, 2.072265625) (0.00031991876220703125, 2.07421875) (0.0003138643798828125, 2.076171875) (0.00030744451904296874, 2.078125) (0.0003006697082519531, 2.080078125) (0.0002935515441894531, 2.08203125) (0.00028610263061523434, 2.083984375) (0.00027833648681640626, 2.0859375) (0.000270267578125, 2.087890625) (0.000261911376953125, 2.08984375) (0.0002532840118408203, 2.091796875) (0.00024440240478515625, 2.09375) (0.00023528416442871093, 2.095703125) (0.00022594731140136717, 2.09765625) (0.00021641044616699218, 2.099609375) (0.00020669253540039063, 2.1015625) (0.00019681283569335936, 2.103515625) (0.0001867909240722656, 2.10546875) (0.00017664646911621094, 2.107421875) (0.00016639927673339842, 2.109375) (0.000156069091796875, 2.111328125) (0.00014567559814453125, 2.11328125) (0.00013523823547363282, 2.115234375) (0.00012477615356445312, 2.1171875) (0.00011430799865722656, 2.119140625) (0.00010385185241699218, 2.12109375) (9.342520904541015e-05, 2.123046875) (8.304474639892578e-05, 2.125) (7.272637176513671e-05, 2.126953125) (6.24850959777832e-05, 2.12890625) (5.233490371704101e-05, 2.130859375) (4.228874588012695e-05, 2.1328125) (3.235841369628906e-05, 2.134765625) (2.255454635620117e-05, 2.13671875) (1.2886499404907226e-05, 2.138671875) (3.3623027801513672e-06, 2.140625) (-6.011425971984863e-06, 2.142578125) (-1.5229507446289062e-05, 2.14453125) (-2.428820037841797e-05, 2.146484375) (-3.3185192108154296e-05, 2.1484375) (-4.1919555664062495e-05, 2.150390625) (-5.049177551269531e-05, 2.15234375) (-5.89036865234375e-05, 2.154296875) (-6.715846252441406e-05, 2.15625) (-7.526054382324218e-05, 2.158203125) (-8.321559143066405e-05, 2.16015625) (-9.103045654296874e-05, 2.162109375) (-9.8713134765625e-05, 2.1640625) (-0.0001062728271484375, 2.166015625) (-0.0001137198028564453, 2.16796875) (-0.00012106536865234374, 2.169921875) (-0.00012832177734375, 2.171875) (-0.00013550212097167969, 2.173828125) (-0.00014262033081054686, 2.17578125) (-0.0001496910400390625, 2.177734375) (-0.00015672955322265625, 2.1796875) (-0.00016375164794921873, 2.181640625) (-0.00017077354431152344, 2.18359375) (-0.00017781175231933592, 2.185546875) (-0.00018488304138183592, 2.1875) (-0.00019200439453125, 2.189453125) (-0.00019919284057617187, 2.19140625) (-0.0002064651184082031, 2.193359375) (-0.00021383773803710938, 2.1953125) (-0.00022132678222656248, 2.197265625) (-0.00022894775390625, 2.19921875) (-0.0002367154846191406, 2.201171875) (-0.0002446440734863281, 2.203125) (-0.00025274664306640626, 2.205078125) (-0.00026103536987304686, 2.20703125) (-0.000269521484375, 2.208984375) (-0.00027821524047851563, 2.2109375) (-0.0002871258544921875, 2.212890625) (-0.00029626153564453125, 2.21484375) (-0.00030562939453125, 2.216796875) (-0.00031523529052734375, 2.21875) (-0.0003250840454101562, 2.220703125) (-0.0003351793212890625, 2.22265625) (-0.0003455233459472656, 2.224609375) (-0.0003561173706054687, 2.2265625) (-0.00036696127319335933, 2.228515625) (-0.00037805346679687496, 2.23046875) (-0.00038939117431640625, 2.232421875) (-0.00040097033691406246, 2.234375) (-0.00041278564453124997, 2.236328125) (-0.0004248304748535156, 2.23828125) (-0.0004370967407226562, 2.240234375) (-0.00044957482910156247, 2.2421875) (-0.00046225366210937496, 2.244140625) (-0.0004751209716796875, 2.24609375) (-0.00048816290283203124, 2.248046875) (-0.0005013642272949218, 2.25) (-0.0005147082519531249, 2.251953125) (-0.0005281768188476562, 2.25390625) (-0.0005417512817382812, 2.255859375) (-0.0005554118041992187, 2.2578125) (-0.0005691379394531249, 2.259765625) (-0.0005829089355468749, 2.26171875) (-0.0005967032470703124, 2.263671875) (-0.0006104992675781249, 2.265625) (-0.0006242749633789062, 2.267578125) (-0.0006380075073242188, 2.26953125) (-0.0006516741333007812, 2.271484375) (-0.0006652522583007812, 2.2734375) (-0.0006787181396484375, 2.275390625) (-0.0006920484619140625, 2.27734375) (-0.0007052193603515625, 2.279296875) (-0.0007182052001953124, 2.28125) (-0.0007309833984374999, 2.283203125) (-0.0007435340576171875, 2.28515625) (-0.0007558358154296875, 2.287109375) (-0.0007678677978515625, 2.2890625) (-0.0007796092529296875, 2.291015625) (-0.0007910335693359375, 2.29296875) (-0.0008021198120117187, 2.294921875) (-0.0008128555908203125, 2.296875) (-0.0008232156372070313, 2.298828125) (-0.00083316748046875, 2.30078125) (-0.0008426853637695312, 2.302734375) (-0.0008517364501953124, 2.3046875) (-0.0008603021240234374, 2.306640625) (-0.0008683991088867187, 2.30859375) (-0.0008760234985351562, 2.310546875) (-0.0008831470947265625, 2.3125) (-0.0008897888183593749, 2.314453125) (-0.0008959861450195312, 2.31640625) (-0.0009017593994140625, 2.318359375) (-0.0009071597290039062, 2.3203125) (-0.0009121993408203124, 2.322265625) (-0.0009167863769531249, 2.32421875) (-0.0009208862915039062, 2.326171875) (-0.0009245539550781249, 2.328125) (-0.0009276895751953125, 2.330078125) (-0.0009300681152343749, 2.33203125) (-0.000931692626953125, 2.333984375) (-0.0009326165771484375, 2.3359375) (-0.000932776123046875, 2.337890625) (-0.00093256689453125, 2.33984375) (-0.0009315837402343749, 2.341796875) (-0.000928236572265625, 2.34375) (-0.000922965576171875, 2.345703125) (-0.0009171805419921874, 2.34765625) (-0.0009130264282226562, 2.349609375) (-0.0009156162109375, 2.3515625) (-0.0009251611328124999, 2.353515625) (-0.0009363461914062499, 2.35546875) (-0.0009444876708984374, 2.357421875) (-0.0009415360717773437, 2.359375) (-0.0009252471313476562, 2.361328125) (-0.000903906982421875, 2.36328125) (-0.0008836418457031249, 2.365234375) (-0.0008718250732421875, 2.3671875) (-0.0008723946533203124, 2.369140625) (-0.0008780593261718749, 2.37109375) (-0.0008837415771484375, 2.373046875) (-0.000885872314453125, 2.375) (-0.0008811826171875, 2.376953125) (-0.0008734727172851562, 2.37890625) (-0.00086553662109375, 2.380859375) (-0.0008577880859374999, 2.3828125) (-0.0008515345458984375, 2.384765625) (-0.0008458023681640625, 2.38671875) (-0.0008396326293945312, 2.388671875) (-0.0008334636230468749, 2.390625) (-0.0008272652587890624, 2.392578125) (-0.0008210711669921875, 2.39453125) (-0.0008150901489257812, 2.396484375) (-0.00080922509765625, 2.3984375) (-0.0008033768920898437, 2.400390625) (-0.0007975830078124999, 2.40234375) (-0.0007918482055664062, 2.404296875) (-0.0007861444091796874, 2.40625) (-0.0007805164184570313, 2.408203125) (-0.0007750490112304687, 2.41015625) (-0.000769785400390625, 2.412109375) (-0.0007647659912109375, 2.4140625) (-0.00076001025390625, 2.416015625) (-0.0007554718017578124, 2.41796875) (-0.0007511278686523437, 2.419921875) (-0.0007469600830078125, 2.421875) (-0.0007428826904296874, 2.423828125) (-0.000738828857421875, 2.42578125) (-0.0007347464599609375, 2.427734375) (-0.0007305690917968749, 2.4296875) (-0.0007262925415039062, 2.431640625) (-0.0007219348754882812, 2.43359375) (-0.0007174318237304687, 2.435546875) (-0.0007126955566406249, 2.4375) (-0.0007077713012695312, 2.439453125) (-0.000702707763671875, 2.44140625) (-0.0006973787841796875, 2.443359375) (-0.0006917575073242188, 2.4453125) (-0.0006858426513671875, 2.447265625) (-0.0006793721923828125, 2.44921875) (-0.0006731056518554687, 2.451171875) (-0.0006678013305664063, 2.453125) (-0.00066251318359375, 2.455078125) (-0.0006569940185546875, 2.45703125) (-0.0006494114379882812, 2.458984375) (-0.0006375609130859375, 2.4609375) (-0.0006239552612304687, 2.462890625) (-0.0006102750244140624, 2.46484375) (-0.0005990283203125, 2.466796875) (-0.0005936437377929687, 2.46875) (-0.0005911641235351562, 2.470703125) (-0.0005891082763671875, 2.47265625) (-0.0005857805175781249, 2.474609375) (-0.0005783402709960937, 2.4765625) (-0.0005688848876953125, 2.478515625) (-0.0005595100708007812, 2.48046875) (-0.0005506719970703125, 2.482421875) (-0.0005436192626953125, 2.484375) (-0.0005375637817382812, 2.486328125) (-0.0005315155029296875, 2.48828125) (-0.0005256336059570313, 2.490234375) (-0.0005197781982421875, 2.4921875) (-0.0005140023193359375, 2.494140625) (-0.0005084937744140624, 2.49609375) (-0.0005031147155761718, 2.498046875) (-0.000497760009765625, 2.5) (-0.0004924649658203125, 2.501953125) (-0.0004872188110351562, 2.50390625) (-0.00048198983764648434, 2.505859375) (-0.00047675888061523436, 2.5078125) (-0.0004715040283203125, 2.509765625) (-0.0004662178955078125, 2.51171875) (-0.0004609192504882812, 2.513671875) (-0.00045563626098632813, 2.515625) (-0.00045038250732421875, 2.517578125) (-0.0004451688232421875, 2.51953125) (-0.00043999044799804683, 2.521484375) (-0.000434816162109375, 2.5234375) (-0.00042961007690429687, 2.525390625) (-0.00042434555053710935, 2.52734375) (-0.00041902685546875, 2.529296875) (-0.0004136795959472656, 2.53125) (-0.00040829705810546874, 2.533203125) (-0.00040284347534179685, 2.53515625) (-0.00039731274414062497, 2.537109375) (-0.0003918017578125, 2.5390625) (-0.0003864957885742187, 2.541015625) (-0.00038150640869140623, 2.54296875) (-0.0003767711486816406, 2.544921875) (-0.00037202374267578125, 2.546875) (-0.00036700201416015624, 2.548828125) (-0.00036171942138671874, 2.55078125) (-0.00035627084350585935, 2.552734375) (-0.0003505075988769531, 2.5546875) (-0.000344180908203125, 2.556640625) (-0.00033724096679687497, 2.55859375) (-0.00032994305419921876, 2.560546875) (-0.00032325125122070313, 2.5625) (-0.00031741195678710937, 2.564453125) (-0.00031111407470703123, 2.56640625) (-0.0003037213134765625, 2.568359375) (-0.00029580230712890625, 2.5703125) (-0.0002907091369628906, 2.572265625) (-0.0002935662231445312, 2.57421875) (-0.00030542065429687497, 2.576171875) (-0.00032178851318359375, 2.578125) (-0.0003337062377929687, 2.580078125) (-0.00033257708740234374, 2.58203125) (-0.0003154981384277344, 2.583984375) (-0.0002860094909667969, 2.5859375) (-0.00025162371826171874, 2.587890625) (-0.00021735565185546874, 2.58984375) (-0.00018688084411621093, 2.591796875) (-0.00016356747436523436, 2.59375) (-0.00014874595642089844, 2.595703125) (-0.0001462418975830078, 2.59765625) (-0.00015588571166992186, 2.599609375) (-0.00017140402221679687, 2.6015625) (-0.00018792214965820313, 2.603515625) (-0.00019961576843261717, 2.60546875) (-0.00020421737670898437, 2.607421875) (-0.00020505178833007812, 2.609375) (-0.0002031995391845703, 2.611328125) (-0.00019903514099121092, 2.61328125) (-0.00019282492065429685, 2.615234375) (-0.0001832607421875, 2.6171875) (-0.00017085804748535156, 2.619140625) (-0.0001572496643066406, 2.62109375) (-0.00014326998901367186, 2.623046875) (-0.00012976023864746093, 2.625) (-0.00011758763885498046, 2.626953125) (-0.00010737516784667968, 2.62890625) (-9.956280517578124e-05, 2.630859375) (-9.419595336914062e-05, 2.6328125) (-9.061647033691406e-05, 2.634765625) (-8.787576293945312e-05, 2.63671875) (-8.544522094726562e-05, 2.638671875) (-8.312978363037109e-05, 2.640625) (-8.077180480957031e-05, 2.642578125) (-7.819589233398437e-05, 2.64453125) (-7.52097930908203e-05, 2.646484375) (-7.168080902099609e-05, 2.6484375) (-6.774608612060546e-05, 2.650390625) (-6.373906326293945e-05, 2.65234375) (-5.984688568115234e-05, 2.654296875) (-5.610945129394531e-05, 2.65625) (-5.249871826171875e-05, 2.658203125) (-4.8942035675048825e-05, 2.66015625) (-4.542250442504883e-05, 2.662109375) (-4.1968406677246093e-05, 2.6640625) (-3.856854248046875e-05, 2.666015625) (-3.516765975952148e-05, 2.66796875) (-3.1725984573364256e-05, 2.669921875) (-2.8222078323364255e-05, 2.671875) (-2.4656898498535155e-05, 2.673828125) (-2.1062671661376954e-05, 2.67578125) (-1.7457948684692384e-05, 2.677734375) (-1.3844215393066406e-05, 2.6796875) (-1.021928024291992e-05, 2.681640625) (-6.573163986206055e-06, 2.68359375) (-2.9009571075439453e-06, 2.685546875) (7.937976121902465e-07, 2.6875) (4.505661010742187e-06, 2.689453125) (8.230880737304687e-06, 2.69140625) (1.196930980682373e-05, 2.693359375) (1.572523498535156e-05, 2.6953125) (1.9504974365234375e-05, 2.697265625) (2.331171417236328e-05, 2.69921875) (2.7146617889404295e-05, 2.701171875) (3.101003837585449e-05, 2.703125) (3.490303039550781e-05, 2.705078125) (3.882912826538086e-05, 2.70703125) (4.2790130615234376e-05, 2.708984375) (4.6784870147705075e-05, 2.7109375) (5.0809066772460934e-05, 2.712890625) (5.48556900024414e-05, 2.71484375) (5.891917037963867e-05, 2.716796875) (6.299587249755859e-05, 2.71875) (6.7082763671875e-05, 2.720703125) (7.11768798828125e-05, 2.72265625) (7.527427673339843e-05, 2.724609375) (7.937016296386718e-05, 2.7265625) (8.346011352539062e-05, 2.728515625) (8.754061126708983e-05, 2.73046875) (9.160848999023438e-05, 2.732421875) (9.566078186035156e-05, 2.734375) (9.969451904296875e-05, 2.736328125) (0.00010370668029785155, 2.73828125) (0.00010769497680664062, 2.740234375) (0.00011165799713134766, 2.7421875) (0.00011559510803222656, 2.744140625) (0.00011950627136230469, 2.74609375) (0.0001233914794921875, 2.748046875) (0.00012725088500976562, 2.75) (0.00013108499145507812, 2.751953125) (0.00013489477539062498, 2.75390625) (0.000138681640625, 2.755859375) (0.00014244744873046874, 2.7578125) (0.00014619424438476561, 2.759765625) (0.00014992437744140624, 2.76171875) (0.00015364044189453125, 2.763671875) (0.00015734536743164062, 2.765625) (0.00016104222106933593, 2.767578125) (0.00016473426818847657, 2.76953125) (0.00016842480468749998, 2.771484375) (0.0001721171875, 2.7734375) (0.00017581488037109376, 2.775390625) (0.0001795214385986328, 2.77734375) (0.0001832406005859375, 2.779296875) (0.00018697613525390624, 2.78125) (0.00019073182678222656, 2.783203125) (0.00019451136779785155, 2.78515625) (0.00019831832885742188, 2.787109375) (0.00020215612792968748, 2.7890625) (0.00020602789306640624, 2.791015625) (0.00020993634033203125, 2.79296875) (0.0002138837890625, 2.794921875) (0.0002178720703125, 2.796875) (0.00022190267944335935, 2.798828125) (0.00022597666931152343, 2.80078125) (0.00023009481811523435, 2.802734375) (0.00023425747680664061, 2.8046875) (0.00023846466064453124, 2.806640625) (0.00024271600341796873, 2.80859375) (0.0002470108489990234, 2.810546875) (0.00025134812927246093, 2.8125) (0.0002557265319824219, 2.814453125) (0.00026014434814453124, 2.81640625) (0.00026459957885742187, 2.818359375) (0.0002690899658203125, 2.8203125) (0.00027361309814453126, 2.822265625) (0.00027816644287109374, 2.82421875) (0.00028274749755859374, 2.826171875) (0.00028735382080078125, 2.828125) (0.00029198300170898435, 2.830078125) (0.0002966325988769531, 2.83203125) (0.00030130029296874996, 2.833984375) (0.0003059838562011719, 2.8359375) (0.0003106810302734375, 2.837890625) (0.0003153894958496094, 2.83984375) (0.00032010687255859375, 2.841796875) (0.0003248307495117187, 2.84375) (0.0003295587463378906, 2.845703125) (0.00033428851318359373, 2.84765625) (0.00033901794433593746, 2.849609375) (0.0003437449951171875, 2.8515625) (0.0003484677734375, 2.853515625) (0.00035318469238281247, 2.85546875) (0.00035789440917968746, 2.857421875) (0.000362595947265625, 2.859375) (0.00036728845214843746, 2.861328125) (0.00037197140502929685, 2.86328125) (0.00037664434814453125, 2.865234375) (0.00038130734252929686, 2.8671875) (0.0003859604797363281, 2.869140625) (0.00039060430908203125, 2.87109375) (0.00039523968505859376, 2.873046875) (0.00039986782836914063, 2.875) (0.00040448983764648436, 2.876953125) (0.000409107177734375, 2.87890625) (0.00041372161865234374, 2.880859375) (0.00041833526611328124, 2.8828125) (0.00042294970703125, 2.884765625) (0.0004275669555664062, 2.88671875) (0.00043218795776367187, 2.888671875) (0.0004368133544921875, 2.890625) (0.00044144601440429684, 2.892578125) (0.00044608880615234375, 2.89453125) (0.00045074328613281246, 2.896484375) (0.0004554116821289062, 2.8984375) (0.00046009454345703125, 2.900390625) (0.0004647906494140625, 2.90234375) (0.0004695049438476562, 2.904296875) (0.0004742431640625, 2.90625) (0.0004789990844726562, 2.908203125) (0.0004837684326171875, 2.91015625) (0.0004885482788085937, 2.912109375) (0.0004933323364257812, 2.9140625) (0.0004981295166015625, 2.916015625) (0.0005029547729492187, 2.91796875) (0.0005077991333007812, 2.919921875) (0.0005126526489257812, 2.921875) (0.0005175435791015625, 2.923828125) (0.0005224933471679687, 2.92578125) (0.0005275191040039062, 2.927734375) (0.0005326468505859375, 2.9296875) (0.0005378571166992187, 2.931640625) (0.0005431099243164062, 2.93359375) (0.0005484285888671874, 2.935546875) (0.0005538543090820312, 2.9375) (0.0005592800903320312, 2.939453125) (0.0005645794677734374, 2.94140625) (0.0005698280029296875, 2.943359375) (0.0005750185546875, 2.9453125) (0.0005801267089843749, 2.947265625) (0.0005854249267578125, 2.94921875) (0.0005901777343749999, 2.951171875) (0.0005936700439453125, 2.953125) (0.0005969229736328124, 2.955078125) (0.0006002457885742187, 2.95703125) (0.0006055147094726562, 2.958984375) (0.000614975830078125, 2.9609375) (0.0006261419677734374, 2.962890625) (0.0006373557128906249, 2.96484375) (0.0006461490478515625, 2.966796875) (0.00064913134765625, 2.96875) (0.0006493001708984374, 2.970703125) (0.0006491964111328125, 2.97265625) (0.0006505606079101562, 2.974609375) (0.00065626953125, 2.9765625) (0.000664264404296875, 2.978515625) (0.0006724576416015625, 2.98046875) (0.0006803826904296875, 2.982421875) (0.0006867679443359375, 2.984375) (0.0006923510131835938, 2.986328125) (0.0006980787963867187, 2.98828125) (0.0007037701416015624, 2.990234375) (0.0007095440063476562, 2.9921875) (0.0007153306274414063, 2.994140625) (0.0007209381713867187, 2.99609375) (0.0007264945678710937, 2.998046875) (0.00073209033203125, 3.0) (0.0007376852416992188, 3.001953125) (0.0007432687377929687, 3.00390625) (0.0007488398437499999, 3.005859375) (0.0007543983764648438, 3.0078125) (0.0007599576416015625, 3.009765625) (0.0007655079345703124, 3.01171875) (0.0007710229492187499, 3.013671875) (0.000776514892578125, 3.015625) (0.0007820054321289062, 3.017578125) (0.0007875057373046874, 3.01953125) (0.0007930482177734375, 3.021484375) (0.000798625, 3.0234375) (0.0008041678466796875, 3.025390625) (0.0008096790161132812, 3.02734375) (0.0008151880493164062, 3.029296875) (0.0008205663452148437, 3.03125) (0.0008257059936523437, 3.033203125) (0.0008307262573242187, 3.03515625) (0.0008355988769531249, 3.037109375) (0.0008402590332031249, 3.0390625) (0.0008450947265625, 3.041015625) (0.0008494899291992187, 3.04296875) (0.000852646728515625, 3.044921875) (0.0008556192626953125, 3.046875) (0.0008587537841796874, 3.048828125) (0.0008636941528320312, 3.05078125) (0.0008734715576171875, 3.052734375) (0.0008862828979492187, 3.0546875) (0.0008994288940429687, 3.056640625) (0.000910098388671875, 3.05859375) (0.000912969970703125, 3.060546875) (0.0009088494873046875, 3.0625) (0.0009028198242187499, 3.064453125) (0.0008983211669921874, 3.06640625) (0.0009007628173828124, 3.068359375) (0.0009114567871093749, 3.0703125) (0.0009252857666015625, 3.072265625) (0.0009392363281249999, 3.07421875) (0.0009502740478515624, 3.076171875) (0.000956270263671875, 3.078125) (0.0009602548828125, 3.080078125) (0.0009641387939453125, 3.08203125) (0.0009685113525390624, 3.083984375) (0.0009745796508789062, 3.0859375) (0.0009814103393554687, 3.087890625) (0.000988184326171875, 3.08984375) (0.0009951927490234375, 3.091796875) (0.0010022955322265624, 3.09375) (0.0010095596313476562, 3.095703125) (0.0010171974487304686, 3.09765625) (0.001025082763671875, 3.099609375) (0.001033104736328125, 3.1015625) (0.0010412930908203124, 3.103515625) (0.001049638427734375, 3.10546875) (0.0010581269531249999, 3.107421875) (0.001066802734375, 3.109375) (0.0010756861572265625, 3.111328125) (0.0010847596435546874, 3.11328125) (0.001094001708984375, 3.115234375) (0.001103364501953125, 3.1171875) (0.001112803955078125, 3.119140625) (0.00112232568359375, 3.12109375) (0.0011318582763671875, 3.123046875) (0.001141267578125, 3.125) (0.0011504912109375, 3.126953125) (0.0011594842529296875, 3.12890625) (0.001168346923828125, 3.130859375) (0.001177368896484375, 3.1328125) (0.00118662451171875, 3.134765625) (0.001195951904296875, 3.13671875) (0.001205326416015625, 3.138671875) (0.0012147215576171874, 3.140625) (0.001223872314453125, 3.142578125) (0.0012327099609375, 3.14453125) (0.00124089013671875, 3.146484375) (0.001247344970703125, 3.1484375) (0.0012523948974609374, 3.150390625) (0.00125677734375, 3.15234375) (0.0012597982177734374, 3.154296875) (0.001261839599609375, 3.15625) (0.0012614862060546874, 3.158203125) (0.0012567723388671875, 3.16015625) (0.0012509725341796874, 3.162109375) (0.001247009765625, 3.1640625) (0.0012487003173828125, 3.166015625) (0.0012592773437499999, 3.16796875) (0.0012743416748046874, 3.169921875) (0.0012908760986328125, 3.171875) (0.0013061224365234375, 3.173828125) (0.001318878173828125, 3.17578125) (0.001334238037109375, 3.177734375) (0.00135055419921875, 3.1796875) (0.0013641656494140625, 3.181640625) (0.001370724609375, 3.18359375) (0.001361605224609375, 3.185546875) (0.0013398841552734375, 3.1875) (0.0013136993408203125, 3.189453125) (0.001289485595703125, 3.19140625) (0.001277003662109375, 3.193359375) (0.0012755911865234375, 3.1953125) (0.0012771933593749998, 3.197265625) (0.001277040771484375, 3.19921875) (0.001268849365234375, 3.201171875) (0.0012513654785156249, 3.203125) (0.00122973046875, 3.205078125) (0.001206552001953125, 3.20703125) (0.00118377685546875, 3.208984375) (0.0011623824462890623, 3.2109375) (0.0011404880371093749, 3.212890625) (0.0011172087402343748, 3.21484375) (0.0010928841552734375, 3.216796875) (0.0010677625732421875, 3.21875) (0.0010424176025390624, 3.220703125) (0.0010172811279296875, 3.22265625) (0.000992355224609375, 3.224609375) (0.0009676621704101562, 3.2265625) (0.0009434147338867187, 3.228515625) (0.0009198170166015624, 3.23046875) (0.0008969818115234375, 3.232421875) (0.0008750368041992188, 3.234375) (0.0008540941162109375, 3.236328125) (0.0008341934814453124, 3.23828125) (0.0008153902587890625, 3.240234375) (0.0007977062377929687, 3.2421875) (0.0007810689086914062, 3.244140625) (0.0007654322509765625, 3.24609375) (0.0007507828979492187, 3.248046875) (0.0007370769653320312, 3.25) (0.0007242700195312499, 3.251953125) (0.0007122906494140624, 3.25390625) (0.0007009807128906249, 3.255859375) (0.0006901575317382812, 3.2578125) (0.00067964453125, 3.259765625) (0.0006692507324218749, 3.26171875) (0.0006588494873046875, 3.263671875) (0.0006483255004882812, 3.265625) (0.0006375115966796874, 3.267578125) (0.0006263245849609375, 3.26953125) (0.0006147570190429688, 3.271484375) (0.00060286083984375, 3.2734375) (0.0005908495483398438, 3.275390625) (0.0005789046020507812, 3.27734375) (0.000566968505859375, 3.279296875) (0.00055495751953125, 3.28125) (0.0005427828369140625, 3.283203125) (0.0005301766357421875, 3.28515625) (0.0005169459228515625, 3.287109375) (0.0005028509521484375, 3.2890625) (0.00048730511474609375, 3.291015625) (0.00046987127685546874, 3.29296875) (0.00045055841064453123, 3.294921875) (0.00042954461669921873, 3.296875) (0.00040733544921874997, 3.298828125) (0.00038481454467773437, 3.30078125) (0.0003626412658691406, 3.302734375) (0.00034149212646484374, 3.3046875) (0.0003224280090332031, 3.306640625) (0.0003062308959960937, 3.30859375) (0.0002931810913085937, 3.310546875) (0.00028326855468749996, 3.3125) (0.00027587609863281246, 3.314453125) (0.00026992431640625, 3.31640625) (0.0002646435546875, 3.318359375) (0.00025933053588867187, 3.3203125) (0.00025306735229492185, 3.322265625) (0.000245241943359375, 3.32421875) (0.00023555177307128905, 3.326171875) (0.00022389619445800781, 3.328125) (0.00021069839477539062, 3.330078125) (0.00019668731689453123, 3.33203125) (0.0001823136749267578, 3.333984375) (0.00016791175842285157, 3.3359375) (0.00015383171081542968, 3.337890625) (0.00014021841430664062, 3.33984375) (0.00012716187286376953, 3.341796875) (0.00011473817443847656, 3.34375) (0.00010279763793945312, 3.345703125) (9.109403228759765e-05, 3.34765625) (7.952350616455077e-05, 3.349609375) (6.803337097167969e-05, 3.3515625) (5.660991287231445e-05, 3.353515625) (4.534357452392578e-05, 3.35546875) (3.428925704956055e-05, 3.357421875) (2.343512725830078e-05, 3.359375) (1.2806260108947753e-05, 3.361328125) (2.4453840255737304e-06, 3.36328125) (-7.623230934143066e-06, 3.365234375) (-1.7338294982910154e-05, 3.3671875) (-2.6621694564819333e-05, 3.369140625) (-3.548189544677734e-05, 3.37109375) (-4.3971103668212886e-05, 3.373046875) (-5.2014152526855465e-05, 3.375) (-5.9484592437744135e-05, 3.376953125) (-6.646971130371094e-05, 3.37890625) (-7.305540466308593e-05, 3.380859375) (-7.92847442626953e-05, 3.3828125) (-8.553385925292968e-05, 3.384765625) (-9.119870758056641e-05, 3.38671875) (-9.552436828613281e-05, 3.388671875) (-9.94437026977539e-05, 3.390625) (-0.00010331518554687499, 3.392578125) (-0.00010903035736083985, 3.39453125) (-0.00011869896697998046, 3.396484375) (-0.00012981724548339843, 3.3984375) (-0.00014062280273437498, 3.400390625) (-0.00014850892639160155, 3.40234375) (-0.0001503549041748047, 3.404296875) (-0.0001493623046875, 3.40625) (-0.00014801322937011717, 3.408203125) (-0.00014803601074218748, 3.41015625) (-0.00015242643737792968, 3.412109375) (-0.00015925411987304688, 3.4140625) (-0.00016673355102539062, 3.416015625) (-0.00017468954467773437, 3.41796875) (-0.00018156649780273437, 3.419921875) (-0.00018781323242187499, 3.421875) (-0.00019442672729492186, 3.423828125) (-0.00020127796936035154, 3.42578125) (-0.0002084444122314453, 3.427734375) (-0.00021568193054199219, 3.4296875) (-0.00022230523681640623, 3.431640625) (-0.00022798522949218748, 3.43359375) (-0.00023296701049804687, 3.435546875) (-0.00023738067626953124, 3.4375) (-0.00024113793945312499, 3.439453125) (-0.0002442395172119141, 3.44140625) (-0.00024679394531249997, 3.443359375) (-0.0002493252258300781, 3.4453125) (-0.00025215333557128904, 3.447265625) (-0.0002544180908203125, 3.44921875) (-0.00025502012634277344, 3.451171875) (-0.00025442926025390623, 3.453125) (-0.00025617236328125, 3.455078125) (-0.0002666504211425781, 3.45703125) (-0.00029043334960937497, 3.458984375) (-0.00032394903564453124, 3.4609375) (-0.0003558615112304687, 3.462890625) (-0.00037218646240234373, 3.46484375) (-0.000362804443359375, 3.466796875) (-0.000331839111328125, 3.46875) (-0.0002947073669433594, 3.470703125) (-0.0002662945556640625, 3.47265625) (-0.0002580530395507812, 3.474609375) (-0.00026889849853515624, 3.4765625) (-0.0002871600646972656, 3.478515625) (-0.00030469598388671874, 3.48046875) (-0.00031549237060546874, 3.482421875) (-0.00031895651245117184, 3.484375) (-0.00032100958251953123, 3.486328125) (-0.0003243401489257812, 3.48828125) (-0.0003298006591796875, 3.490234375) (-0.000337466796875, 3.4921875) (-0.00034480673217773437, 3.494140625) (-0.0003502252502441406, 3.49609375) (-0.0003536708068847656, 3.498046875) (-0.00035520196533203125, 3.5) (-0.0003554038696289062, 3.501953125) (-0.00035512939453125, 3.50390625) (-0.00035465203857421875, 3.505859375) (-0.0003540083312988281, 3.5078125) (-0.00035342221069335934, 3.509765625) (-0.0003530982055664062, 3.51171875) (-0.0003531420288085937, 3.513671875) (-0.00035365780639648437, 3.515625) (-0.00035457867431640624, 3.517578125) (-0.0003556224365234375, 3.51953125) (-0.00035665679931640626, 3.521484375) (-0.00035767245483398435, 3.5234375) (-0.0003586473388671875, 3.525390625) (-0.00035962704467773434, 3.52734375) (-0.0003606323547363281, 3.529296875) (-0.0003616282958984375, 3.53125) (-0.00036262866210937496, 3.533203125) (-0.00036368466186523435, 3.53515625) (-0.0003648200073242187, 3.537109375) (-0.00036604656982421876, 3.5390625) (-0.00036735858154296876, 3.541015625) (-0.0003687208251953125, 3.54296875) (-0.00037011483764648435, 3.544921875) (-0.0003715389404296875, 3.546875) (-0.00037299285888671874, 3.548828125) (-0.0003744841613769531, 3.55078125) (-0.00037601428222656247, 3.552734375) (-0.0003775770263671875, 3.5546875) (-0.00037916671752929684, 3.556640625) (-0.000380776611328125, 3.55859375) (-0.0003824032287597656, 3.560546875) (-0.000384047607421875, 3.5625) (-0.00038570919799804686, 3.564453125) (-0.0003873866577148437, 3.56640625) (-0.0003890784912109375, 3.568359375) (-0.00039078192138671875, 3.5703125) (-0.00039249642944335934, 3.572265625) (-0.00039422384643554684, 3.57421875) (-0.00039596319580078123, 3.576171875) (-0.000397711181640625, 3.578125) (-0.0003994619140625, 3.580078125) (-0.00040120684814453126, 3.58203125) (-0.0004029391174316406, 3.583984375) (-0.0004046540222167969, 3.5859375) (-0.000406346923828125, 3.587890625) (-0.000408013916015625, 3.58984375) (-0.00040965039062499997, 3.591796875) (-0.0004112508850097656, 3.59375) (-0.0004128109130859375, 3.595703125) (-0.0004143265380859375, 3.59765625) (-0.0004157940368652344, 3.599609375) (-0.0004172098999023437, 3.6015625) (-0.00041857037353515626, 3.603515625) (-0.00041987158203124996, 3.60546875) (-0.0004211108093261719, 3.607421875) (-0.0004222861633300781, 3.609375) (-0.000423396484375, 3.611328125) (-0.000424441650390625, 3.61328125) (-0.00042542132568359375, 3.615234375) (-0.00042633551025390626, 3.6171875) (-0.000427184814453125, 3.619140625) (-0.00042796984863281245, 3.62109375) (-0.0004286919250488281, 3.623046875) (-0.0004293524475097656, 3.625) (-0.00042995263671875, 3.626953125) (-0.00043049371337890624, 3.62890625) (-0.0004309776000976562, 3.630859375) (-0.000431406005859375, 3.6328125) (-0.00043178170776367184, 3.634765625) (-0.00043210787963867184, 3.63671875) (-0.00043238534545898436, 3.638671875) (-0.0004326151123046875, 3.640625) (-0.00043279937744140624, 3.642578125) (-0.00043293975830078124, 3.64453125) (-0.00043303955078125, 3.646484375) (-0.00043310382080078124, 3.6484375) (-0.00043313143920898435, 3.650390625) (-0.000433120849609375, 3.65234375) (-0.0004330819702148437, 3.654296875) (-0.0004330228271484375, 3.65625) (-0.0004329501037597656, 3.658203125) (-0.0004328737487792969, 3.66015625) (-0.0004327884826660156, 3.662109375) (-0.0004326828002929687, 3.6640625) (-0.0004325687561035156, 3.666015625) (-0.000432458740234375, 3.66796875) (-0.00043232751464843746, 3.669921875) (-0.00043215594482421874, 3.671875) (-0.0004319287109375, 3.673828125) (-0.0004316214904785156, 3.67578125) (-0.0004312536926269531, 3.677734375) (-0.00043086456298828125, 3.6796875) (-0.0004304307861328125, 3.681640625) (-0.0004299111633300781, 3.68359375) (-0.0004294090881347656, 3.685546875) (-0.0004290469970703125, 3.6875) (-0.00042874896240234375, 3.689453125) (-0.0004285205078125, 3.69140625) (-0.0004283832092285156, 3.693359375) (-0.00042806829833984375, 3.6953125) (-0.00042829364013671875, 3.697265625) (-0.000429757568359375, 3.69921875) (-0.0004314578857421875, 3.701171875) (-0.0004330896606445312, 3.703125) (-0.0004328135375976562, 3.705078125) (-0.00042842816162109374, 3.70703125) (-0.00042236669921875, 3.708984375) (-0.00041625021362304683, 3.7109375) (-0.0004124935913085937, 3.712890625) (-0.00041441473388671875, 3.71484375) (-0.00041907635498046874, 3.716796875) (-0.0004239888000488281, 3.71875) (-0.00042744573974609374, 3.720703125) (-0.00042662805175781247, 3.72265625) (-0.0004235498657226562, 3.724609375) (-0.00042025280761718746, 3.7265625) (-0.00041719039916992184, 3.728515625) (-0.00041560723876953124, 3.73046875) (-0.0004147807922363281, 3.732421875) (-0.0004137822265625, 3.734375) (-0.0004127891235351562, 3.736328125) (-0.000411683837890625, 3.73828125) (-0.00041052978515625, 3.740234375) (-0.0004095164794921875, 3.7421875) (-0.0004085221557617187, 3.744140625) (-0.00040745001220703124, 3.74609375) (-0.00040633432006835935, 3.748046875) (-0.00040518438720703125, 3.75) (-0.0004039906311035156, 3.751953125) (-0.0004027579345703125, 3.75390625) (-0.0004014957580566406, 3.755859375) (-0.0004002101440429687, 3.7578125) (-0.00039892153930664063, 3.759765625) (-0.00039765371704101563, 3.76171875) (-0.00039640066528320313, 3.763671875) (-0.0003951564025878906, 3.765625) (-0.00039392666625976563, 3.767578125) (-0.000392712890625, 3.76953125) (-0.00039151766967773435, 3.771484375) (-0.00039034460449218747, 3.7734375) (-0.0003891930541992187, 3.775390625) (-0.0003880618896484375, 3.77734375) (-0.0003869539794921875, 3.779296875) (-0.00038587164306640626, 3.78125) (-0.00038481585693359374, 3.783203125) (-0.00038378802490234373, 3.78515625) (-0.00038278857421875, 3.787109375) (-0.00038181756591796874, 3.7890625) (-0.000380875244140625, 3.791015625) (-0.0003799616088867187, 3.79296875) (-0.00037907617187499996, 3.794921875) (-0.0003782183532714844, 3.796875) (-0.00037738720703124997, 3.798828125) (-0.0003765813903808594, 3.80078125) (-0.00037579965209960935, 3.802734375) (-0.0003750404663085937, 3.8046875) (-0.00037430218505859374, 3.806640625) (-0.00037358309936523433, 3.80859375) (-0.0003728814086914062, 3.810546875) (-0.000372195068359375, 3.8125) (-0.00037152218627929684, 3.814453125) (-0.00037086056518554684, 3.81640625) (-0.00037020819091796873, 3.818359375) (-0.00036956280517578123, 3.8203125) (-0.000368922119140625, 3.822265625) (-0.0003682838134765625, 3.82421875) (-0.000367645751953125, 3.826171875) (-0.000367005859375, 3.828125) (-0.00036636212158203124, 3.830078125) (-0.00036571282958984373, 3.83203125) (-0.00036505621337890623, 3.833984375) (-0.0003643907775878906, 3.8359375) (-0.00036371514892578124, 3.837890625) (-0.00036302816772460937, 3.83984375) (-0.0003623289184570312, 3.841796875) (-0.0003616165466308594, 3.84375) (-0.0003608902587890625, 3.845703125) (-0.00036014950561523434, 3.84765625) (-0.00035939416503906246, 3.849609375) (-0.00035862408447265623, 3.8515625) (-0.000357839599609375, 3.853515625) (-0.00035704107666015625, 3.85546875) (-0.000356229248046875, 3.857421875) (-0.00035540490722656246, 3.859375) (-0.00035456903076171875, 3.861328125) (-0.00035372274780273434, 3.86328125) (-0.00035286724853515625, 3.865234375) (-0.0003520037231445312, 3.8671875) (-0.0003511331787109375, 3.869140625) (-0.0003502567443847656, 3.87109375) (-0.0003493756103515625, 3.873046875) (-0.00034849090576171874, 3.875) (-0.0003476038208007812, 3.876953125) (-0.0003467154541015625, 3.87890625) (-0.0003458270874023437, 3.880859375) (-0.00034493994140625, 3.8828125) (-0.000344055419921875, 3.884765625) (-0.00034317483520507813, 3.88671875) (-0.00034229943847656247, 3.888671875) (-0.0003414305419921875, 3.890625) (-0.00034056903076171873, 3.892578125) (-0.0003397162170410156, 3.89453125) (-0.0003388730163574219, 3.896484375) (-0.00033804046630859374, 3.8984375) (-0.0003372193908691406, 3.900390625) (-0.00033641070556640623, 3.90234375) (-0.000335615234375, 3.904296875) (-0.00033483370971679687, 3.90625) (-0.00033406689453124996, 3.908203125) (-0.0003333153686523437, 3.91015625) (-0.00033257952880859376, 3.912109375) (-0.00033185952758789063, 3.9140625) (-0.00033115515136718747, 3.916015625) (-0.0003304662170410156, 3.91796875) (-0.0003297923583984375, 3.919921875) (-0.0003291329956054687, 3.921875) (-0.00032848748779296875, 3.923828125) (-0.0003278550415039062, 3.92578125) (-0.0003272349853515625, 3.927734375) (-0.00032662667846679685, 3.9296875) (-0.0003260296936035156, 3.931640625) (-0.0003254435119628906, 3.93359375) (-0.0003248676147460937, 3.935546875) (-0.0003243013000488281, 3.9375) (-0.000323743896484375, 3.939453125) (-0.00032319467163085934, 3.94140625) (-0.0003226528625488281, 3.943359375) (-0.0003221174621582031, 3.9453125) (-0.0003215873107910156, 3.947265625) (-0.00032106118774414064, 3.94921875) (-0.0003205380859375, 3.951171875) (-0.00032001690673828125, 3.953125) (-0.0003194966735839844, 3.955078125) (-0.000318976318359375, 3.95703125) (-0.00031845468139648435, 3.958984375) (-0.0003179302978515625, 3.9609375) (-0.00031740185546874996, 3.962890625) (-0.00031686773681640626, 3.96484375) (-0.0003163259582519531, 3.966796875) (-0.00031577453613281246, 3.96875) (-0.00031521102905273437, 3.970703125) (-0.0003146330871582031, 3.97265625) (-0.0003140384521484375, 3.974609375) (-0.0003134251403808594, 3.9765625) (-0.0003127913208007812, 3.978515625) (-0.0003121353759765625, 3.98046875) (-0.00031145568847656247, 3.982421875) (-0.000310750732421875, 3.984375) (-0.0003100195617675781, 3.986328125) (-0.00030926119995117185, 3.98828125) (-0.000308474609375, 3.990234375) (-0.00030765866088867185, 3.9921875) (-0.00030681207275390626, 3.994140625) (-0.00030593371582031246, 3.99609375) (-0.0003050230712890625, 3.998046875) (-0.000304079833984375, 4.0) (-0.00030310372924804687, 4.001953125) (-0.00030209497070312496, 4.00390625) (-0.00030105426025390624, 4.005859375) (-0.0002999828491210937, 4.0078125) (-0.0002988828125, 4.009765625) (-0.0002977562255859375, 4.01171875) (-0.00029660449218749997, 4.013671875) (-0.000295429443359375, 4.015625) (-0.0002942329406738281, 4.017578125) (-0.0002930165100097656, 4.01953125) (-0.000291781982421875, 4.021484375) (-0.00029053063964843746, 4.0234375) (-0.00028926315307617185, 4.025390625) (-0.00028798165893554684, 4.02734375) (-0.00028668994140625, 4.029296875) (-0.0002853927917480469, 4.03125) (-0.0002840962829589844, 4.033203125) (-0.00028280712890625, 4.03515625) (-0.00028153182983398436, 4.037109375) (-0.00028027780151367184, 4.0390625) (-0.000279053466796875, 4.041015625) (-0.0002778661499023437, 4.04296875) (-0.0002767225341796875, 4.044921875) (-0.00027562725830078123, 4.046875) (-0.00027458175659179684, 4.048828125) (-0.0002735888671875, 4.05078125) (-0.00027265316772460935, 4.052734375) (-0.00027178118896484374, 4.0546875) (-0.0002709823303222656, 4.056640625) (-0.0002702622680664062, 4.05859375) (-0.00026962194824218746, 4.060546875) (-0.0002690625305175781, 4.0625) (-0.0002685853881835937, 4.064453125) (-0.00026818753051757814, 4.06640625) (-0.0002678632202148437, 4.068359375) (-0.00026759820556640626, 4.0703125) (-0.000267368896484375, 4.072265625) (-0.00026715878295898436, 4.07421875) (-0.000266959228515625, 4.076171875) (-0.0002667676086425781, 4.078125) (-0.0002665898742675781, 4.080078125) (-0.00026642987060546873, 4.08203125) (-0.000266288330078125, 4.083984375) (-0.0002661680603027344, 4.0859375) (-0.00026607318115234375, 4.087890625) (-0.00026601144409179684, 4.08984375) (-0.000265994384765625, 4.091796875) (-0.00026602655029296874, 4.09375) (-0.0002661039123535156, 4.095703125) (-0.0002662316284179687, 4.09765625) (-0.0002664251098632812, 4.099609375) (-0.0002667196350097656, 4.1015625) (-0.00026717089843749997, 4.103515625) (-0.0002678150939941406, 4.10546875) (-0.00026866891479492184, 4.107421875) (-0.00026973913574218747, 4.109375) (-0.00027102020263671873, 4.111328125) (-0.0002725094299316406, 4.11328125) (-0.00027420062255859376, 4.115234375) (-0.00027606832885742184, 4.1171875) (-0.0002780692443847656, 4.119140625) (-0.0002801549072265625, 4.12109375) (-0.00028227777099609373, 4.123046875) (-0.0002844041137695312, 4.125) (-0.00028651638793945314, 4.126953125) (-0.00028858016967773435, 4.12890625) (-0.0002905406799316406, 4.130859375) (-0.000292314208984375, 4.1328125) (-0.000293791748046875, 4.134765625) (-0.0002948953247070312, 4.13671875) (-0.0002955726013183594, 4.138671875) (-0.0002957805480957031, 4.140625) (-0.000295485107421875, 4.142578125) (-0.0002946459350585937, 4.14453125) (-0.0002932391357421875, 4.146484375) (-0.00029128237915039063, 4.1484375) (-0.00028883056640625, 4.150390625) (-0.00028594918823242186, 4.15234375) (-0.0002827019653320312, 4.154296875) (-0.0002791392822265625, 4.15625) (-0.000275300048828125, 4.158203125) (-0.00027125192260742185, 4.16015625) (-0.000267089599609375, 4.162109375) (-0.0002629381713867187, 4.1640625) (-0.00025894543457031247, 4.166015625) (-0.00025522494506835937, 4.16796875) (-0.00025186987304687497, 4.169921875) (-0.0002489705505371094, 4.171875) (-0.00024661569213867184, 4.173828125) (-0.00024490589904785153, 4.17578125) (-0.00024391906738281249, 4.177734375) (-0.00024368417358398435, 4.1796875) (-0.00024418954467773436, 4.181640625) (-0.00024541065979003906, 4.18359375) (-0.0002473217315673828, 4.185546875) (-0.00024990451049804684, 4.1875) (-0.0002531407775878906, 4.189453125) (-0.0002569762268066406, 4.19140625) (-0.00026133233642578125, 4.193359375) (-0.0002661075439453125, 4.1953125) (-0.00027118368530273436, 4.197265625) (-0.0002764715576171875, 4.19921875) (-0.0002818930358886719, 4.201171875) (-0.0002873666076660156, 4.203125) (-0.00029280850219726563, 4.205078125) (-0.00029812261962890624, 4.20703125) (-0.0003032282104492187, 4.208984375) (-0.00030808013916015624, 4.2109375) (-0.0003126590881347656, 4.212890625) (-0.0003169514465332031, 4.21484375) (-0.0003209444274902344, 4.216796875) (-0.0003246210327148437, 4.21875) (-0.00032796774291992184, 4.220703125) (-0.000330999755859375, 4.22265625) (-0.00033374530029296875, 4.224609375) (-0.0003362426147460937, 4.2265625) (-0.0003385379943847656, 4.228515625) (-0.0003406581115722656, 4.23046875) (-0.000342622314453125, 4.232421875) (-0.0003444534606933594, 4.234375) (-0.0003461739196777344, 4.236328125) (-0.00034781100463867183, 4.23828125) (-0.000349385986328125, 4.240234375) (-0.0003509035034179687, 4.2421875) (-0.00035235723876953125, 4.244140625) (-0.00035374349975585937, 4.24609375) (-0.0003550599060058594, 4.248046875) (-0.00035630722045898434, 4.25) (-0.000357485595703125, 4.251953125) (-0.00035858184814453124, 4.25390625) (-0.00035957922363281247, 4.255859375) (-0.0003604607238769531, 4.2578125) (-0.00036120785522460934, 4.259765625) (-0.0003618123168945312, 4.26171875) (-0.0003622713623046875, 4.263671875) (-0.0003625820922851562, 4.265625) (-0.00036274517822265623, 4.267578125) (-0.00036276367187499997, 4.26953125) (-0.00036264303588867187, 4.271484375) (-0.00036239526367187497, 4.2734375) (-0.0003620367431640625, 4.275390625) (-0.00036158117675781247, 4.27734375) (-0.00036104171752929687, 4.279296875) (-0.00036043115234375, 4.28125) (-0.00035976220703124996, 4.283203125) (-0.00035905157470703125, 4.28515625) (-0.00035831713867187496, 4.287109375) (-0.0003575759887695312, 4.2890625) (-0.0003568455810546875, 4.291015625) (-0.00035614117431640623, 4.29296875) (-0.00035547631835937496, 4.294921875) (-0.00035486404418945313, 4.296875) (-0.000354315673828125, 4.298828125) (-0.00035384033203125, 4.30078125) (-0.0003534458312988281, 4.302734375) (-0.00035313842773437496, 4.3046875) (-0.0003529224243164062, 4.306640625) (-0.00035280261230468746, 4.30859375) (-0.00035278353881835936, 4.310546875) (-0.0003528689575195312, 4.3125) (-0.00035306256103515623, 4.314453125) (-0.00035336660766601563, 4.31640625) (-0.00035378204345703124, 4.318359375) (-0.00035430908203125, 4.3203125) (-0.000354947021484375, 4.322265625) (-0.00035569384765624996, 4.32421875) (-0.00035654672241210937, 4.326171875) (-0.00035750192260742186, 4.328125) (-0.00035855490112304686, 4.330078125) (-0.00035970050048828126, 4.33203125) (-0.0003609330444335937, 4.333984375) (-0.0003622464599609375, 4.3359375) (-0.000363634521484375, 4.337890625) (-0.00036509005737304684, 4.33984375) (-0.0003666055297851562, 4.341796875) (-0.000368172607421875, 4.34375) (-0.000369782470703125, 4.345703125) (-0.00037142623901367187, 4.34765625) (-0.0003730955200195312, 4.349609375) (-0.000374781982421875, 4.3515625) (-0.0003764774169921875, 4.353515625) (-0.00037817437744140626, 4.35546875) (-0.0003798662719726562, 4.357421875) (-0.0003815477905273437, 4.359375) (-0.0003832151794433594, 4.361328125) (-0.00038486486816406246, 4.36328125) (-0.00038649340820312496, 4.365234375) (-0.00038809814453125, 4.3671875) (-0.00038967712402343746, 4.369140625) (-0.000391228515625, 4.37109375) (-0.0003927510070800781, 4.373046875) (-0.000394242919921875, 4.375) (-0.0003957023010253906, 4.376953125) (-0.00039712854003906247, 4.37890625) (-0.00039852294921875, 4.380859375) (-0.0003998876953125, 4.3828125) (-0.0004012264404296875, 4.384765625) (-0.000402543212890625, 4.38671875) (-0.00040384210205078125, 4.388671875) (-0.00040512850952148435, 4.390625) (-0.0004064088134765625, 4.392578125) (-0.0004076884460449219, 4.39453125) (-0.00040897271728515625, 4.396484375) (-0.00041026501464843745, 4.3984375) (-0.00041156610107421875, 4.400390625) (-0.00041287887573242184, 4.40234375) (-0.0004142077026367187, 4.404296875) (-0.0004155586242675781, 4.40625) (-0.0004169403076171875, 4.408203125) (-0.0004183575744628906, 4.41015625) (-0.0004198096313476562, 4.412109375) (-0.00042129614257812497, 4.4140625) (-0.00042281591796875, 4.416015625) (-0.0004243617248535156, 4.41796875) (-0.00042592333984374996, 4.419921875) (-0.00042748150634765625, 4.421875) (-0.0004290065307617187, 4.423828125) (-0.00043047644042968746, 4.42578125) (-0.00043187646484374996, 4.427734375) (-0.0004331960144042969, 4.4296875) (-0.00043443243408203123, 4.431640625) (-0.0004355806274414062, 4.43359375) (-0.0004366318359375, 4.435546875) (-0.0004375803527832031, 4.4375) (-0.00043842111206054686, 4.439453125) (-0.0004391491088867187, 4.44140625) (-0.0004397638549804687, 4.443359375) (-0.0004402576293945312, 4.4453125) (-0.00044061529541015624, 4.447265625) (-0.00044083477783203123, 4.44921875) (-0.00044092095947265625, 4.451171875) (-0.0004408931274414062, 4.453125) (-0.0004407898254394531, 4.455078125) (-0.0004406284484863281, 4.45703125) (-0.0004404037475585937, 4.458984375) (-0.00044010202026367187, 4.4609375) (-0.00043969360351562496, 4.462890625) (-0.0004391419677734375, 4.46484375) (-0.0004384098510742187, 4.466796875) (-0.0004374415893554687, 4.46875) (-0.0004361655883789062, 4.470703125) (-0.0004345189514160156, 4.47265625) (-0.0004324424438476562, 4.474609375) (-0.0004298888549804687, 4.4765625) (-0.0004268288879394531, 4.478515625) (-0.00042321563720703123, 4.48046875) (-0.00041899072265625, 4.482421875) (-0.00041408398437499996, 4.484375) (-0.00040840606689453125, 4.486328125) (-0.00040189413452148436, 4.48828125) (-0.0003945161437988281, 4.490234375) (-0.0003862486877441406, 4.4921875) (-0.00037708529663085935, 4.494140625) (-0.0003670379943847656, 4.49609375) (-0.0003561278686523437, 4.498046875) (-0.00034440707397460934, 4.5) (-0.00033195874023437497, 4.501953125) (-0.00031885064697265625, 4.50390625) (-0.0003051394653320312, 4.505859375) (-0.0002908716125488281, 4.5078125) (-0.000276074462890625, 4.509765625) (-0.00026079217529296876, 4.51171875) (-0.0002450828857421875, 4.513671875) (-0.00022900973510742186, 4.515625) (-0.00021264724731445312, 4.517578125) (-0.0001960562744140625, 4.51953125) (-0.00017927854919433592, 4.521484375) (-0.00016235533142089844, 4.5234375) (-0.0001453226318359375, 4.525390625) (-0.00012819955444335937, 4.52734375) (-0.00011099620056152344, 4.529296875) (-9.369903564453124e-05, 4.53125) (-7.626854705810546e-05, 4.533203125) (-5.8682552337646484e-05, 4.53515625) (-4.093436431884766e-05, 4.537109375) (-2.3024753570556638e-05, 4.5390625) (-4.969546794891357e-06, 4.541015625) (1.322176170349121e-05, 4.54296875) (3.154737281799316e-05, 4.544921875) (5.000112152099609e-05, 4.546875) (6.857624816894532e-05, 4.548828125) (8.726438903808594e-05, 4.55078125) (0.00010605214691162109, 4.552734375) (0.00012492892456054686, 4.5546875) (0.00014388659667968748, 4.556640625) (0.000162907470703125, 4.55859375) (0.00018196759033203125, 4.560546875) (0.00020103343200683594, 4.5625) (0.00022005957031249999, 4.564453125) (0.0002390099639892578, 4.56640625) (0.00025785812377929684, 4.568359375) (0.00027658038330078126, 4.5703125) (0.00029515960693359374, 4.572265625) (0.0003135792236328125, 4.57421875) (0.00033182122802734375, 4.576171875) (0.00034987322998046875, 4.578125) (0.000367727294921875, 4.580078125) (0.0003853733215332031, 4.58203125) (0.00040279989624023433, 4.583984375) (0.0004199940490722656, 4.5859375) (0.000436940185546875, 4.587890625) (0.0004536260375976562, 4.58984375) (0.0004700421752929687, 4.591796875) (0.00048618063354492183, 4.59375) (0.0005020359191894531, 4.595703125) (0.0005176013793945312, 4.59765625) (0.0005328687133789062, 4.599609375) (0.000547830078125, 4.6015625) (0.0005624774169921874, 4.603515625) (0.0005768021240234375, 4.60546875) (0.0005907953491210938, 4.607421875) (0.0006044469604492188, 4.609375) (0.0006177453002929687, 4.611328125) (0.00063068017578125, 4.61328125) (0.0006432429199218749, 4.615234375) (0.0006554256591796875, 4.6171875) (0.0006672215576171875, 4.619140625) (0.0006786240234375, 4.62109375) (0.000689626220703125, 4.623046875) (0.000700222412109375, 4.625) (0.00071040771484375, 4.626953125) (0.0007201766357421875, 4.62890625) (0.0007295242309570312, 4.630859375) (0.0007384453125, 4.6328125) (0.0007469348144531249, 4.634765625) (0.00075498828125, 4.63671875) (0.0007626021118164062, 4.638671875) (0.0007697730712890625, 4.640625) (0.0007764985961914062, 4.642578125) (0.0007827770385742187, 4.64453125) (0.0007886075439453125, 4.646484375) (0.000793989990234375, 4.6484375) (0.0007989254150390625, 4.650390625) (0.0008034151611328124, 4.65234375) (0.0008074616088867187, 4.654296875) (0.0008110678100585937, 4.65625) (0.0008142373046874999, 4.658203125) (0.0008169746704101563, 4.66015625) (0.0008192847900390625, 4.662109375) (0.0008211731567382812, 4.6640625) (0.00082264599609375, 4.666015625) (0.0008237100830078125, 4.66796875) (0.0008243728027343749, 4.669921875) (0.00082464208984375, 4.671875) (0.0008245262451171874, 4.673828125) (0.0008240342407226562, 4.67578125) (0.0008231750488281249, 4.677734375) (0.0008219580078125, 4.6796875) (0.0008203930053710938, 4.681640625) (0.0008184902343749999, 4.68359375) (0.0008162602539062499, 4.685546875) (0.0008137136230468749, 4.6875) (0.0008108616943359374, 4.689453125) (0.0008077160034179687, 4.69140625) (0.000804288818359375, 4.693359375) (0.0008005925903320312, 4.6953125) (0.000796640380859375, 4.697265625) (0.0007924454345703125, 4.69921875) (0.0007880209350585938, 4.701171875) (0.0007833804931640625, 4.703125) (0.0007785377197265625, 4.705078125) (0.000773506103515625, 4.70703125) (0.0007682991333007812, 4.708984375) (0.000762929931640625, 4.7109375) (0.0007574116210937499, 4.712890625) (0.0007517568359375, 4.71484375) (0.0007459783935546874, 4.716796875) (0.0007400885620117187, 4.71875) (0.0007340994873046875, 4.720703125) (0.0007280228271484375, 4.72265625) (0.0007218700561523437, 4.724609375) (0.0007156521606445312, 4.7265625) (0.0007093803710937499, 4.728515625) (0.0007030651245117188, 4.73046875) (0.000696716796875, 4.732421875) (0.000690345458984375, 4.734375) (0.000683960693359375, 4.736328125) (0.0006775721435546874, 4.73828125) (0.0006711888427734375, 4.740234375) (0.0006648197021484375, 4.7421875) (0.00065847265625, 4.744140625) (0.000652155517578125, 4.74609375) (0.000645875244140625, 4.748046875) (0.0006396381225585937, 4.75) (0.0006334500122070312, 4.751953125) (0.0006273156127929687, 4.75390625) (0.0006212390136718749, 4.755859375) (0.00061522314453125, 4.7578125) (0.0006092703857421875, 4.759765625) (0.0006033821411132812, 4.76171875) (0.0005975593872070312, 4.763671875) (0.0005918018798828124, 4.765625) (0.0005861088256835938, 4.767578125) (0.0005804785766601562, 4.76953125) (0.000574908935546875, 4.771484375) (0.000569397216796875, 4.7734375) (0.0005639400634765625, 4.775390625) (0.0005585337524414062, 4.77734375) (0.0005531739501953125, 4.779296875) (0.0005478562011718749, 4.78125) (0.0005425755004882812, 4.783203125) (0.0005373267211914063, 4.78515625) (0.0005321044921875, 4.787109375) (0.000526903076171875, 4.7890625) (0.0005217163085937499, 4.791015625) (0.0005165380249023437, 4.79296875) (0.0005113617248535156, 4.794921875) (0.0005061806945800781, 4.796875) (0.0005009878845214843, 4.798828125) (0.0004957762756347656, 4.80078125) (0.0004905387268066406, 4.802734375) (0.00048526812744140624, 4.8046875) (0.0004799576416015625, 4.806640625) (0.00047460067749023437, 4.80859375) (0.00046919110107421875, 4.810546875) (0.00046372332763671873, 4.8125) (0.00045819198608398437, 4.814453125) (0.0004525928039550781, 4.81640625) (0.0004469220581054687, 4.818359375) (0.00044117675781249997, 4.8203125) (0.00043535479736328124, 4.822265625) (0.0004294548950195312, 4.82421875) (0.0004234765014648437, 4.826171875) (0.00041742013549804686, 4.828125) (0.000411287109375, 4.830078125) (0.0004050797729492187, 4.83203125) (0.0003988010559082031, 4.833984375) (0.000392454833984375, 4.8359375) (0.000386045654296875, 4.837890625) (0.00037957870483398435, 4.83984375) (0.00037305966186523435, 4.841796875) (0.00036649481201171875, 4.84375) (0.0003598907470703125, 4.845703125) (0.00035325448608398437, 4.84765625) (0.0003465932922363281, 4.849609375) (0.00033991488647460935, 4.8515625) (0.0003332273559570312, 4.853515625) (0.0003265390625, 4.85546875) (0.0003198588562011719, 4.857421875) (0.0003131957092285156, 4.859375) (0.00030655895996093747, 4.861328125) (0.0002999581298828125, 4.86328125) (0.00029340283203125, 4.865234375) (0.0002869027404785156, 4.8671875) (0.00028046728515624997, 4.869140625) (0.00027410568237304687, 4.87109375) (0.00026782675170898437, 4.873046875) (0.00026163891601562497, 4.875) (0.0002555499877929687, 4.876953125) (0.00024956726074218746, 4.87890625) (0.0002436971740722656, 4.880859375) (0.00023794554138183594, 4.8828125) (0.00023231723022460937, 4.884765625) (0.00022681628417968748, 4.88671875) (0.00022144578552246093, 4.888671875) (0.0002162078399658203, 4.890625) (0.000211103515625, 4.892578125) (0.00020613285827636717, 4.89453125) (0.00020129481506347656, 4.896484375) (0.00019658744812011718, 4.8984375) (0.0001920078887939453, 4.900390625) (0.00018755247497558592, 4.90234375) (0.000183216796875, 4.904296875) (0.00017899578857421874, 4.90625) (0.00017488375854492186, 4.908203125) (0.00017087448120117188, 4.91015625) (0.00016696127319335938, 4.912109375) (0.0001631370086669922, 4.9140625) (0.00015939404296875, 4.916015625) (0.00015572421264648437, 4.91796875) (0.00015211891174316406, 4.919921875) (0.00014856903076171875, 4.921875) (0.00014506510925292967, 4.923828125) (0.00014159732055664062, 4.92578125) (0.00013815554809570312, 4.927734375) (0.0001347294921875, 4.9296875) (0.00013130874633789062, 4.931640625) (0.0001278828887939453, 4.93359375) (0.0001244417037963867, 4.935546875) (0.00012097518920898436, 4.9375) (0.00011747365570068359, 4.939453125) (0.00011392777252197266, 4.94140625) (0.00011032861328125, 4.943359375) (0.0001066676788330078, 4.9453125) (0.00010293714904785156, 4.947265625) (9.91298828125e-05, 4.94921875) (9.523944091796875e-05, 4.951171875) (9.12602310180664e-05, 4.953125) (8.718749237060546e-05, 4.955078125) (8.301734924316406e-05, 4.95703125) (7.874706268310546e-05, 4.958984375) (7.43749771118164e-05, 4.9609375) (6.990038299560546e-05, 4.962890625) (6.53234405517578e-05, 4.96484375) (6.0645233154296874e-05, 4.966796875) (5.5867622375488276e-05, 4.96875) (5.0993339538574216e-05, 4.970703125) (4.602602386474609e-05, 4.97265625) (4.0969749450683594e-05, 4.974609375) (3.5829086303710935e-05, 4.9765625) (3.06092300415039e-05, 4.978515625) (2.5315929412841797e-05, 4.98046875) (1.995558929443359e-05, 4.982421875) (1.4535310745239257e-05, 4.984375) (9.062655448913573e-06, 4.986328125) (3.5456130504608152e-06, 4.98828125) (-2.0071964263916015e-06, 4.990234375) (-7.586651802062988e-06, 4.9921875) (-1.3183159828186034e-05, 4.994140625) (-1.8786676406860352e-05, 4.99609375) (-2.4387054443359372e-05, 4.998046875) (-2.9974082946777344e-05, 5.0) (-3.5537475585937496e-05, 5.001953125) (-4.106697463989258e-05, 5.00390625) (-4.6552242279052734e-05, 5.005859375) (-5.1982810974121093e-05, 5.0078125) (-5.734849548339844e-05, 5.009765625) (-6.263951492309571e-05, 5.01171875) (-6.784628295898437e-05, 5.013671875) (-7.29595947265625e-05, 5.015625) (-7.797067260742187e-05, 5.017578125) (-8.287110900878906e-05, 5.01953125) (-8.765362548828124e-05, 5.021484375) (-9.231227111816406e-05, 5.0234375) (-9.684179687499999e-05, 5.025390625) (-0.00010123783111572265, 5.02734375) (-0.00010549719238281249, 5.029296875) (-0.00010961774444580077, 5.03125) (-0.00011359869384765624, 5.033203125) (-0.00011744085693359375, 5.03515625) (-0.0001211451416015625, 5.037109375) (-0.0001247125244140625, 5.0390625) (-0.00012814483642578124, 5.041015625) (-0.0001314445037841797, 5.04296875) (-0.00013461428833007812, 5.044921875) (-0.00013765745544433593, 5.046875) (-0.00014057711791992187, 5.048828125) (-0.00014337586975097656, 5.05078125) (-0.00014605816650390625, 5.052734375) (-0.00014863026428222655, 5.0546875) (-0.00015109971618652344, 5.056640625) (-0.00015347563171386717, 5.05859375) (-0.00015576783752441407, 5.060546875) (-0.0001579863586425781, 5.0625) (-0.00016014276123046874, 5.064453125) (-0.0001622498016357422, 5.06640625) (-0.00016431982421874998, 5.068359375) (-0.00016636529541015624, 5.0703125) (-0.0001683970489501953, 5.072265625) (-0.00017042337036132812, 5.07421875) (-0.0001724550018310547, 5.076171875) (-0.0001745042266845703, 5.078125) (-0.00017658512878417968, 5.080078125) (-0.00017871505737304688, 5.08203125) (-0.00018090731811523436, 5.083984375) (-0.00018316949462890625, 5.0859375) (-0.00018550912475585936, 5.087890625) (-0.00018793251037597656, 5.08984375) (-0.00019043995666503905, 5.091796875) (-0.00019302874755859373, 5.09375) (-0.00019568760681152342, 5.095703125) (-0.0001983953857421875, 5.09765625) (-0.0002011394348144531, 5.099609375) (-0.00020391502380371092, 5.1015625) (-0.00020672323608398436, 5.103515625) (-0.00020957470703125, 5.10546875) (-0.00021247872924804687, 5.107421875) (-0.0002154414367675781, 5.109375) (-0.00021847192382812498, 5.111328125) (-0.0002215785675048828, 5.11328125) (-0.00022476979064941407, 5.115234375) (-0.0002280589599609375, 5.1171875) (-0.000231453125, 5.119140625) (-0.000234952880859375, 5.12109375) (-0.00023857238769531248, 5.123046875) (-0.00024233297729492185, 5.125) (-0.0002462706604003906, 5.126953125) (-0.00025044088745117184, 5.12890625) (-0.0002548769378662109, 5.130859375) (-0.0002595879211425781, 5.1328125) (-0.0002645714416503906, 5.134765625) (-0.00026980523681640624, 5.13671875) (-0.0002752580261230469, 5.138671875) (-0.00028089590454101563, 5.140625) (-0.0002866671752929687, 5.142578125) (-0.00029250601196289063, 5.14453125) (-0.00029835577392578125, 5.146484375) (-0.00030416232299804684, 5.1484375) (-0.00030988323974609375, 5.150390625) (-0.00031549212646484376, 5.15234375) (-0.0003209435424804687, 5.154296875) (-0.00032617965698242187, 5.15625) (-0.0003311283264160156, 5.158203125) (-0.0003356958312988281, 5.16015625) (-0.000339813720703125, 5.162109375) (-0.00034344442749023433, 5.1640625) (-0.00034656103515625, 5.166015625) (-0.00034915698242187496, 5.16796875) (-0.0003512455139160156, 5.169921875) (-0.00035284942626953125, 5.171875) (-0.00035402099609375, 5.173828125) (-0.00035484002685546873, 5.17578125) (-0.00035536874389648435, 5.177734375) (-0.00035565731811523435, 5.1796875) (-0.000355744140625, 5.181640625) (-0.00035564785766601563, 5.18359375) (-0.00035540289306640625, 5.185546875) (-0.00035505697631835935, 5.1875) (-0.0003546634826660156, 5.189453125) (-0.00035428900146484374, 5.19140625) (-0.00035398635864257813, 5.193359375) (-0.00035378826904296874, 5.1953125) (-0.00035372442626953126, 5.197265625) (-0.0003538152160644531, 5.19921875) (-0.00035406188964843746, 5.201171875) (-0.0003544549865722656, 5.203125) (-0.0003549610900878906, 5.205078125) (-0.00035552206420898436, 5.20703125) (-0.00035609725952148437, 5.208984375) (-0.0003566612243652344, 5.2109375) (-0.000357196533203125, 5.212890625) (-0.0003577013854980469, 5.21484375) (-0.0003581678771972656, 5.216796875) (-0.0003585809631347656, 5.21875) (-0.00035892916870117187, 5.220703125) (-0.0003592000732421875, 5.22265625) (-0.0003593825073242187, 5.224609375) (-0.000359470703125, 5.2265625) (-0.0003594571838378906, 5.228515625) (-0.0003593338623046875, 5.23046875) (-0.00035910327148437496, 5.232421875) (-0.0003587748718261719, 5.234375) (-0.00035836810302734373, 5.236328125) (-0.00035791412353515626, 5.23828125) (-0.0003574348449707031, 5.240234375) (-0.0003569427795410156, 5.2421875) (-0.00035644720458984373, 5.244140625) (-0.0003559506225585937, 5.24609375) (-0.00035545452880859376, 5.248046875) (-0.0003549615478515625, 5.25) (-0.00035446896362304684, 5.251953125) (-0.0003539700927734375, 5.25390625) (-0.0003534607543945312, 5.255859375) (-0.00035293759155273437, 5.2578125) (-0.00035239892578124997, 5.259765625) (-0.0003518455810546875, 5.26171875) (-0.00035127484130859375, 5.263671875) (-0.0003506815185546875, 5.265625) (-0.0003500591125488281, 5.267578125) (-0.00034939904785156247, 5.26953125) (-0.0003486944885253906, 5.271484375) (-0.00034794064331054685, 5.2734375) (-0.0003471329650878906, 5.275390625) (-0.0003462679443359375, 5.27734375) (-0.00034534335327148435, 5.279296875) (-0.00034435769653320313, 5.28125) (-0.0003433115539550781, 5.283203125) (-0.0003422075500488281, 5.28515625) (-0.00034104730224609374, 5.287109375) (-0.00033983166503906247, 5.2890625) (-0.000338561279296875, 5.291015625) (-0.0003372362060546875, 5.29296875) (-0.00033585702514648435, 5.294921875) (-0.0003344248657226562, 5.296875) (-0.00033294052124023435, 5.298828125) (-0.00033140460205078123, 5.30078125) (-0.0003298183288574219, 5.302734375) (-0.0003281836242675781, 5.3046875) (-0.00032650286865234374, 5.306640625) (-0.00032477902221679684, 5.30859375) (-0.00032301522827148435, 5.310546875) (-0.00032121453857421876, 5.3125) (-0.0003193804931640625, 5.314453125) (-0.00031751672363281247, 5.31640625) (-0.00031562686157226563, 5.318359375) (-0.0003137147827148437, 5.3203125) (-0.00031178417968749997, 5.322265625) (-0.00030983856201171874, 5.32421875) (-0.0003078815612792969, 5.326171875) (-0.000305916748046875, 5.328125) (-0.000303947509765625, 5.330078125) (-0.00030197698974609375, 5.33203125) (-0.0003000083312988281, 5.333984375) (-0.00029804400634765625, 5.3359375) (-0.00029608645629882813, 5.337890625) (-0.0002941376953125, 5.33984375) (-0.0002921993408203125, 5.341796875) (-0.00029027252197265623, 5.34375) (-0.00028835791015625, 5.345703125) (-0.0002864556884765625, 5.34765625) (-0.00028456573486328125, 5.349609375) (-0.000282687744140625, 5.3515625) (-0.00028082107543945313, 5.353515625) (-0.00027896502685546875, 5.35546875) (-0.00027711846923828123, 5.357421875) (-0.0002752801513671875, 5.359375) (-0.0002734488220214844, 5.361328125) (-0.000271623046875, 5.36328125) (-0.00026980108642578126, 5.365234375) (-0.0002679809875488281, 5.3671875) (-0.0002661605529785156, 5.369140625) (-0.00026433734130859376, 5.37109375) (-0.0002625088806152344, 5.373046875) (-0.00026067269897460935, 5.375) (-0.0002588260192871094, 5.376953125) (-0.0002569661865234375, 5.37890625) (-0.00025509054565429684, 5.380859375) (-0.0002531964874267578, 5.3828125) (-0.0002512815246582031, 5.384765625) (-0.00024934335327148435, 5.38671875) (-0.00024737969970703124, 5.388671875) (-0.00024538844299316405, 5.390625) (-0.00024336767578125, 5.392578125) (-0.000241315673828125, 5.39453125) (-0.00023923106384277342, 5.396484375) (-0.0002371126708984375, 5.3984375) (-0.00023495964050292966, 5.400390625) (-0.0002327713623046875, 5.40234375) (-0.00023054757690429688, 5.404296875) (-0.00022828826904296875, 5.40625) (-0.00022599383544921875, 5.408203125) (-0.00022366485595703124, 5.41015625) (-0.00022130212402343748, 5.412109375) (-0.0002189066162109375, 5.4140625) (-0.00021647955322265624, 5.416015625) (-0.00021402227783203124, 5.41796875) (-0.0002115364074707031, 5.419921875) (-0.0002090235595703125, 5.421875) (-0.00020648553466796874, 5.423828125) (-0.0002039241027832031, 5.42578125) (-0.00020134117126464844, 5.427734375) (-0.00019873878479003906, 5.4296875) (-0.00019611883544921874, 5.431640625) (-0.00019348324584960938, 5.43359375) (-0.00019083378601074218, 5.435546875) (-0.00018817211914062498, 5.4375) (-0.0001854998321533203, 5.439453125) (-0.00018281835937499998, 5.44140625) (-0.00018012896728515624, 5.443359375) (-0.0001774326934814453, 5.4453125) (-0.00017473034667968748, 5.447265625) (-0.00017202252197265623, 5.44921875) (-0.0001693095703125, 5.451171875) (-0.00016659158325195311, 5.453125) (-0.00016386837768554686, 5.455078125) (-0.0001611394500732422, 5.45703125) (-0.0001584038848876953, 5.458984375) (-0.00015566046142578125, 5.4609375) (-0.0001529078369140625, 5.462890625) (-0.00015014427185058594, 5.46484375) (-0.00014736785888671875, 5.466796875) (-0.00014457640075683594, 5.46875) (-0.00014176751708984374, 5.470703125) (-0.00013893875122070312, 5.47265625) (-0.00013608746337890625, 5.474609375) (-0.00013321099853515623, 5.4765625) (-0.0001303065490722656, 5.478515625) (-0.00012737120819091797, 5.48046875) (-0.00012440191650390625, 5.482421875) (-0.00012139559936523436, 5.484375) (-0.00011834916687011719, 5.486328125) (-0.00011525955200195311, 5.48828125) (-0.0001121236801147461, 5.490234375) (-0.00010893850708007812, 5.4921875) (-0.00010570104217529296, 5.494140625) (-0.00010240845489501952, 5.49609375) (-9.905812072753906e-05, 5.498046875) (-9.564759063720703e-05, 5.5) (-9.21745376586914e-05, 5.501953125) (-8.863677978515624e-05, 5.50390625) (-8.503227233886718e-05, 5.505859375) (-8.135924530029297e-05, 5.5078125) (-7.761615753173827e-05, 5.509765625) (-7.380172729492187e-05, 5.51171875) (-6.991490936279296e-05, 5.513671875) (-6.595486450195312e-05, 5.515625) (-6.192104721069335e-05, 5.517578125) (-5.781326293945312e-05, 5.51953125) (-5.363164138793945e-05, 5.521484375) (-4.937656784057617e-05, 5.5234375) (-4.504862594604492e-05, 5.525390625) (-4.064851379394531e-05, 5.52734375) (-3.6177085876464844e-05, 5.529296875) (-3.163533020019531e-05, 5.53125) (-2.7024337768554687e-05, 5.533203125) (-2.2345233917236326e-05, 5.53515625) (-1.75991096496582e-05, 5.537109375) (-1.2787028312683105e-05, 5.5390625) (-7.910076141357422e-06, 5.541015625) (-2.969409465789795e-06, 5.54296875) (2.033757209777832e-06, 5.544921875) (7.09820556640625e-06, 5.546875) (1.2222766876220703e-05, 5.548828125) (1.740632057189941e-05, 5.55078125) (2.2647758483886716e-05, 5.552734375) (2.7945953369140622e-05, 5.5546875) (3.32997932434082e-05, 5.556640625) (3.87082290649414e-05, 5.55859375) (4.417031097412109e-05, 5.560546875) (4.9685146331787104e-05, 5.5625) (5.525185775756836e-05, 5.564453125) (6.0869518280029295e-05, 5.56640625) (6.653718566894531e-05, 5.568359375) (7.225395202636718e-05, 5.5703125) (7.801897430419922e-05, 5.572265625) (8.383150482177733e-05, 5.57421875) (8.96907730102539e-05, 5.576171875) (9.55960464477539e-05, 5.578125) (0.00010154662322998046, 5.580078125) (0.00010754186248779297, 5.58203125) (0.00011358119201660156, 5.583984375) (0.00011966408538818358, 5.5859375) (0.00012578992462158203, 5.587890625) (0.00013195794677734374, 5.58984375) (0.00013816722106933593, 5.591796875) (0.00014441671752929688, 5.59375) (0.0001507052307128906, 5.595703125) (0.0001570313262939453, 5.59765625) (0.00016339332580566406, 5.599609375) (0.00016978919982910156, 5.6015625) (0.00017621673583984374, 5.603515625) (0.0001826734161376953, 5.60546875) (0.00018915667724609374, 5.607421875) (0.00019566371154785156, 5.609375) (0.00020219140624999998, 5.611328125) (0.00020873651123046874, 5.61328125) (0.0002152955322265625, 5.615234375) (0.00022186492919921874, 5.6171875) (0.0002284409942626953, 5.619140625) (0.00023501995849609374, 5.62109375) (0.00024159793090820311, 5.623046875) (0.0002481708984375, 5.625) (0.0002547347717285156, 5.626953125) (0.0002612855834960937, 5.62890625) (0.00026781927490234376, 5.630859375) (0.0002743318786621094, 5.6328125) (0.0002808193969726562, 5.634765625) (0.00028727783203125, 5.63671875) (0.0002937031860351562, 5.638671875) (0.0003000916748046875, 5.640625) (0.0003064395751953125, 5.642578125) (0.00031274328613281247, 5.64453125) (0.0003189992980957031, 5.646484375) (0.0003252042846679687, 5.6484375) (0.00033135507202148435, 5.650390625) (0.00033744885253906247, 5.65234375) (0.0003434831237792969, 5.654296875) (0.00034945556640625, 5.65625) (0.0003553643188476562, 5.658203125) (0.0003612078857421875, 5.66015625) (0.00036698529052734373, 5.662109375) (0.0003726959838867187, 5.6640625) (0.00037833984375, 5.666015625) (0.0003839173583984375, 5.66796875) (0.0003894292602539062, 5.669921875) (0.0003948768310546875, 5.671875) (0.0004002616271972656, 5.673828125) (0.00040558575439453125, 5.67578125) (0.0004108515625, 5.677734375) (0.00041606167602539063, 5.6796875) (0.00042121917724609374, 5.681640625) (0.0004263272705078125, 5.68359375) (0.00043138970947265626, 5.685546875) (0.00043641046142578124, 5.6875) (0.0004413937072753906, 5.689453125) (0.0004463438720703125, 5.69140625) (0.0004512657775878906, 5.693359375) (0.0004561643676757812, 5.6953125) (0.0004610444946289062, 5.697265625) (0.00046591143798828123, 5.69921875) (0.00047077050781249997, 5.701171875) (0.00047562677001953125, 5.703125) (0.0004804856567382812, 5.705078125) (0.00048535205078124996, 5.70703125) (0.0004902310485839843, 5.708984375) (0.0004951275939941406, 5.7109375) (0.0005000465698242187, 5.712890625) (0.0005049927673339843, 5.71484375) (0.0005099707641601563, 5.716796875) (0.0005149849853515625, 5.71875) (0.00052003955078125, 5.720703125) (0.0005251383666992187, 5.72265625) (0.0005302851562499999, 5.724609375) (0.00053548291015625, 5.7265625) (0.0005407343139648438, 5.728515625) (0.0005460418701171874, 5.73046875) (0.00055140771484375, 5.732421875) (0.000556833740234375, 5.734375) (0.000562321533203125, 5.736328125) (0.0005678724365234375, 5.73828125) (0.0005734876098632812, 5.740234375) (0.0005791681518554688, 5.7421875) (0.0005849149780273438, 5.744140625) (0.0005907285156249999, 5.74609375) (0.0005966090087890625, 5.748046875) (0.0006025563964843749, 5.75) (0.0006085701904296874, 5.751953125) (0.0006146499633789063, 5.75390625) (0.000620794921875, 5.755859375) (0.000627004150390625, 5.7578125) (0.0006332769775390625, 5.759765625) (0.0006396123657226562, 5.76171875) (0.000646009521484375, 5.763671875) (0.000652468017578125, 5.765625) (0.00065898779296875, 5.767578125) (0.0006655694580078124, 5.76953125) (0.0006722141723632812, 5.771484375) (0.0006789232788085937, 5.7734375) (0.0006856976318359375, 5.775390625) (0.0006925389404296875, 5.77734375) (0.000699448974609375, 5.779296875) (0.0007064295654296875, 5.78125) (0.000713482666015625, 5.783203125) (0.0007206091918945312, 5.78515625) (0.000727809814453125, 5.787109375) (0.0007350859985351563, 5.7890625) (0.0007424400634765625, 5.791015625) (0.0007498746948242188, 5.79296875) (0.0007573934326171875, 5.794921875) (0.0007649996337890625, 5.796875) (0.0007726968383789062, 5.798828125) (0.0007804893798828125, 5.80078125) (0.000788381591796875, 5.802734375) (0.00079637744140625, 5.8046875) (0.0008044813232421875, 5.806640625) (0.0008126969604492188, 5.80859375) (0.000821025634765625, 5.810546875) (0.0008294703979492187, 5.8125) (0.0008380347900390625, 5.814453125) (0.0008467237548828125, 5.81640625) (0.0008555465087890624, 5.818359375) (0.0008645092163085937, 5.8203125) (0.00087361279296875, 5.822265625) (0.0008828554077148438, 5.82421875) (0.00089223095703125, 5.826171875) (0.0009017277832031249, 5.828125) (0.0009113309326171875, 5.830078125) (0.0009210175781249999, 5.83203125) (0.0009307539672851563, 5.833984375) (0.0009405057373046875, 5.8359375) (0.000950238037109375, 5.837890625) (0.000959918212890625, 5.83984375) (0.0009695216674804687, 5.841796875) (0.0009790219726562499, 5.84375) (0.0009883905029296875, 5.845703125) (0.0009975947875976562, 5.84765625) (0.001006595703125, 5.849609375) (0.0010153600463867188, 5.8515625) (0.0010238673095703124, 5.853515625) (0.0010321081542968749, 5.85546875) (0.0010400797119140624, 5.857421875) (0.001047791015625, 5.859375) (0.0010552589111328125, 5.861328125) (0.0010625181884765624, 5.86328125) (0.001069633544921875, 5.865234375) (0.0010766746826171875, 5.8671875) (0.0010837059326171874, 5.869140625) (0.0010907760009765625, 5.87109375) (0.00109791162109375, 5.873046875) (0.0011051324462890626, 5.875) (0.00111245849609375, 5.876953125) (0.0011199140625, 5.87890625) (0.0011275126953124999, 5.880859375) (0.0011352474365234374, 5.8828125) (0.0011430803222656249, 5.884765625) (0.001150941162109375, 5.88671875) (0.001158748046875, 5.888671875) (0.0011663981933593749, 5.890625) (0.0011737679443359374, 5.892578125) (0.001180698974609375, 5.89453125) (0.0011869776611328124, 5.896484375) (0.0011923681640625, 5.8984375) (0.0011966435546875, 5.900390625) (0.0011996103515624999, 5.90234375) (0.0012011026611328125, 5.904296875) (0.0012009674072265624, 5.90625) (0.0011990473632812499, 5.908203125) (0.0011951751708984375, 5.91015625) (0.0011892241210937498, 5.912109375) (0.0011811175537109375, 5.9140625) (0.0011708287353515625, 5.916015625) (0.001158386474609375, 5.91796875) (0.0011438374023437499, 5.919921875) (0.001127251220703125, 5.921875) (0.0011087420654296875, 5.923828125) (0.001088480712890625, 5.92578125) (0.0010667137451171875, 5.927734375) (0.001043737548828125, 5.9296875) (0.0010198455200195313, 5.931640625) (0.000995291259765625, 5.93359375) (0.000970312255859375, 5.935546875) (0.0009451439208984374, 5.9375) (0.0009200579833984375, 5.939453125) (0.0008953764038085937, 5.94140625) (0.0008713734130859375, 5.943359375) (0.0008482551879882812, 5.9453125) (0.00082616357421875, 5.947265625) (0.0008051629638671875, 5.94921875) (0.0007853409423828125, 5.951171875) (0.0007668206176757812, 5.953125) (0.0007496419677734375, 5.955078125) (0.0007337259521484374, 5.95703125) (0.0007188464965820312, 5.958984375) (0.0007046923828124999, 5.9609375) (0.0006910694580078124, 5.962890625) (0.00067797216796875, 5.96484375) (0.000665401611328125, 5.966796875) (0.0006532559814453124, 5.96875) (0.0006414082641601562, 5.970703125) (0.0006297657470703125, 5.97265625) (0.0006185512084960937, 5.974609375) (0.00060818359375, 5.9765625) (0.0005988570556640625, 5.978515625) (0.00059047900390625, 5.98046875) (0.0005826839599609374, 5.982421875) (0.0005750508422851562, 5.984375) (0.0005672542724609375, 5.986328125) (0.0005589199829101562, 5.98828125) (0.0005492506713867187, 5.990234375) (0.0005373046264648437, 5.9921875) (0.0005224098510742187, 5.994140625) (0.0005041664733886718, 5.99609375) (0.00048280429077148434, 5.998046875) (0.00045892779541015623, 6.0) (0.0004331094360351562, 6.001953125) (0.00040616595458984375, 6.00390625) (0.00037937362670898436, 6.005859375) (0.0003539773559570312, 6.0078125) (0.00033104595947265625, 6.009765625) (0.00031154302978515623, 6.01171875) (0.00029569287109375, 6.013671875) (0.00028321206665039064, 6.015625) (0.000273760986328125, 6.017578125) (0.0002665934448242187, 6.01953125) (0.0002605956115722656, 6.021484375) (0.0002548495788574219, 6.0234375) (0.00024849856567382814, 6.025390625) (0.00024064080810546874, 6.02734375) (0.00023090386962890623, 6.029296875) (0.00021926455688476562, 6.03125) (0.00020577871704101561, 6.033203125) (0.00019088165283203125, 6.03515625) (0.00017520639038085936, 6.037109375) (0.00015915951538085938, 6.0390625) (0.00014311784362792967, 6.041015625) (0.0001275121612548828, 6.04296875) (0.00011254266357421875, 6.044921875) (9.829920196533202e-05, 6.046875) (8.48332290649414e-05, 6.048828125) (7.197328186035156e-05, 6.05078125) (5.947108078002929e-05, 6.052734375) (4.723299407958984e-05, 6.0546875) (3.521712493896484e-05, 6.056640625) (2.3400178909301758e-05, 6.05859375) (1.1836669921875e-05, 6.060546875) (5.583257675170898e-07, 6.0625) (-1.0421371459960937e-05, 6.064453125) (-2.101308250427246e-05, 6.06640625) (-3.1104990005493165e-05, 6.068359375) (-4.06507568359375e-05, 6.0703125) (-4.964498138427734e-05, 6.072265625) (-5.81382942199707e-05, 6.07421875) (-6.623517608642577e-05, 6.076171875) (-7.399835968017577e-05, 6.078125) (-8.145763397216796e-05, 6.080078125) (-8.864230346679687e-05, 6.08203125) (-9.55682144165039e-05, 6.083984375) (-0.00010226097869873047, 6.0859375) (-0.00010875833129882812, 6.087890625) (-0.00011507984924316406, 6.08984375) (-0.00012123048400878905, 6.091796875) (-0.00012722662353515624, 6.09375) (-0.00013308929443359374, 6.095703125) (-0.00013885919189453124, 6.09765625) (-0.00014460055541992188, 6.099609375) (-0.00015034861755371093, 6.1015625) (-0.0001561122131347656, 6.103515625) (-0.00016187904357910156, 6.10546875) (-0.00016761032104492188, 6.107421875) (-0.00017328326416015625, 6.109375) (-0.00017889332580566406, 6.111328125) (-0.00018443286132812498, 6.11328125) (-0.0001898954620361328, 6.115234375) (-0.00019527589416503907, 6.1171875) (-0.00020056675720214843, 6.119140625) (-0.00020577354431152342, 6.12109375) (-0.00021091517639160154, 6.123046875) (-0.0002159999084472656, 6.125) (-0.00022102822875976562, 6.126953125) (-0.00022599044799804686, 6.12890625) (-0.0002308632354736328, 6.130859375) (-0.0002356365509033203, 6.1328125) (-0.0002403131103515625, 6.134765625) (-0.00024490141296386716, 6.13671875) (-0.00024941952514648437, 6.138671875) (-0.0002538798828125, 6.140625) (-0.00025828723144531246, 6.142578125) (-0.00026264968872070313, 6.14453125) (-0.00026697705078125, 6.146484375) (-0.0002712742614746094, 6.1484375) (-0.0002755433654785156, 6.150390625) (-0.000279779052734375, 6.15234375) (-0.00028396740722656246, 6.154296875) (-0.00028809921264648435, 6.15625) (-0.00029216949462890625, 6.158203125) (-0.00029617462158203125, 6.16015625) (-0.00030011437988281247, 6.162109375) (-0.000303985107421875, 6.1640625) (-0.0003077798156738281, 6.166015625) (-0.00031149169921874996, 6.16796875) (-0.0003151133422851562, 6.169921875) (-0.00031863726806640624, 6.171875) (-0.0003220567626953125, 6.173828125) (-0.0003253637084960937, 6.17578125) (-0.00032854879760742185, 6.177734375) (-0.00033160482788085934, 6.1796875) (-0.00033452642822265626, 6.181640625) (-0.0003373100280761719, 6.18359375) (-0.00033995458984374997, 6.185546875) (-0.0003424584655761719, 6.1875) (-0.0003448195190429687, 6.189453125) (-0.00034703659057617184, 6.19140625) (-0.0003491091613769531, 6.193359375) (-0.00035103723144531247, 6.1953125) (-0.00035282165527343747, 6.197265625) (-0.00035446343994140623, 6.19921875) (-0.0003559637451171875, 6.201171875) (-0.0003573249816894531, 6.203125) (-0.000358550537109375, 6.205078125) (-0.00035964486694335933, 6.20703125) (-0.0003606134033203125, 6.208984375) (-0.00036146252441406247, 6.2109375) (-0.0003621990356445312, 6.212890625) (-0.00036283065795898435, 6.21484375) (-0.00036336572265625, 6.216796875) (-0.0003638131408691406, 6.21875) (-0.00036418218994140625, 6.220703125) (-0.000364482666015625, 6.22265625) (-0.00036472485351562496, 6.224609375) (-0.000364918701171875, 6.2265625) (-0.00036507379150390625, 6.228515625) (-0.00036519970703125, 6.23046875) (-0.000365305419921875, 6.232421875) (-0.00036540084838867186, 6.234375) (-0.00036549670410156247, 6.236328125) (-0.0003656031799316406, 6.23828125) (-0.00036572967529296875, 6.240234375) (-0.000365885498046875, 6.2421875) (-0.00036607907104492185, 6.244140625) (-0.0003663188781738281, 6.24609375) (-0.00036661386108398434, 6.248046875) (-0.0003669708862304687, 6.25) (-0.0003673956298828125, 6.251953125) (-0.00036789270019531246, 6.25390625) (-0.00036846484375, 6.255859375) (-0.0003691164245605469, 6.2578125) (-0.00036985308837890626, 6.259765625) (-0.0003706796264648437, 6.26171875) (-0.00037160089111328123, 6.263671875) (-0.000372617919921875, 6.265625) (-0.0003737270812988281, 6.267578125) (-0.000374925537109375, 6.26953125) (-0.000376210693359375, 6.271484375) (-0.00037757894897460934, 6.2734375) (-0.000379026611328125, 6.275390625) (-0.0003805478515625, 6.27734375) (-0.00038213394165039063, 6.279296875) (-0.00038377960205078124, 6.28125) (-0.00038548175048828124, 6.283203125) (-0.00038723797607421876, 6.28515625) (-0.00038904843139648436, 6.287109375) (-0.0003909073791503906, 6.2890625) (-0.00039280493164062496, 6.291015625) (-0.00039472955322265624, 6.29296875) (-0.00039666522216796874, 6.294921875) (-0.00039860833740234375, 6.296875) (-0.00040056634521484373, 6.298828125) (-0.0004025466613769531, 6.30078125) (-0.00040456256103515623, 6.302734375) (-0.0004066109008789062, 6.3046875) (-0.00040866741943359374, 6.306640625) (-0.00041072174072265624, 6.30859375) (-0.00041277124023437496, 6.310546875) (-0.00041481164550781247, 6.3125) (-0.00041685906982421873, 6.314453125) (-0.00041889208984375, 6.31640625) (-0.000420831787109375, 6.318359375) (-0.000422697998046875, 6.3203125) (-0.000424589111328125, 6.322265625) (-0.00042659118652343747, 6.32421875) (-0.0004288288879394531, 6.326171875) (-0.00043128894042968746, 6.328125) (-0.00043376229858398433, 6.330078125) (-0.000436171630859375, 6.33203125) (-0.0004385826416015625, 6.333984375) (-0.0004408785705566406, 6.3359375) (-0.00044285168457031246, 6.337890625) (-0.00044425860595703124, 6.33984375) (-0.00044470324707031247, 6.341796875) (-0.00044418798828125, 6.34375) (-0.0004431868286132812, 6.345703125) (-0.00044195062255859374, 6.34765625) (-0.00044054617309570313, 6.349609375) (-0.00043920089721679684, 6.3515625) (-0.0004381326904296875, 6.353515625) (-0.0004376813049316406, 6.35546875) (-0.00043845001220703124, 6.357421875) (-0.0004404794006347656, 6.359375) (-0.0004432069396972656, 6.361328125) (-0.00044629693603515623, 6.36328125) (-0.0004495467529296875, 6.365234375) (-0.0004527225036621094, 6.3671875) (-0.0004557424926757812, 6.369140625) (-0.00045835470581054685, 6.37109375) (-0.0004600407104492187, 6.373046875) (-0.00046074493408203125, 6.375) (-0.0004608633422851562, 6.376953125) (-0.0004606539916992187, 6.37890625) (-0.000460335205078125, 6.380859375) (-0.00046005078124999996, 6.3828125) (-0.0004597503967285156, 6.384765625) (-0.00045951876831054687, 6.38671875) (-0.0004596033935546875, 6.388671875) (-0.0004600368041992187, 6.390625) (-0.0004606715087890625, 6.392578125) (-0.0004613993530273437, 6.39453125) (-0.0004620960998535156, 6.396484375) (-0.00046271325683593746, 6.3984375) (-0.0004633192443847656, 6.400390625) 