(-1.5788025856018066e-05, 0.0) (3.5345912933349605e-05, 0.001953125) (7.757792663574218e-05, 0.00390625) (9.729185485839844e-05, 0.005859375) (9.308654785156249e-05, 0.0078125) (7.052848052978515e-05, 0.009765625) (4.541226196289062e-05, 0.01171875) (3.0992328643798824e-05, 0.013671875) (3.172246742248535e-05, 0.015625) (4.722285461425781e-05, 0.017578125) (6.761914825439452e-05, 0.01953125) (8.497491455078125e-05, 0.021484375) (9.628192901611327e-05, 0.0234375) (9.947959899902344e-05, 0.025390625) (9.844966888427734e-05, 0.02734375) (9.616705322265625e-05, 0.029296875) (9.295965576171875e-05, 0.03125) (9.000623321533202e-05, 0.033203125) (8.6404052734375e-05, 0.03515625) (8.134443664550781e-05, 0.037109375) (7.541819763183593e-05, 0.0390625) (6.875282287597655e-05, 0.041015625) (6.165776824951172e-05, 0.04296875) (5.462051773071289e-05, 0.044921875) (4.767937088012695e-05, 0.046875) (4.0827167510986324e-05, 0.048828125) (3.4152553558349604e-05, 0.05078125) (2.7665527343749997e-05, 0.052734375) (2.140298843383789e-05, 0.0546875) (1.5473495483398437e-05, 0.056640625) (1.000704288482666e-05, 0.05859375) (5.117100715637207e-06, 0.060546875) (8.916040658950806e-07, 0.0625) (-2.617514133453369e-06, 0.064453125) (-5.4224195480346675e-06, 0.06640625) (-7.5581827163696285e-06, 0.068359375) (-9.089866638183594e-06, 0.0703125) (-1.0122880935668944e-05, 0.072265625) (-1.0781147003173828e-05, 0.07421875) (-1.1207594871520996e-05, 0.076171875) (-1.1516803741455077e-05, 0.078125) (-1.1789031982421875e-05, 0.080078125) (-1.2080982208251953e-05, 0.08203125) (-1.242357349395752e-05, 0.083984375) (-1.285530948638916e-05, 0.0859375) (-1.3421335220336914e-05, 0.087890625) (-1.4172124862670898e-05, 0.08984375) (-1.5163149833679198e-05, 0.091796875) (-1.6431991577148436e-05, 0.09375) (-1.7995082855224607e-05, 0.095703125) (-1.9853715896606445e-05, 0.09765625) (-2.1994068145751954e-05, 0.099609375) (-2.4374814987182616e-05, 0.1015625) (-2.6935213088989256e-05, 0.103515625) (-2.959577178955078e-05, 0.10546875) (-3.2260128021240235e-05, 0.107421875) (-3.485845565795898e-05, 0.109375) (-3.734371185302734e-05, 0.111328125) (-3.968180847167969e-05, 0.11328125) (-4.18548583984375e-05, 0.115234375) (-4.384056091308594e-05, 0.1171875) (-4.5618698120117185e-05, 0.119140625) (-4.71763801574707e-05, 0.12109375) (-4.850115966796875e-05, 0.123046875) (-4.95850830078125e-05, 0.125) (-5.042675018310546e-05, 0.126953125) (-5.102623748779297e-05, 0.12890625) (-5.139592742919922e-05, 0.130859375) (-5.1570610046386714e-05, 0.1328125) (-5.159175491333008e-05, 0.134765625) (-5.1510742187499995e-05, 0.13671875) (-5.137833404541016e-05, 0.138671875) (-5.121918106079101e-05, 0.140625) (-5.1051071166992184e-05, 0.142578125) (-5.08885269165039e-05, 0.14453125) (-5.073689270019531e-05, 0.146484375) (-5.0605052947998044e-05, 0.1484375) (-5.0487174987792966e-05, 0.150390625) (-5.035425567626953e-05, 0.15234375) (-5.018229293823242e-05, 0.154296875) (-4.995516967773437e-05, 0.15625) (-4.965434646606445e-05, 0.158203125) (-4.926749420166015e-05, 0.16015625) (-4.8761817932128904e-05, 0.162109375) (-4.8074684143066404e-05, 0.1640625) (-4.715514373779297e-05, 0.166015625) (-4.596355056762695e-05, 0.16796875) (-4.448061370849609e-05, 0.169921875) (-4.272323989868164e-05, 0.171875) (-4.070733261108398e-05, 0.173828125) (-3.844398880004883e-05, 0.17578125) (-3.596449279785156e-05, 0.177734375) (-3.331102752685547e-05, 0.1796875) (-3.055397415161133e-05, 0.181640625) (-2.780150604248047e-05, 0.18359375) (-2.5141626358032225e-05, 0.185546875) (-2.2635562896728516e-05, 0.1875) (-2.0350198745727537e-05, 0.189453125) (-1.8345830917358398e-05, 0.19140625) (-1.6704376220703125e-05, 0.193359375) (-1.5542181968688965e-05, 0.1953125) (-1.494354248046875e-05, 0.197265625) (-1.4954153060913085e-05, 0.19921875) (-1.5596885681152345e-05, 0.201171875) (-1.6859420776367185e-05, 0.203125) (-1.872858428955078e-05, 0.205078125) (-2.1199760437011718e-05, 0.20703125) (-2.423154067993164e-05, 0.208984375) (-2.77464599609375e-05, 0.2109375) (-3.1636445999145506e-05, 0.212890625) (-3.5757812499999996e-05, 0.21484375) (-3.999273681640625e-05, 0.216796875) (-4.426556396484375e-05, 0.21875) (-4.849219512939453e-05, 0.220703125) (-5.259253692626953e-05, 0.22265625) (-5.649281311035156e-05, 0.224609375) (-6.0102210998535153e-05, 0.2265625) (-6.337268829345702e-05, 0.228515625) (-6.630234527587891e-05, 0.23046875) (-6.887943267822265e-05, 0.232421875) (-7.111541748046875e-05, 0.234375) (-7.305070495605469e-05, 0.236328125) (-7.471413421630859e-05, 0.23828125) (-7.616271209716797e-05, 0.240234375) (-7.750150299072266e-05, 0.2421875) (-7.882723236083983e-05, 0.244140625) (-8.029302978515625e-05, 0.24609375) (-8.212489318847657e-05, 0.248046875) (-8.440875244140624e-05, 0.25) (-8.710165405273437e-05, 0.251953125) (-9.011576843261718e-05, 0.25390625) (-9.321200561523437e-05, 0.255859375) (-9.613308715820312e-05, 0.2578125) (-9.871248626708984e-05, 0.259765625) (-0.00010062068176269531, 0.26171875) (-0.0001013616714477539, 0.263671875) (-0.00010078288269042969, 0.265625) (-9.912388610839843e-05, 0.267578125) (-9.680673217773437e-05, 0.26953125) (-9.458271789550781e-05, 0.271484375) (-9.333204650878906e-05, 0.2734375) (-9.375228118896485e-05, 0.275390625) (-9.650690460205078e-05, 0.27734375) (-0.00010251516723632812, 0.279296875) (-0.00011125834655761718, 0.28125) (-0.00012031069183349608, 0.283203125) (-0.0001284935302734375, 0.28515625) (-0.00013492013549804688, 0.287109375) (-0.00013948770141601562, 0.2890625) (-0.0001446002502441406, 0.291015625) (-0.0001474720458984375, 0.29296875) (-0.00014076206970214844, 0.294921875) (-0.0001189710235595703, 0.296875) (-7.659286499023437e-05, 0.298828125) (-1.4968189239501952e-05, 0.30078125) (5.7040260314941406e-05, 0.302734375) (0.0001342282257080078, 0.3046875) (0.00021207809448242187, 0.306640625) (0.00028624258422851564, 0.30859375) (0.00035391687011718747, 0.310546875) (0.00040548687744140625, 0.3125) (0.00043087774658203125, 0.314453125) (0.0004267442932128906, 0.31640625) (0.0003937767333984375, 0.318359375) (0.00034010186767578126, 0.3203125) (0.00027489813232421873, 0.322265625) (0.00020117205810546874, 0.32421875) (0.00012308021545410155, 0.326171875) (4.5110260009765624e-05, 0.328125) (-2.7533815383911132e-05, 0.330078125) (-8.575282287597656e-05, 0.33203125) (-0.00012710220336914062, 0.333984375) (-0.00015377696228027342, 0.3359375) (-0.00016737168884277344, 0.337890625) (-0.00017089906311035154, 0.33984375) (-0.00016152659606933592, 0.341796875) (-0.00013825119018554688, 0.34375) (-0.00010765154266357421, 0.345703125) (-7.747763061523437e-05, 0.34765625) (-5.919229125976562e-05, 0.349609375) (-5.688742446899414e-05, 0.3515625) (-6.358805084228515e-05, 0.353515625) (-7.252105712890625e-05, 0.35546875) (-7.581878662109374e-05, 0.357421875) (-7.109567260742188e-05, 0.359375) (-6.371163177490235e-05, 0.361328125) (-5.6505607604980464e-05, 0.36328125) (-5.1012165069580074e-05, 0.365234375) (-4.737031555175781e-05, 0.3671875) (-4.285153198242187e-05, 0.369140625) (-3.660737228393554e-05, 0.37109375) (-2.9267704010009763e-05, 0.373046875) (-2.122977066040039e-05, 0.375) (-1.3316211700439452e-05, 0.376953125) (-6.100943565368652e-06, 0.37890625) (2.8214892745018006e-07, 0.380859375) (5.647443771362305e-06, 0.3828125) (9.852495193481445e-06, 0.384765625) (1.2994142532348632e-05, 0.38671875) (1.528082275390625e-05, 0.388671875) (1.6862524032592773e-05, 0.390625) (1.784762382507324e-05, 0.392578125) (1.8337858200073242e-05, 0.39453125) (1.8435176849365232e-05, 0.396484375) (1.8261919021606446e-05, 0.3984375) (1.7982131958007812e-05, 0.400390625) (1.7729778289794922e-05, 0.40234375) (1.756035232543945e-05, 0.404296875) (1.7539173126220702e-05, 0.40625) (1.7740625381469727e-05, 0.408203125) (1.8233325958251953e-05, 0.41015625) (1.911180877685547e-05, 0.412109375) (2.0440120697021483e-05, 0.4140625) (2.2224666595458983e-05, 0.416015625) (2.4451765060424802e-05, 0.41796875) (2.7102577209472655e-05, 0.419921875) (3.0140563964843747e-05, 0.421875) (3.352806091308594e-05, 0.423828125) (3.720999145507812e-05, 0.42578125) (4.108715438842773e-05, 0.427734375) (4.506861877441406e-05, 0.4296875) (4.90687370300293e-05, 0.431640625) (5.301189041137695e-05, 0.43359375) (5.686426925659179e-05, 0.435546875) (6.0572128295898436e-05, 0.4375) (6.405288696289063e-05, 0.439453125) (6.721327209472656e-05, 0.44140625) (6.993539428710938e-05, 0.443359375) (7.211708831787108e-05, 0.4453125) (7.369602966308593e-05, 0.447265625) (7.46066665649414e-05, 0.44921875) (7.477338409423828e-05, 0.451171875) (7.416003417968749e-05, 0.453125) (7.27533187866211e-05, 0.455078125) (7.058393096923828e-05, 0.45703125) (6.774785614013672e-05, 0.458984375) (6.43184585571289e-05, 0.4609375) (6.034682083129883e-05, 0.462890625) (5.587681198120117e-05, 0.46484375) (5.092389678955078e-05, 0.466796875) (4.553681182861328e-05, 0.46875) (3.9815246582031246e-05, 0.470703125) (3.3873126983642574e-05, 0.47265625) (2.7847625732421874e-05, 0.474609375) (2.1896110534667968e-05, 0.4765625) (1.6164730072021484e-05, 0.478515625) (1.0830759048461914e-05, 0.48046875) (6.105950832366943e-06, 0.482421875) (2.146007776260376e-06, 0.484375) (-9.29864227771759e-07, 0.486328125) (-3.0444579124450684e-06, 0.48828125) (-4.190894603729248e-06, 0.490234375) (-4.340790271759033e-06, 0.4921875) (-3.436771154403686e-06, 0.494140625) (-1.4279282093048095e-06, 0.49609375) (1.7530827522277831e-06, 0.498046875) (6.154090404510498e-06, 0.5) (1.1763471603393555e-05, 0.501953125) (1.8548471450805664e-05, 0.50390625) (2.6453773498535156e-05, 0.505859375) (3.5369384765625e-05, 0.5078125) (4.516598510742187e-05, 0.509765625) (5.567093276977539e-05, 0.51171875) (6.665750122070312e-05, 0.513671875) (7.793411254882812e-05, 0.515625) (8.933361816406249e-05, 0.517578125) (0.00010070441436767578, 0.51953125) (0.00011194027709960937, 0.521484375) (0.00012291860961914061, 0.5234375) (0.00013348382568359373, 0.525390625) (0.00014348052978515623, 0.52734375) (0.00015273486328125, 0.529296875) (0.00016107223510742187, 0.53125) (0.00016836779785156248, 0.533203125) (0.00017452279663085938, 0.53515625) (0.0001794594268798828, 0.537109375) (0.00018315261840820313, 0.5390625) (0.00018560365295410155, 0.541015625) (0.00018684925842285156, 0.54296875) (0.0001869775390625, 0.544921875) (0.00018607357788085935, 0.546875) (0.00018421603393554688, 0.548828125) (0.0001814847717285156, 0.55078125) (0.0001779418029785156, 0.552734375) (0.00017366314697265625, 0.5546875) (0.00016875590515136717, 0.556640625) (0.00016334263610839843, 0.55859375) (0.00015757015991210938, 0.560546875) (0.0001515902099609375, 0.5625) (0.00014552239990234375, 0.564453125) (0.0001394660186767578, 0.56640625) (0.00013350552368164063, 0.568359375) (0.0001276993713378906, 0.5703125) (0.00012209288024902343, 0.572265625) (0.00011671141052246093, 0.57421875) (0.00011154872131347656, 0.576171875) (0.00010659156036376953, 0.578125) (0.00010182943725585937, 0.580078125) (9.725415802001953e-05, 0.58203125) (9.286671447753906e-05, 0.583984375) (8.865943908691406e-05, 0.5859375) (8.460604858398437e-05, 0.587890625) (8.066509246826171e-05, 0.58984375) (7.677825927734375e-05, 0.591796875) (7.289199829101563e-05, 0.59375) (6.897200775146484e-05, 0.595703125) (6.499514770507812e-05, 0.59765625) (6.0947753906249994e-05, 0.599609375) (5.6823966979980464e-05, 0.6015625) (5.262197875976562e-05, 0.603515625) (4.835153198242187e-05, 0.60546875) (4.403806686401367e-05, 0.607421875) (3.970942687988281e-05, 0.609375) (3.5389305114746094e-05, 0.611328125) (3.109562301635742e-05, 0.61328125) (2.6838958740234375e-05, 0.615234375) (2.2633853912353514e-05, 0.6171875) (1.8501335144042968e-05, 0.619140625) (1.4467397689819336e-05, 0.62109375) (1.0562444686889648e-05, 0.623046875) (6.808509826660156e-06, 0.625) (3.217609643936157e-06, 0.626953125) (-2.0259678363800047e-07, 0.62890625) (-3.449573040008545e-06, 0.630859375) (-6.524430274963379e-06, 0.6328125) (-9.4312105178833e-06, 0.634765625) (-1.2182061195373534e-05, 0.63671875) (-1.4797516822814941e-05, 0.638671875) (-1.7297849655151365e-05, 0.640625) (-1.9701705932617185e-05, 0.642578125) (-2.202665328979492e-05, 0.64453125) (-2.4288219451904296e-05, 0.646484375) (-2.650537109375e-05, 0.6484375) (-2.8700719833374022e-05, 0.650390625) (-3.0897064208984374e-05, 0.65234375) (-3.3117126464843746e-05, 0.654296875) (-3.538167572021484e-05, 0.65625) (-3.7709491729736324e-05, 0.658203125) (-4.011930084228515e-05, 0.66015625) (-4.26295166015625e-05, 0.662109375) (-4.525625610351562e-05, 0.6640625) (-4.801309204101562e-05, 0.666015625) (-5.09115982055664e-05, 0.66796875) (-5.396112060546875e-05, 0.669921875) (-5.717176818847656e-05, 0.671875) (-6.055497741699219e-05, 0.673828125) (-6.412115478515624e-05, 0.67578125) (-6.78797149658203e-05, 0.677734375) (-7.183901977539062e-05, 0.6796875) (-7.600568389892577e-05, 0.681640625) (-8.038531494140624e-05, 0.68359375) (-8.498326873779296e-05, 0.685546875) (-8.980101013183594e-05, 0.6875) (-9.483507537841797e-05, 0.689453125) (-0.00010008161926269531, 0.69140625) (-0.00010553507995605469, 0.693359375) (-0.00011119042968749999, 0.6953125) (-0.00011704593658447264, 0.697265625) (-0.00012309465026855468, 0.69921875) (-0.00012932305908203124, 0.701171875) (-0.00013571588134765624, 0.703125) (-0.00014225352478027344, 0.705078125) (-0.00014891102600097654, 0.70703125) (-0.00015566221618652342, 0.708984375) (-0.0001624730224609375, 0.7109375) (-0.0001692978515625, 0.712890625) (-0.0001760938720703125, 0.71484375) (-0.00018281852722167968, 0.716796875) (-0.00018943214416503905, 0.71875) (-0.00019590951538085938, 0.720703125) (-0.00020222567749023437, 0.72265625) (-0.00020835446166992186, 0.724609375) (-0.00021427328491210935, 0.7265625) (-0.00021995602416992186, 0.728515625) (-0.00022538394165039062, 0.73046875) (-0.00023055351257324216, 0.732421875) (-0.0002354621887207031, 0.734375) (-0.00024010534667968749, 0.736328125) (-0.0002444917297363281, 0.73828125) (-0.00024863267517089845, 0.740234375) (-0.0002525526123046875, 0.7421875) (-0.0002563081665039062, 0.744140625) (-0.0002599500427246094, 0.74609375) (-0.00026352453613281247, 0.748046875) (-0.00026708053588867187, 0.75) (-0.0002706368408203125, 0.751953125) (-0.0002741986389160156, 0.75390625) (-0.0002777699890136719, 0.755859375) (-0.00028133642578124997, 0.7578125) (-0.0002848715209960937, 0.759765625) (-0.00028834149169921873, 0.76171875) (-0.00029168762207031247, 0.763671875) (-0.000294844970703125, 0.765625) (-0.0002977653198242187, 0.767578125) (-0.00030038226318359376, 0.76953125) (-0.00030262261962890624, 0.771484375) (-0.00030440472412109374, 0.7734375) (-0.0003055993957519531, 0.775390625) (-0.0003060777893066406, 0.77734375) (-0.00030571908569335934, 0.779296875) (-0.0003043885498046875, 0.78125) (-0.0003019894104003906, 0.783203125) (-0.00029846697998046873, 0.78515625) (-0.0002937807006835937, 0.787109375) (-0.0002879283752441406, 0.7890625) (-0.0002809503173828125, 0.791015625) (-0.00027289898681640625, 0.79296875) (-0.000263862060546875, 0.794921875) (-0.0002539549102783203, 0.796875) (-0.0002432729034423828, 0.798828125) (-0.00023193133544921875, 0.80078125) (-0.0002200688934326172, 0.802734375) (-0.00020783226013183594, 0.8046875) (-0.00019542250061035157, 0.806640625) (-0.00018306813049316406, 0.80859375) (-0.00017100421142578125, 0.810546875) (-0.0001595001220703125, 0.8125) (-0.00014880905151367187, 0.814453125) (-0.0001391281280517578, 0.81640625) (-0.00013063519287109376, 0.818359375) (-0.0001234730758666992, 0.8203125) (-0.00011773133850097656, 0.822265625) (-0.00011348915100097656, 0.82421875) (-0.00011079132843017577, 0.826171875) (-0.00010963578796386719, 0.828125) (-0.00011003251647949218, 0.830078125) (-0.00011198123931884765, 0.83203125) (-0.00011544525146484374, 0.833984375) (-0.00012037396240234374, 0.8359375) (-0.00012666850280761718, 0.837890625) (-0.00013417288208007812, 0.83984375) (-0.00014270327758789063, 0.841796875) (-0.00015202919006347654, 0.84375) (-0.00016190267944335936, 0.845703125) (-0.00017211557006835935, 0.84765625) (-0.00018246795654296873, 0.849609375) (-0.00019276817321777344, 0.8515625) (-0.0002028548583984375, 0.853515625) (-0.00021256512451171873, 0.85546875) (-0.00022175851440429687, 0.857421875) (-0.00023033996582031248, 0.859375) (-0.00023820939636230468, 0.861328125) (-0.00024525949096679684, 0.86328125) (-0.0002514114990234375, 0.865234375) (-0.0002566011962890625, 0.8671875) (-0.00026079547119140623, 0.869140625) (-0.0002640191955566406, 0.87109375) (-0.00026632611083984376, 0.873046875) (-0.0002678034973144531, 0.875) (-0.0002685663452148437, 0.876953125) (-0.00026871441650390626, 0.87890625) (-0.0002683507995605469, 0.880859375) (-0.00026758880615234375, 0.8828125) (-0.0002665380859375, 0.884765625) (-0.00026531625366210936, 0.88671875) (-0.0002640254211425781, 0.888671875) (-0.00026273571777343747, 0.890625) (-0.00026151657104492185, 0.892578125) (-0.0002604493713378906, 0.89453125) (-0.00025960260009765624, 0.896484375) (-0.00025903466796875, 0.8984375) (-0.000258786865234375, 0.900390625) (-0.0002588636474609375, 0.90234375) (-0.00025925592041015625, 0.904296875) (-0.00025994378662109373, 0.90625) (-0.0002608919067382812, 0.908203125) (-0.0002620665283203125, 0.91015625) (-0.00026342706298828125, 0.912109375) (-0.0002649230041503906, 0.9140625) (-0.0002664989013671875, 0.916015625) (-0.00026809436035156247, 0.91796875) (-0.00026966232299804687, 0.919921875) (-0.0002711743469238281, 0.921875) (-0.00027260614013671874, 0.923828125) (-0.0002739299621582031, 0.92578125) (-0.00027512249755859376, 0.927734375) (-0.0002761658325195312, 0.9296875) (-0.000277052734375, 0.931640625) (-0.0002777929382324219, 0.93359375) (-0.00027839752197265623, 0.935546875) (-0.00027887664794921875, 0.9375) (-0.000279244140625, 0.939453125) (-0.0002795148315429687, 0.94140625) (-0.0002797093505859375, 0.943359375) (-0.0002798529968261719, 0.9453125) (-0.00027997366333007813, 0.947265625) (-0.0002801000366210937, 0.94921875) (-0.00028025347900390626, 0.951171875) (-0.00028044711303710937, 0.953125) (-0.00028069125366210934, 0.955078125) (-0.00028099459838867185, 0.95703125) (-0.0002813631896972656, 0.958984375) (-0.0002818010864257812, 0.9609375) (-0.00028230661010742185, 0.962890625) (-0.0002828718566894531, 0.96484375) (-0.00028349087524414063, 0.966796875) (-0.00028416030883789064, 0.96875) (-0.0002848763427734375, 0.970703125) (-0.00028563519287109373, 0.97265625) (-0.000286429931640625, 0.974609375) (-0.0002872511596679687, 0.9765625) (-0.00028808956909179685, 0.978515625) (-0.00028893627929687496, 0.98046875) (-0.0002897833862304687, 0.982421875) (-0.00029062377929687497, 0.984375) (-0.00029145086669921875, 0.986328125) (-0.00029225894165039063, 0.98828125) (-0.00029304440307617184, 0.990234375) (-0.00029380554199218747, 0.9921875) (-0.0002945420532226562, 0.994140625) (-0.0002952546691894531, 0.99609375) (-0.0002959436340332031, 0.998046875) (-0.000296608642578125, 1.0) (-0.0002972491455078125, 1.001953125) (-0.0002978645935058594, 1.00390625) (-0.000298453857421875, 1.005859375) (-0.0002990145263671875, 1.0078125) (-0.00029954400634765624, 1.009765625) (-0.00030004022216796876, 1.01171875) (-0.00030050244140625, 1.013671875) (-0.0003009327392578125, 1.015625) (-0.00030133465576171874, 1.017578125) (-0.00030171099853515626, 1.01953125) (-0.0003020645751953125, 1.021484375) (-0.0003023987426757812, 1.0234375) (-0.0003027161865234375, 1.025390625) (-0.00030302056884765624, 1.02734375) (-0.00030331320190429687, 1.029296875) (-0.00030359002685546876, 1.03125) (-0.0003038479309082031, 1.033203125) (-0.0003040875549316406, 1.03515625) (-0.0003043134155273437, 1.037109375) (-0.00030453833007812497, 1.0390625) (-0.00030477545166015624, 1.041015625) (-0.00030503161621093746, 1.04296875) (-0.000305313720703125, 1.044921875) (-0.00030562744140625, 1.046875) (-0.0003059701538085937, 1.048828125) (-0.00030633685302734374, 1.05078125) (-0.00030671395874023435, 1.052734375) (-0.000307072265625, 1.0546875) (-0.0003073845825195312, 1.056640625) (-0.000307627685546875, 1.05859375) (-0.00030778030395507813, 1.060546875) (-0.0003078338317871094, 1.0625) (-0.00030777813720703125, 1.064453125) (-0.00030758917236328124, 1.06640625) (-0.000307240234375, 1.068359375) (-0.00030669738769531247, 1.0703125) (-0.0003059232177734375, 1.072265625) (-0.0003048968811035156, 1.07421875) (-0.000303597900390625, 1.076171875) (-0.0003020060119628906, 1.078125) (-0.00030013293457031246, 1.080078125) (-0.0002980065307617187, 1.08203125) (-0.00029567535400390623, 1.083984375) (-0.00029321429443359375, 1.0859375) (-0.0002906815795898437, 1.087890625) (-0.00028813156127929687, 1.08984375) (-0.0002856308898925781, 1.091796875) (-0.0002832254943847656, 1.09375) (-0.0002809625854492187, 1.095703125) (-0.00027891705322265626, 1.09765625) (-0.00027713818359375, 1.099609375) (-0.00027572772216796873, 1.1015625) (-0.00027484857177734374, 1.103515625) (-0.00027452154541015623, 1.10546875) (-0.00027469714355468747, 1.107421875) (-0.000275271240234375, 1.109375) (-0.0002759294128417969, 1.111328125) (-0.0002763226318359375, 1.11328125) (-0.00027616699218749996, 1.115234375) (-0.00027498004150390624, 1.1171875) (-0.00027225753784179685, 1.119140625) (-0.0002679608154296875, 1.12109375) (-0.0002621929016113281, 1.123046875) (-0.000255263427734375, 1.125) (-0.00024813629150390623, 1.126953125) (-0.00024178308105468748, 1.12890625) (-0.00023698442077636718, 1.130859375) (-0.0002348124084472656, 1.1328125) (-0.00023522697448730468, 1.134765625) (-0.00023640560913085936, 1.13671875) (-0.0002367558135986328, 1.138671875) (-0.00023522763061523436, 1.140625) (-0.0002325907745361328, 1.142578125) (-0.00023139682006835936, 1.14453125) (-0.00023165011596679687, 1.146484375) (-0.00022851493835449217, 1.1484375) (-0.0002120847473144531, 1.150390625) (-0.00017276696777343748, 1.15234375) (-0.00010721142578125, 1.154296875) (-2.010685920715332e-05, 1.15625) (7.489932250976563e-05, 1.158203125) (0.0001638448486328125, 1.16015625) (0.00023923536682128905, 1.162109375) (0.0002976659240722656, 1.1640625) (0.000341884521484375, 1.166015625) (0.00037595123291015624, 1.16796875) (0.0003977987365722656, 1.169921875) (0.00040381332397460934, 1.171875) (0.00038902426147460935, 1.173828125) (0.00034833148193359374, 1.17578125) (0.00028353326416015624, 1.177734375) (0.00020306315612792967, 1.1796875) (0.00011942691802978516, 1.181640625) (4.611337661743164e-05, 1.18359375) (-6.7315673828125e-06, 1.185546875) (-3.738353729248047e-05, 1.1875) (-5.1127670288085934e-05, 1.189453125) (-5.3979862213134764e-05, 1.19140625) (-5.171284484863281e-05, 1.193359375) (-4.552793502807617e-05, 1.1953125) (-3.235595321655273e-05, 1.197265625) (-1.1610015869140624e-05, 1.19921875) (1.5360221862792967e-05, 1.201171875) (4.510903167724609e-05, 1.203125) (7.26334228515625e-05, 1.205078125) (9.531181335449218e-05, 1.20703125) (0.00011230798339843749, 1.208984375) (0.00012324765014648436, 1.2109375) (0.0001284603271484375, 1.212890625) (0.00012860063171386718, 1.21484375) (0.0001249076461791992, 1.216796875) (0.0001194002685546875, 1.21875) (0.000113863525390625, 1.220703125) (0.00010930050659179687, 1.22265625) (0.00010617802429199218, 1.224609375) (0.00010478347778320311, 1.2265625) (0.00010543540954589844, 1.228515625) (0.0001082002716064453, 1.23046875) (0.00011259117126464844, 1.232421875) (0.00011763796997070312, 1.234375) (0.00012247465515136718, 1.236328125) (0.0001266865539550781, 1.23828125) (0.00013018629455566406, 1.240234375) (0.00013300750732421875, 1.2421875) (0.0001350988006591797, 1.244140625) (0.00013642431640625, 1.24609375) (0.00013716525268554688, 1.248046875) (0.0001377215576171875, 1.25) (0.0001384530792236328, 1.251953125) (0.00013953594970703124, 1.25390625) (0.0001410048828125, 1.255859375) (0.0001428072814941406, 1.2578125) (0.00014493309020996092, 1.259765625) (0.00014742401123046873, 1.26171875) (0.00015028138732910157, 1.263671875) (0.00015345220947265626, 1.265625) (0.00015687571716308592, 1.267578125) (0.00016050904846191407, 1.26953125) (0.00016433660888671875, 1.271484375) (0.00016836911010742188, 1.2734375) (0.00017259906005859374, 1.275390625) (0.0001769893798828125, 1.27734375) (0.00018149212646484375, 1.279296875) (0.00018605337524414063, 1.28125) (0.00019063392639160156, 1.283203125) (0.000195212158203125, 1.28515625) (0.00019976930236816404, 1.287109375) (0.00020428915405273438, 1.2890625) (0.0002087579345703125, 1.291015625) (0.00021316250610351563, 1.29296875) (0.00021749490356445312, 1.294921875) (0.00022175244140624999, 1.296875) (0.00022592967224121092, 1.298828125) (0.0002300186767578125, 1.30078125) (0.00023401208496093748, 1.302734375) (0.00023790185546874998, 1.3046875) (0.0002416836242675781, 1.306640625) (0.0002453580169677734, 1.30859375) (0.00024892930603027344, 1.310546875) (0.00025240487670898434, 1.3125) (0.00025579159545898437, 1.314453125) (0.00025909521484375, 1.31640625) (0.0002623214111328125, 1.318359375) (0.0002654752807617187, 1.3203125) (0.00026856256103515623, 1.322265625) (0.0002715897216796875, 1.32421875) (0.00027456304931640623, 1.326171875) (0.00027748846435546873, 1.328125) (0.00028037432861328124, 1.330078125) (0.00028322991943359374, 1.33203125) (0.00028606585693359375, 1.333984375) (0.0002888941040039062, 1.3359375) (0.00029172686767578123, 1.337890625) (0.0002945760498046875, 1.33984375) (0.0002974537963867187, 1.341796875) (0.0003003721008300781, 1.34375) (0.0003033424377441406, 1.345703125) (0.00030637567138671874, 1.34765625) (0.00030948223876953125, 1.349609375) (0.0003126715393066406, 1.3515625) (0.00031595208740234376, 1.353515625) (0.0003193314208984375, 1.35546875) (0.00032281637573242187, 1.357421875) (0.0003264120788574219, 1.359375) (0.0003301224670410156, 1.361328125) (0.00033395004272460935, 1.36328125) (0.00033789584350585935, 1.365234375) (0.00034195968627929687, 1.3671875) (0.00034614047241210937, 1.369140625) (0.00035043603515624996, 1.37109375) (0.0003548425903320312, 1.373046875) (0.000359355712890625, 1.375) (0.0003639697265625, 1.376953125) (0.000368677490234375, 1.37890625) (0.00037347045898437496, 1.380859375) (0.00037833813476562496, 1.3828125) (0.0003832675476074219, 1.384765625) (0.0003882436828613281, 1.38671875) (0.0003932492980957031, 1.388671875) (0.0003982657470703125, 1.390625) (0.00040327291870117187, 1.392578125) (0.00040825024414062496, 1.39453125) (0.00041317706298828124, 1.396484375) (0.000418032470703125, 1.3984375) (0.00042279534912109375, 1.400390625) (0.00042744540405273434, 1.40234375) (0.00043196392822265623, 1.404296875) (0.00043632995605468746, 1.40625) (0.0004405216674804687, 1.408203125) (0.0004445148315429687, 1.41015625) (0.00044828247070312496, 1.412109375) (0.00045180120849609376, 1.4140625) (0.000455052001953125, 1.416015625) (0.0004580197143554687, 1.41796875) (0.0004606935424804687, 1.419921875) (0.00046306915283203125, 1.421875) (0.000465147216796875, 1.423828125) (0.00046693145751953123, 1.42578125) (0.00046842871093749996, 1.427734375) (0.00046964080810546873, 1.4296875) (0.00047056457519531247, 1.431640625) (0.00047118951416015624, 1.43359375) (0.00047149703979492184, 1.435546875) (0.0004714692687988281, 1.4375) (0.00047108764648437496, 1.439453125) (0.00047034350585937497, 1.44140625) (0.00046923919677734375, 1.443359375) (0.00046777618408203124, 1.4453125) (0.0004659542236328125, 1.447265625) (0.0004637705688476562, 1.44921875) (0.0004612198486328125, 1.451171875) (0.00045828643798828125, 1.453125) (0.0004549478759765625, 1.455078125) (0.00045117587280273433, 1.45703125) (0.00044693585205078125, 1.458984375) (0.0004422098999023437, 1.4609375) (0.0004369974975585937, 1.462890625) (0.00043132052612304683, 1.46484375) (0.00042522409057617187, 1.466796875) (0.00041876495361328124, 1.46875) (0.00041201220703124996, 1.470703125) (0.00040502301025390625, 1.47265625) (0.000397841064453125, 1.474609375) (0.000390508056640625, 1.4765625) (0.00038306225585937496, 1.478515625) (0.00037554345703124997, 1.48046875) (0.00036799267578125, 1.482421875) (0.00036046240234375, 1.484375) (0.00035301278686523436, 1.486328125) (0.0003457159729003906, 1.48828125) (0.000338656982421875, 1.490234375) (0.0003319011535644531, 1.4921875) (0.00032549267578125, 1.494140625) (0.0003194462890625, 1.49609375) (0.0003137463073730469, 1.498046875) (0.0003083563537597656, 1.5) (0.00030321942138671873, 1.501953125) (0.0002982879638671875, 1.50390625) (0.00029352532958984375, 1.505859375) (0.0002889012451171875, 1.5078125) (0.0002843948974609375, 1.509765625) (0.0002799873046875, 1.51171875) (0.00027566119384765626, 1.513671875) (0.0002713934631347656, 1.515625) (0.00026715734863281247, 1.517578125) (0.0002629114074707031, 1.51953125) (0.000258598876953125, 1.521484375) (0.00025417483520507814, 1.5234375) (0.00024960659790039064, 1.525390625) (0.00024488375854492186, 1.52734375) (0.00024001887512207031, 1.529296875) (0.00023504171752929687, 1.53125) (0.00022999919128417968, 1.533203125) (0.00022493289184570312, 1.53515625) (0.00021987841796874998, 1.537109375) (0.00021486358642578123, 1.5390625) (0.00020990499877929686, 1.541015625) (0.00020501446533203123, 1.54296875) (0.00020019931030273435, 1.544921875) (0.0001954650421142578, 1.546875) (0.00019081535339355468, 1.548828125) (0.000186263671875, 1.55078125) (0.00018183351135253907, 1.552734375) (0.00017754563903808594, 1.5546875) (0.00017341879272460937, 1.556640625) (0.0001694617919921875, 1.55859375) (0.000165673095703125, 1.560546875) (0.00016204359436035155, 1.5625) (0.00015855633544921874, 1.564453125) (0.00015519552612304686, 1.56640625) (0.00015194671630859374, 1.568359375) (0.00014879971313476562, 1.5703125) (0.00014575041198730467, 1.572265625) (0.00014279843139648437, 1.57421875) (0.00013994702148437498, 1.576171875) (0.00013720263671875, 1.578125) (0.00013457473754882813, 1.580078125) (0.00013206900024414063, 1.58203125) (0.00012968724060058594, 1.583984375) (0.00012743001556396485, 1.5859375) (0.00012529563903808594, 1.587890625) (0.00012328397369384766, 1.58984375) (0.00012139648437499999, 1.591796875) (0.00011963500213623046, 1.59375) (0.00011800206756591796, 1.595703125) (0.00011650006103515624, 1.59765625) (0.00011513110351562499, 1.599609375) (0.00011389598083496093, 1.6015625) (0.000112793701171875, 1.603515625) (0.00011182127380371093, 1.60546875) (0.00011097362518310546, 1.607421875) (0.00011024365234374999, 1.609375) (0.00010962230682373046, 1.611328125) (0.00010910016632080078, 1.61328125) (0.00010866751098632812, 1.615234375) (0.00010831453704833983, 1.6171875) (0.00010803164672851563, 1.619140625) (0.00010780879211425781, 1.62109375) (0.00010763552856445312, 1.623046875) (0.00010750138854980469, 1.625) (0.00010739586639404296, 1.626953125) (0.00010730793762207031, 1.62890625) (0.00010722601318359375, 1.630859375) (0.00010713809204101561, 1.6328125) (0.00010703176879882812, 1.634765625) (0.00010689469909667969, 1.63671875) (0.00010671473693847656, 1.638671875) (0.00010647975158691405, 1.640625) (0.00010617774200439453, 1.642578125) (0.00010579696655273438, 1.64453125) (0.00010532622528076171, 1.646484375) (0.00010475492858886718, 1.6484375) (0.00010407305145263671, 1.650390625) (0.00010327116394042968, 1.65234375) (0.00010234059143066406, 1.654296875) (0.00010127339172363281, 1.65625) (0.0001000625, 1.658203125) (9.870165252685547e-05, 1.66015625) (9.718523406982422e-05, 1.662109375) (9.550845336914062e-05, 1.6640625) (9.366742706298828e-05, 1.666015625) (9.16591796875e-05, 1.66796875) (8.948157501220703e-05, 1.669921875) (8.713319396972656e-05, 1.671875) (8.461399841308593e-05, 1.673828125) (8.192552185058594e-05, 1.67578125) (7.90701675415039e-05, 1.677734375) (7.605155944824219e-05, 1.6796875) (7.287380981445312e-05, 1.681640625) (6.954083251953125e-05, 1.68359375) (6.606010437011719e-05, 1.685546875) (6.244253921508789e-05, 1.6875) (5.8698219299316404e-05, 1.689453125) (5.4837516784667966e-05, 1.69140625) (5.087049102783203e-05, 1.693359375) (4.6803955078125e-05, 1.6953125) (4.265058135986328e-05, 1.697265625) (3.843093872070312e-05, 1.69921875) (3.415248107910156e-05, 1.701171875) (2.9812505722045897e-05, 1.703125) (2.5412677764892576e-05, 1.705078125) (2.095234680175781e-05, 1.70703125) (1.644491958618164e-05, 1.708984375) (1.192749500274658e-05, 1.7109375) (7.414998054504394e-06, 1.712890625) (2.8950848579406738e-06, 1.71484375) (-1.6002262830734251e-06, 1.716796875) (-6.006211280822754e-06, 1.71875) (-1.0271479606628418e-05, 1.720703125) (-1.4339317321777344e-05, 1.72265625) (-1.819683265686035e-05, 1.724609375) (-2.1904178619384765e-05, 1.7265625) (-2.546818161010742e-05, 1.728515625) (-2.8805274963378905e-05, 1.73046875) (-3.198938369750976e-05, 1.732421875) (-3.527778244018555e-05, 1.734375) (-3.8706298828125e-05, 1.736328125) (-4.219221115112305e-05, 1.73828125) (-4.576474380493164e-05, 1.740234375) (-4.911829376220703e-05, 1.7421875) (-5.283309936523437e-05, 1.744140625) (-5.855652236938476e-05, 1.74609375) (-6.583978271484375e-05, 1.748046875) (-7.321028137207031e-05, 1.75) (-7.809350585937499e-05, 1.751953125) (-7.578012847900391e-05, 1.75390625) (-6.681795501708985e-05, 1.755859375) (-5.587730407714844e-05, 1.7578125) (-4.7698825836181635e-05, 1.759765625) (-4.899911499023437e-05, 1.76171875) (-5.985873413085937e-05, 1.763671875) (-7.400399017333984e-05, 1.765625) (-8.661365509033203e-05, 1.767578125) (-9.237708282470703e-05, 1.76953125) (-9.06502685546875e-05, 1.771484375) (-8.61507568359375e-05, 1.7734375) (-8.168939971923828e-05, 1.775390625) (-7.928591918945312e-05, 1.77734375) (-7.942726898193359e-05, 1.779296875) (-8.017543792724609e-05, 1.78125) (-8.070436096191406e-05, 1.783203125) (-8.104460144042968e-05, 1.78515625) (-8.113143920898437e-05, 1.787109375) (-8.125743865966797e-05, 1.7890625) (-8.148121643066405e-05, 1.791015625) (-8.155911254882812e-05, 1.79296875) (-8.143024444580077e-05, 1.794921875) (-8.114933776855468e-05, 1.796875) (-8.072390747070312e-05, 1.798828125) (-8.014605712890625e-05, 1.80078125) (-7.943314361572265e-05, 1.802734375) (-7.860929870605469e-05, 1.8046875) (-7.77012939453125e-05, 1.806640625) (-7.676015472412109e-05, 1.80859375) (-7.581484985351562e-05, 1.810546875) (-7.486369323730468e-05, 1.8125) (-7.394218444824218e-05, 1.814453125) (-7.310777282714843e-05, 1.81640625) (-7.23896484375e-05, 1.818359375) (-7.180821228027344e-05, 1.8203125) (-7.137177276611328e-05, 1.822265625) (-7.10581817626953e-05, 1.82421875) (-7.085426330566407e-05, 1.826171875) (-7.074649047851562e-05, 1.828125) (-7.069572448730469e-05, 1.830078125) (-7.06751708984375e-05, 1.83203125) (-7.06603012084961e-05, 1.833984375) (-7.061664581298828e-05, 1.8359375) (-7.052761077880859e-05, 1.837890625) (-7.03725357055664e-05, 1.83984375) (-7.011002349853515e-05, 1.841796875) (-6.969731140136718e-05, 1.84375) (-6.90621109008789e-05, 1.845703125) (-6.810416412353515e-05, 1.84765625) (-6.675164794921875e-05, 1.849609375) (-6.494538116455078e-05, 1.8515625) (-6.263109970092773e-05, 1.853515625) (-5.97907600402832e-05, 1.85546875) (-5.6405719757080074e-05, 1.857421875) (-5.246160507202148e-05, 1.859375) (-4.798831939697265e-05, 1.861328125) (-4.301369094848633e-05, 1.86328125) (-3.755851364135742e-05, 1.865234375) (-3.165979766845703e-05, 1.8671875) (-2.5345457077026366e-05, 1.869140625) (-1.865194511413574e-05, 1.87109375) (-1.1645843505859374e-05, 1.873046875) (-4.400040626525879e-06, 1.875) (2.984358787536621e-06, 1.876953125) (1.0368387222290038e-05, 1.87890625) (1.7621742248535156e-05, 1.880859375) (2.461524200439453e-05, 1.8828125) (3.1221801757812496e-05, 1.884765625) (3.735135650634765e-05, 1.88671875) (4.291909027099609e-05, 1.888671875) (4.783942413330078e-05, 1.890625) (5.206874084472656e-05, 1.892578125) (5.557072448730469e-05, 1.89453125) (5.8303073883056635e-05, 1.896484375) (6.024922180175781e-05, 1.8984375) (6.140027618408203e-05, 1.900390625) (6.175649642944335e-05, 1.90234375) (6.134901428222656e-05, 1.904296875) (6.022615814208984e-05, 1.90625) (5.846023178100586e-05, 1.908203125) (5.6165851593017575e-05, 1.91015625) (5.348140716552734e-05, 1.912109375) (5.0552368164062496e-05, 1.9140625) (4.751703643798828e-05, 1.916015625) (4.4485076904296874e-05, 1.91796875) (4.1553375244140624e-05, 1.919921875) (3.882750701904297e-05, 1.921875) (3.6398048400878906e-05, 1.923828125) (3.434779357910156e-05, 1.92578125) (3.276051330566406e-05, 1.927734375) (3.168816947937012e-05, 1.9296875) (3.116419410705566e-05, 1.931640625) (3.122394561767578e-05, 1.93359375) (3.187878036499023e-05, 1.935546875) (3.3103946685791016e-05, 1.9375) (3.485151672363281e-05, 1.939453125) (3.702802276611328e-05, 1.94140625) (3.950076293945312e-05, 1.943359375) (4.215736389160156e-05, 1.9453125) (4.489342498779297e-05, 1.947265625) (4.7601806640624996e-05, 1.94921875) (5.019425201416015e-05, 1.951171875) (5.2560340881347656e-05, 1.953125) (5.457904815673828e-05, 1.955078125) (5.6167499542236325e-05, 1.95703125) (5.721547698974609e-05, 1.958984375) (5.759679794311523e-05, 1.9609375) (5.7298633575439453e-05, 1.962890625) (5.638396453857421e-05, 1.96484375) (5.5012916564941404e-05, 1.966796875) (5.352667236328125e-05, 1.96875) (5.2253787994384766e-05, 1.970703125) (5.14274673461914e-05, 1.97265625) (5.141936111450195e-05, 1.974609375) (5.264521789550781e-05, 1.9765625) (5.519295501708984e-05, 1.978515625) (5.89191665649414e-05, 1.98046875) (6.335425567626953e-05, 1.982421875) (6.76407241821289e-05, 1.984375) (7.117577362060547e-05, 1.986328125) (7.373580932617187e-05, 1.98828125) (7.495130157470703e-05, 1.990234375) (7.4388916015625e-05, 1.9921875) (7.220551300048828e-05, 1.994140625) (6.906909942626953e-05, 1.99609375) (6.633989715576171e-05, 1.998046875) (6.610235595703125e-05, 2.0) (6.998439025878906e-05, 2.001953125) (7.903929138183594e-05, 2.00390625) (9.456350708007812e-05, 2.005859375) (0.000117966064453125, 2.0078125) (0.0001499710235595703, 2.009765625) (0.00019051348876953123, 2.01171875) (0.00023834202575683593, 2.013671875) (0.00029100482177734375, 2.015625) (0.00034614550781249996, 2.017578125) (0.0004014531555175781, 2.01953125) (0.0004537960510253906, 2.021484375) (0.0004994861450195313, 2.0234375) (0.0005349434204101562, 2.025390625) (0.000557106201171875, 2.02734375) (0.0005641054077148437, 2.029296875) (0.00055523681640625, 2.03125) (0.0005302592163085937, 2.033203125) (0.0004897166748046875, 2.03515625) (0.00043560873413085933, 2.037109375) (0.0003712020874023437, 2.0390625) (0.0003006061401367187, 2.041015625) (0.00022821420288085938, 2.04296875) (0.00015804412841796873, 2.044921875) (9.377186584472656e-05, 2.046875) (3.869984436035156e-05, 2.048828125) (-4.716270446777344e-06, 2.05078125) (-3.539907455444336e-05, 2.052734375) (-5.3689628601074215e-05, 2.0546875) (-6.100749588012695e-05, 2.056640625) (-5.944254684448242e-05, 2.05859375) (-5.1384975433349606e-05, 2.060546875) (-3.94882583618164e-05, 2.0625) (-2.646271514892578e-05, 2.064453125) (-1.4656744003295899e-05, 2.06640625) (-5.5207200050354e-06, 2.068359375) (4.5900213718414305e-07, 2.0703125) (3.4138646125793455e-06, 2.072265625) (3.888268947601318e-06, 2.07421875) (2.6521055698394776e-06, 2.076171875) (6.291601061820984e-07, 2.078125) (-1.0879443883895874e-06, 2.080078125) (-1.4930381774902343e-06, 2.08203125) (-1.336926221847534e-07, 2.083984375) (2.938756942749023e-06, 2.0859375) (7.409937858581542e-06, 2.087890625) (1.2816764831542968e-05, 2.08984375) (1.8727294921875e-05, 2.091796875) (2.474625015258789e-05, 2.09375) (3.0385440826416014e-05, 2.095703125) (3.515498352050781e-05, 2.09765625) (3.880398941040039e-05, 2.099609375) (4.127040100097656e-05, 2.1015625) (4.26174087524414e-05, 2.103515625) (4.298820495605469e-05, 2.10546875) (4.245538330078125e-05, 2.107421875) (4.106332397460937e-05, 2.109375) (3.88936653137207e-05, 2.111328125) (3.6059204101562496e-05, 2.11328125) (3.269316482543945e-05, 2.115234375) (2.893116569519043e-05, 2.1171875) (2.4881879806518554e-05, 2.119140625) (2.0611970901489258e-05, 2.12109375) (1.6196619033813476e-05, 2.123046875) (1.1718571662902832e-05, 2.125) (7.277485370635986e-06, 2.126953125) (2.9868609905242917e-06, 2.12890625) (-1.0907361507415772e-06, 2.130859375) (-4.9228620529174806e-06, 2.1328125) (-8.490671157836914e-06, 2.134765625) (-1.1773898124694824e-05, 2.13671875) (-1.4722276687622069e-05, 2.138671875) (-1.7291496276855468e-05, 2.140625) (-1.9462432861328125e-05, 2.142578125) (-2.124176025390625e-05, 2.14453125) (-2.2658348083496094e-05, 2.146484375) (-2.3752094268798827e-05, 2.1484375) (-2.455710220336914e-05, 2.150390625) (-2.5098995208740232e-05, 2.15234375) (-2.5419500350952146e-05, 2.154296875) (-2.5564407348632813e-05, 2.15625) (-2.5590518951416013e-05, 2.158203125) (-2.556497573852539e-05, 2.16015625) (-2.5522453308105466e-05, 2.162109375) (-2.5479202270507812e-05, 2.1640625) (-2.5447093963623044e-05, 2.166015625) (-2.5436717987060544e-05, 2.16796875) (-2.547146415710449e-05, 2.169921875) (-2.5572189331054688e-05, 2.171875) (-2.5741323471069334e-05, 2.173828125) (-2.5966781616210938e-05, 2.17578125) (-2.6234666824340818e-05, 2.177734375) (-2.6529441833496093e-05, 2.1796875) (-2.683916091918945e-05, 2.181640625) (-2.715334892272949e-05, 2.18359375) (-2.7445735931396483e-05, 2.185546875) (-2.7687192916870115e-05, 2.1875) (-2.784701919555664e-05, 2.189453125) (-2.7887195587158203e-05, 2.19140625) (-2.7782644271850584e-05, 2.193359375) (-2.751671600341797e-05, 2.1953125) (-2.7070871353149414e-05, 2.197265625) (-2.6433597564697265e-05, 2.19921875) (-2.5598806381225585e-05, 2.201171875) (-2.4553363800048826e-05, 2.203125) (-2.3290519714355467e-05, 2.205078125) (-2.182225799560547e-05, 2.20703125) (-2.0151882171630857e-05, 2.208984375) (-1.8285457611083983e-05, 2.2109375) (-1.624091339111328e-05, 2.212890625) (-1.4006824493408203e-05, 2.21484375) (-1.1559749603271484e-05, 2.216796875) (-8.910720825195312e-06, 2.21875) (-6.0700845718383786e-06, 2.220703125) (-3.020933151245117e-06, 2.22265625) (2.218951880931854e-07, 2.224609375) (3.659353733062744e-06, 2.2265625) (7.3291387557983395e-06, 2.228515625) (1.117578125e-05, 2.23046875) (1.5086364746093749e-05, 2.232421875) (1.9031021118164063e-05, 2.234375) (2.2995189666748045e-05, 2.236328125) (2.6840675354003905e-05, 2.23828125) (3.0479717254638672e-05, 2.240234375) (3.399832153320312e-05, 2.2421875) (3.729597473144531e-05, 2.244140625) (4.0399280548095704e-05, 2.24609375) (4.385234451293945e-05, 2.248046875) (4.686909484863281e-05, 2.25) (4.8551315307617184e-05, 2.251953125) (5.0046714782714844e-05, 2.25390625) (5.139393234252929e-05, 2.255859375) (5.518708801269531e-05, 2.2578125) (6.554505157470703e-05, 2.259765625) (7.932648468017577e-05, 2.26171875) (9.3167236328125e-05, 2.263671875) (0.00010182301330566406, 2.265625) (9.683818817138671e-05, 2.267578125) (8.182246398925781e-05, 2.26953125) (6.426464080810547e-05, 2.271484375) (5.075255584716797e-05, 2.2734375) (5.110353088378906e-05, 2.275390625) (6.343333053588867e-05, 2.27734375) (7.915481567382812e-05, 2.279296875) (9.291618347167968e-05, 2.28125) (9.808341979980469e-05, 2.283203125) (9.458441162109375e-05, 2.28515625) (8.817646789550781e-05, 2.287109375) (8.154543304443358e-05, 2.2890625) (7.679840087890625e-05, 2.291015625) (7.445887756347656e-05, 2.29296875) (7.239642333984375e-05, 2.294921875) (6.98795166015625e-05, 2.296875) (6.70780029296875e-05, 2.298828125) (6.389163208007813e-05, 2.30078125) (6.061423873901367e-05, 2.302734375) (5.7344184875488276e-05, 2.3046875) (5.3831787109375e-05, 2.306640625) (4.999955749511718e-05, 2.30859375) (4.5892333984375e-05, 2.310546875) (4.1477081298828126e-05, 2.3125) (3.670455932617187e-05, 2.314453125) (3.157526588439941e-05, 2.31640625) (2.6083568572998044e-05, 2.318359375) (2.0238117218017578e-05, 2.3203125) (1.4088979721069335e-05, 2.322265625) (7.675958633422852e-06, 2.32421875) (1.0257925987243652e-06, 2.326171875) (-5.804336547851562e-06, 2.328125) (-1.2736698150634765e-05, 2.330078125) (-1.9714103698730468e-05, 2.33203125) (-2.6690334320068357e-05, 2.333984375) (-3.3623973846435547e-05, 2.3359375) (-4.048309326171875e-05, 2.337890625) (-4.7229221343994136e-05, 2.33984375) (-5.381862258911133e-05, 2.341796875) (-6.019926071166992e-05, 2.34375) (-6.631263732910156e-05, 2.345703125) (-7.208909606933594e-05, 2.34765625) (-7.744776916503905e-05, 2.349609375) (-8.232656097412109e-05, 2.3515625) (-8.668414306640624e-05, 2.353515625) (-9.050944519042968e-05, 2.35546875) (-9.38226547241211e-05, 2.357421875) (-9.666582489013672e-05, 2.359375) (-9.910213470458984e-05, 2.361328125) (-0.00010118553161621093, 2.36328125) (-0.00010295927429199218, 2.365234375) (-0.000104460693359375, 2.3671875) (-0.00010571783447265625, 2.369140625) (-0.00010675751495361327, 2.37109375) (-0.00010760506439208984, 2.373046875) (-0.00010829130554199218, 2.375) (-0.00010885077667236328, 2.376953125) (-0.00010933258056640625, 2.37890625) (-0.00010980108642578125, 2.380859375) (-0.00011030966186523438, 2.3828125) (-0.00011089982604980469, 2.384765625) (-0.00011159066772460938, 2.38671875) (-0.00011237791442871093, 2.388671875) (-0.00011323967742919921, 2.390625) (-0.00011413690185546874, 2.392578125) (-0.00011503598022460937, 2.39453125) (-0.00011590953826904296, 2.396484375) (-0.00011673783874511719, 2.3984375) (-0.00011751237487792968, 2.400390625) (-0.00011822940063476562, 2.40234375) (-0.00011888999938964844, 2.404296875) (-0.00011949742126464843, 2.40625) (-0.00012005706787109375, 2.408203125) (-0.00012056457519531249, 2.41015625) (-0.00012100552368164062, 2.412109375) (-0.00012136775207519531, 2.4140625) (-0.00012164073944091797, 2.416015625) (-0.00012182366943359374, 2.41796875) (-0.00012192597198486328, 2.419921875) (-0.00012196436309814453, 2.421875) (-0.00012196301269531249, 2.423828125) (-0.00012194454956054687, 2.42578125) (-0.00012192970275878906, 2.427734375) (-0.00012193475341796875, 2.4296875) (-0.00012196961975097656, 2.431640625) (-0.00012204007720947265, 2.43359375) (-0.0001221478042602539, 2.435546875) (-0.00012229057312011717, 2.4375) (-0.0001224626922607422, 2.439453125) (-0.0001226618194580078, 2.44140625) (-0.00012288895416259765, 2.443359375) (-0.0001231460189819336, 2.4453125) (-0.00012343667602539063, 2.447265625) (-0.00012376255798339844, 2.44921875) (-0.00012412316894531248, 2.451171875) (-0.00012451705932617186, 2.453125) (-0.0001249414825439453, 2.455078125) (-0.0001253931427001953, 2.45703125) (-0.0001258682861328125, 2.458984375) (-0.00012636360931396484, 2.4609375) (-0.00012687648010253905, 2.462890625) (-0.00012740536499023436, 2.46484375) (-0.00012794972229003906, 2.466796875) (-0.00012851004028320313, 2.46875) (-0.00012908776855468748, 2.470703125) (-0.00012968360900878905, 2.47265625) (-0.00013029757690429688, 2.474609375) (-0.000130928955078125, 2.4765625) (-0.00013157595825195312, 2.478515625) (-0.00013223654174804688, 2.48046875) (-0.00013290843200683593, 2.482421875) (-0.0001335887756347656, 2.484375) (-0.00013427427673339844, 2.486328125) (-0.00013496188354492186, 2.48828125) (-0.00013564869689941406, 2.490234375) (-0.00013633209228515624, 2.4921875) (-0.0001370097198486328, 2.494140625) (-0.00013767919921874998, 2.49609375) (-0.00013833793640136719, 2.498046875) (-0.00013898348999023436, 2.5) (-0.00013961334228515624, 2.501953125) (-0.00014022486877441405, 2.50390625) (-0.00014081533813476563, 2.505859375) (-0.00014138177490234376, 2.5078125) (-0.00014192095947265624, 2.509765625) (-0.00014242950439453126, 2.51171875) (-0.0001429038391113281, 2.513671875) (-0.00014334034729003906, 2.515625) (-0.00014373541259765624, 2.517578125) (-0.0001440853576660156, 2.51953125) (-0.00014438665771484375, 2.521484375) (-0.000144635986328125, 2.5234375) (-0.0001448302459716797, 2.525390625) (-0.00014496664428710938, 2.52734375) (-0.0001450427551269531, 2.529296875) (-0.00014505644226074218, 2.53125) (-0.00014500592041015624, 2.533203125) (-0.000144889892578125, 2.53515625) (-0.0001447073974609375, 2.537109375) (-0.00014445803833007813, 2.5390625) (-0.0001441419982910156, 2.541015625) (-0.0001437599639892578, 2.54296875) (-0.00014331315612792968, 2.544921875) (-0.00014280340576171873, 2.546875) (-0.0001422330322265625, 2.548828125) (-0.00014160476684570313, 2.55078125) (-0.0001409216613769531, 2.552734375) (-0.00014018707275390626, 2.5546875) (-0.00013940452575683594, 2.556640625) (-0.000138577880859375, 2.55859375) (-0.00013771127319335937, 2.560546875) (-0.0001368089599609375, 2.5625) (-0.00013587551879882813, 2.564453125) (-0.00013491571044921873, 2.56640625) (-0.00013393460083007812, 2.568359375) (-0.0001329375, 2.5703125) (-0.00013193003845214844, 2.572265625) (-0.0001309180908203125, 2.57421875) (-0.00012990763854980468, 2.576171875) (-0.00012890484619140625, 2.578125) (-0.00012791595458984373, 2.580078125) (-0.000126947265625, 2.58203125) (-0.0001260050811767578, 2.583984375) (-0.00012509564971923827, 2.5859375) (-0.0001242250061035156, 2.587890625) (-0.00012339896392822266, 2.58984375) (-0.00012262306213378906, 2.591796875) (-0.00012190254211425781, 2.59375) (-0.00012124238586425781, 2.595703125) (-0.00012064710998535155, 2.59765625) (-0.00012012088012695312, 2.599609375) (-0.00011966739654541015, 2.6015625) (-0.00011928997802734374, 2.603515625) (-0.00011899147033691406, 2.60546875) (-0.0001187742691040039, 2.607421875) (-0.00011864029693603516, 2.609375) (-0.00011859099578857421, 2.611328125) (-0.00011862738037109374, 2.61328125) (-0.00011875004577636718, 2.615234375) (-0.00011895909118652343, 2.6171875) (-0.00011925428009033202, 2.619140625) (-0.00011963499450683593, 2.62109375) (-0.0001201002197265625, 2.623046875) (-0.00012064855194091797, 2.625) (-0.00012127827453613281, 2.626953125) (-0.00012198724365234374, 2.62890625) (-0.00012277297973632811, 2.630859375) (-0.00012363270568847655, 2.6328125) (-0.00012456321716308594, 2.634765625) (-0.00012556090545654295, 2.63671875) (-0.00012662191772460938, 2.638671875) (-0.00012774203491210936, 2.640625) (-0.00012891674804687498, 2.642578125) (-0.00013014126586914063, 2.64453125) (-0.00013141044616699218, 2.646484375) (-0.0001327188262939453, 2.6484375) (-0.00013406088256835938, 2.650390625) (-0.00013543096923828124, 2.65234375) (-0.00013682331848144532, 2.654296875) (-0.00013823211669921874, 2.65625) (-0.00013965141296386717, 2.658203125) (-0.0001410751953125, 2.66015625) (-0.00014249761962890624, 2.662109375) (-0.00014391275024414063, 2.6640625) (-0.00014531465148925782, 2.666015625) (-0.00014669755554199218, 2.66796875) (-0.00014805552673339843, 2.669921875) (-0.0001493822784423828, 2.671875) (-0.00015067214965820312, 2.673828125) (-0.00015191972351074218, 2.67578125) (-0.0001531192932128906, 2.677734375) (-0.00015426567077636718, 2.6796875) (-0.0001553529815673828, 2.681640625) (-0.00015637379455566406, 2.68359375) (-0.00015732383728027342, 2.685546875) (-0.0001582022705078125, 2.6875) (-0.00015900675964355469, 2.689453125) (-0.00015973495483398437, 2.69140625) (-0.0001603835754394531, 2.693359375) (-0.00016094474792480469, 2.6953125) (-0.000161416748046875, 2.697265625) (-0.00016180787658691406, 2.69921875) (-0.0001621123504638672, 2.701171875) (-0.00016231089782714844, 2.703125) (-0.0001623893585205078, 2.705078125) (-0.00016233175659179688, 2.70703125) (-0.00016213768005371093, 2.708984375) (-0.00016183702087402342, 2.7109375) (-0.00016143792724609374, 2.712890625) (-0.00016091403198242188, 2.71484375) (-0.00016028764343261717, 2.716796875) (-0.000159627197265625, 2.71875) (-0.0001589866180419922, 2.720703125) (-0.00015842535400390626, 2.72265625) (-0.000157957763671875, 2.724609375) (-0.00015750865173339842, 2.7265625) (-0.0001570559387207031, 2.728515625) (-0.00015669096374511718, 2.73046875) (-0.00015634188842773437, 2.732421875) (-0.00015570379638671873, 2.734375) (-0.0001547033996582031, 2.736328125) (-0.00015344668579101562, 2.73828125) (-0.00015190245056152343, 2.740234375) (-0.0001503955383300781, 2.7421875) (-0.00014838096618652343, 2.744140625) (-0.00014392140197753904, 2.74609375) (-0.00013732353210449218, 2.748046875) (-0.00013042605590820312, 2.75) (-0.00012606796264648436, 2.751953125) (-0.00012976443481445312, 2.75390625) (-0.00014150790405273437, 2.755859375) (-0.00015569500732421875, 2.7578125) (-0.00016685223388671874, 2.759765625) (-0.0001671848907470703, 2.76171875) (-0.0001557594757080078, 2.763671875) (-0.00014004527282714842, 2.765625) (-0.0001258434371948242, 2.767578125) (-0.00011927970886230468, 2.76953125) (-0.00012176634216308594, 2.771484375) (-0.00012772383117675782, 2.7734375) (-0.00013360604858398436, 2.775390625) (-0.00013711888122558592, 2.77734375) (-0.00013740049743652343, 2.779296875) (-0.00013669308471679688, 2.78125) (-0.00013609178161621093, 2.783203125) (-0.00013548388671874998, 2.78515625) (-0.00013494485473632812, 2.787109375) (-0.00013412005615234373, 2.7890625) (-0.00013287960815429686, 2.791015625) (-0.00013152003479003906, 2.79296875) (-0.00013013156127929688, 2.794921875) (-0.00012864909362792968, 2.796875) (-0.0001270805892944336, 2.798828125) (-0.00012544335937499999, 2.80078125) (-0.00012375428771972655, 2.802734375) (-0.00012207337951660154, 2.8046875) (-0.00012044512939453124, 2.806640625) (-0.00011888251495361327, 2.80859375) (-0.00011742106628417968, 2.810546875) (-0.00011609842681884765, 2.8125) (-0.00011494741821289062, 2.814453125) (-0.00011402606201171874, 2.81640625) (-0.00011339046478271483, 2.818359375) (-0.0001131017608642578, 2.8203125) (-0.00011322974395751953, 2.822265625) (-0.00011379290008544922, 2.82421875) (-0.00011484088134765624, 2.826171875) (-0.00011648733520507812, 2.828125) (-0.00011871662902832031, 2.830078125) (-0.00012140892028808593, 2.83203125) (-0.00012431989288330078, 2.833984375) (-0.00012696093749999999, 2.8359375) (-0.00012888565063476562, 2.837890625) (-0.0001298268127441406, 2.83984375) (-0.00012940402221679688, 2.841796875) (-0.00012720526123046873, 2.84375) (-0.0001232049560546875, 2.845703125) (-0.00011758790588378905, 2.84765625) (-0.00011090345001220703, 2.849609375) (-0.00010427548217773437, 2.8515625) (-9.85377960205078e-05, 2.853515625) (-9.416310119628906e-05, 2.85546875) (-9.184007263183593e-05, 2.857421875) (-9.207693481445312e-05, 2.859375) (-9.457730865478515e-05, 2.861328125) (-9.850472259521484e-05, 2.86328125) (-0.00010224461364746094, 2.865234375) (-0.00010331511688232421, 2.8671875) (-9.966487121582031e-05, 2.869140625) (-8.944465637207031e-05, 2.87109375) (-7.037384796142578e-05, 2.873046875) (-4.055723190307617e-05, 2.875) (-9.692764282226562e-08, 2.876953125) (4.897320938110351e-05, 2.87890625) (0.00010390025329589843, 2.880859375) (0.00016196914672851563, 2.8828125) (0.00022380499267578123, 2.884765625) (0.0002912458801269531, 2.88671875) (0.00036194381713867187, 2.888671875) (0.0004289359741210937, 2.890625) (0.0004796558837890625, 2.892578125) (0.0005020283813476562, 2.89453125) (0.0004922291259765625, 2.896484375) (0.00045351571655273434, 2.8984375) (0.0003958563842773437, 2.900390625) (0.0003292088928222656, 2.90234375) (0.0002568708801269531, 2.904296875) (0.00018194375610351563, 2.90625) (0.00010775763702392577, 2.908203125) (3.855314636230468e-05, 2.91015625) (-1.6405342102050782e-05, 2.912109375) (-5.31011962890625e-05, 2.9140625) (-7.463607788085938e-05, 2.916015625) (-8.499217224121093e-05, 2.91796875) (-9.092164611816406e-05, 2.919921875) (-9.558721160888671e-05, 2.921875) (-9.654403686523437e-05, 2.923828125) (-9.301551055908202e-05, 2.92578125) (-8.534576416015624e-05, 2.927734375) (-7.52367706298828e-05, 2.9296875) (-6.614043426513671e-05, 2.931640625) (-5.955815887451171e-05, 2.93359375) (-5.531942367553711e-05, 2.935546875) (-5.289446258544922e-05, 2.9375) (-5.130387115478516e-05, 2.939453125) (-4.981842803955078e-05, 2.94140625) (-4.77449722290039e-05, 2.943359375) (-4.417127227783203e-05, 2.9453125) (-3.8579605102539064e-05, 2.947265625) (-3.092694091796875e-05, 2.94921875) (-2.155019760131836e-05, 2.951171875) (-1.102522087097168e-05, 2.953125) (1.3068103790283202e-07, 2.955078125) (1.1482138633728027e-05, 2.95703125) (2.255506896972656e-05, 2.958984375) (3.2867313385009765e-05, 2.9609375) (4.2103256225585935e-05, 2.962890625) (5.013224029541016e-05, 2.96484375) (5.698218536376953e-05, 2.966796875) (6.278744506835937e-05, 2.96875) (6.7671630859375e-05, 2.970703125) (7.173863220214843e-05, 2.97265625) (7.510739135742188e-05, 2.974609375) (7.791838073730469e-05, 2.9765625) (8.029173278808593e-05, 2.978515625) (8.233049011230468e-05, 2.98046875) (8.414385986328124e-05, 2.982421875) (8.582476806640625e-05, 2.984375) (8.747625732421875e-05, 2.986328125) (8.920970153808593e-05, 2.98828125) (9.109730529785156e-05, 2.990234375) (9.318242645263672e-05, 2.9921875) (9.549459075927734e-05, 2.994140625) (9.803746795654296e-05, 2.99609375) (0.00010079672241210937, 2.998046875) (0.00010375192260742187, 3.0) (0.00010686477661132811, 3.001953125) (0.00011008695983886718, 3.00390625) (0.00011338011169433594, 3.005859375) (0.0001167052993774414, 3.0078125) (0.00012002436065673828, 3.009765625) (0.00012330364227294922, 3.01171875) (0.00012650028228759766, 3.013671875) (0.00012957049560546874, 3.015625) (0.00013247499084472654, 3.017578125) (0.0001351768341064453, 3.01953125) (0.00013765354919433593, 3.021484375) (0.00013989678955078123, 3.0234375) (0.00014190455627441405, 3.025390625) (0.00014368446350097655, 3.02734375) (0.00014525320434570312, 3.029296875) (0.00014663092041015624, 3.03125) (0.00014784356689453125, 3.033203125) (0.0001489214172363281, 3.03515625) (0.0001498897247314453, 3.037109375) (0.00015077120971679686, 3.0390625) (0.00015158900451660154, 3.041015625) (0.00015236392211914063, 3.04296875) (0.0001531181640625, 3.044921875) (0.0001538753967285156, 3.046875) (0.0001546576385498047, 3.048828125) (0.00015548629760742187, 3.05078125) (0.00015638116455078124, 3.052734375) (0.00015735943603515623, 3.0546875) (0.00015843647766113281, 3.056640625) (0.00015962617492675782, 3.05859375) (0.00016093994140625, 3.060546875) (0.0001623875732421875, 3.0625) (0.0001639768524169922, 3.064453125) (0.00016571356201171874, 3.06640625) (0.00016760339355468748, 3.068359375) (0.00016965182495117187, 3.0703125) (0.00017186325073242188, 3.072265625) (0.000174240966796875, 3.07421875) (0.00017678677368164063, 3.076171875) (0.0001795004425048828, 3.078125) (0.00018238050842285156, 3.080078125) (0.00018542417907714843, 3.08203125) (0.00018862657165527342, 3.083984375) (0.0001919808807373047, 3.0859375) (0.00019547879028320312, 3.087890625) (0.0001991102294921875, 3.08984375) (0.00020286383056640625, 3.091796875) (0.00020672714233398436, 3.09375) (0.0002106865997314453, 3.095703125) (0.0002147274475097656, 3.09765625) (0.00021883416748046873, 3.099609375) (0.00022299041748046874, 3.1015625) (0.00022717904663085937, 3.103515625) (0.00023138232421875, 3.10546875) (0.00023558221435546873, 3.107421875) (0.00023976031494140623, 3.109375) (0.00024389788818359373, 3.111328125) (0.00024797607421875, 3.11328125) (0.0002519758148193359, 3.115234375) (0.00025587799072265626, 3.1171875) (0.00025966387939453125, 3.119140625) (0.00026331494140625, 3.12109375) (0.00026681295776367187, 3.123046875) (0.00027014031982421874, 3.125) (0.00027328002929687497, 3.126953125) (0.0002762158508300781, 3.12890625) (0.000278932373046875, 3.130859375) (0.00028141516113281247, 3.1328125) (0.0002836507568359375, 3.134765625) (0.0002856266174316406, 3.13671875) (0.00028733135986328125, 3.138671875) (0.00028875460815429684, 3.140625) (0.00028988720703125, 3.142578125) (0.00029072103881835936, 3.14453125) (0.0002912494812011719, 3.146484375) (0.00029146728515624996, 3.1484375) (0.0002913705139160156, 3.150390625) (0.00029095660400390623, 3.15234375) (0.000290224365234375, 3.154296875) (0.00028917391967773435, 3.15625) (0.00028780673217773434, 3.158203125) (0.00028612557983398435, 3.16015625) (0.00028413427734375, 3.162109375) (0.00028183770751953125, 3.1640625) (0.00027924188232421874, 3.166015625) (0.0002763539428710937, 3.16796875) (0.00027318182373046876, 3.169921875) (0.00026973455810546873, 3.171875) (0.000266022216796875, 3.173828125) (0.00026205560302734374, 3.17578125) (0.0002578465576171875, 3.177734375) (0.00025340780639648435, 3.1796875) (0.0002487527160644531, 3.181640625) (0.0002438953399658203, 3.18359375) (0.00023885040283203125, 3.185546875) (0.0002336330108642578, 3.1875) (0.0002282587432861328, 3.189453125) (0.00022274353027343748, 3.19140625) (0.00021710357666015624, 3.193359375) (0.00021135531616210936, 3.1953125) (0.000205515380859375, 3.197265625) (0.0001996005401611328, 3.19921875) (0.0001936277618408203, 3.201171875) (0.00018761399841308592, 3.203125) (0.00018157620239257812, 3.205078125) (0.00017553121948242186, 3.20703125) (0.0001694956359863281, 3.208984375) (0.0001634857177734375, 3.2109375) (0.00015751731872558594, 3.212890625) (0.00015160577392578123, 3.21484375) (0.00014576583862304686, 3.216796875) (0.00014001159667968748, 3.21875) (0.00013435653686523437, 3.220703125) (0.00012881343078613281, 3.22265625) (0.0001233943634033203, 3.224609375) (0.00011811068725585936, 3.2265625) (0.00011297296905517577, 3.228515625) (0.00010799098205566406, 3.23046875) (0.000103173583984375, 3.232421875) (9.85287628173828e-05, 3.234375) (9.406347656249999e-05, 3.236328125) (8.978368377685547e-05, 3.23828125) (8.569426727294921e-05, 3.240234375) (8.179905700683593e-05, 3.2421875) (7.810080718994141e-05, 3.244140625) (7.460128021240234e-05, 3.24609375) (7.130121612548827e-05, 3.248046875) (6.820039367675781e-05, 3.25) (6.529761505126953e-05, 3.251953125) (6.259074020385742e-05, 3.25390625) (6.007667541503906e-05, 3.255859375) (5.77513427734375e-05, 3.2578125) (5.56097183227539e-05, 3.259765625) (5.364577484130859e-05, 3.26171875) (5.185253524780273e-05, 3.263671875) (5.0222091674804685e-05, 3.265625) (4.8745712280273434e-05, 3.267578125) (4.7413864135742185e-05, 3.26953125) (4.621636199951172e-05, 3.271484375) (4.514244842529297e-05, 3.2734375) (4.41808967590332e-05, 3.275390625) (4.332010269165039e-05, 3.27734375) (4.2548175811767576e-05, 3.279296875) (4.185298156738281e-05, 3.28125) (4.1222206115722654e-05, 3.283203125) (4.064338684082031e-05, 3.28515625) (4.0103973388671876e-05, 3.287109375) (3.959143829345703e-05, 3.2890625) (3.909331512451172e-05, 3.291015625) (3.859729766845703e-05, 3.29296875) (3.8091327667236326e-05, 3.294921875) (3.756369018554687e-05, 3.296875) (3.700310897827148e-05, 3.298828125) (3.6398834228515626e-05, 3.30078125) (3.574070358276367e-05, 3.302734375) (3.5019149780273435e-05, 3.3046875) (3.422528076171875e-05, 3.306640625) (3.335082626342773e-05, 3.30859375) (3.238820648193359e-05, 3.310546875) (3.133053588867187e-05, 3.3125) (3.0171674728393552e-05, 3.314453125) (2.8906263351440428e-05, 3.31640625) (2.752976608276367e-05, 3.318359375) (2.603853607177734e-05, 3.3203125) (2.442987060546875e-05, 3.322265625) (2.270206069946289e-05, 3.32421875) (2.0854408264160154e-05, 3.326171875) (1.8887218475341795e-05, 3.328125) (1.680177688598633e-05, 3.330078125) (1.460031509399414e-05, 3.33203125) (1.228594398498535e-05, 3.333984375) (9.862596511840819e-06, 3.3359375) (7.334979057312011e-06, 3.337890625) (4.708492755889892e-06, 3.33984375) (1.989205002784729e-06, 3.341796875) (-8.161802291870117e-07, 3.34375) (-3.7003557682037354e-06, 3.345703125) (-6.655451774597167e-06, 3.34765625) (-9.673091888427735e-06, 3.349609375) (-1.2744477272033691e-05, 3.3515625) (-1.5860450744628905e-05, 3.353515625) (-1.9011600494384765e-05, 3.35546875) (-2.218833351135254e-05, 3.357421875) (-2.5380985260009766e-05, 3.359375) (-2.857991600036621e-05, 3.361328125) (-3.1775592803955073e-05, 3.36328125) (-3.495864868164062e-05, 3.365234375) (-3.8119911193847655e-05, 3.3671875) (-4.1250415802001953e-05, 3.369140625) (-4.4341449737548826e-05, 3.37109375) (-4.738455963134766e-05, 3.373046875) (-5.037158966064453e-05, 3.375) (-5.3294757843017576e-05, 3.376953125) (-5.614665985107422e-05, 3.37890625) (-5.8920341491699215e-05, 3.380859375) (-6.160934448242188e-05, 3.3828125) (-6.420780181884765e-05, 3.384765625) (-6.671047973632813e-05, 3.38671875) (-6.911283111572266e-05, 3.388671875) (-7.141094207763672e-05, 3.390625) (-7.360160827636718e-05, 3.392578125) (-7.568227386474609e-05, 3.39453125) (-7.765106201171875e-05, 3.396484375) (-7.950672149658202e-05, 3.3984375) (-8.12486572265625e-05, 3.400390625) (-8.287686157226562e-05, 3.40234375) (-8.439196014404297e-05, 3.404296875) (-8.579520416259765e-05, 3.40625) (-8.708847808837891e-05, 3.408203125) (-8.827430725097656e-05, 3.41015625) (-8.935578155517578e-05, 3.412109375) (-9.033650207519531e-05, 3.4140625) (-9.122053527832031e-05, 3.416015625) (-9.201234436035155e-05, 3.41796875) (-9.271670532226562e-05, 3.419921875) (-9.333861541748046e-05, 3.421875) (-9.388323974609374e-05, 3.423828125) (-9.435576629638671e-05, 3.42578125) (-9.476142120361327e-05, 3.427734375) (-9.510539245605468e-05, 3.4296875) (-9.539289855957031e-05, 3.431640625) (-9.562916564941406e-05, 3.43359375) (-9.581935882568359e-05, 3.435546875) (-9.596856689453125e-05, 3.4375) (-9.6081787109375e-05, 3.439453125) (-9.616392517089844e-05, 3.44140625) (-9.621981811523437e-05, 3.443359375) (-9.625418090820312e-05, 3.4453125) (-9.627149963378905e-05, 3.447265625) (-9.62760009765625e-05, 3.44921875) (-9.627166748046875e-05, 3.451171875) (-9.626226806640625e-05, 3.453125) (-9.625135040283203e-05, 3.455078125) (-9.62421875e-05, 3.45703125) (-9.623780059814452e-05, 3.458984375) (-9.624085998535155e-05, 3.4609375) (-9.625374603271484e-05, 3.462890625) (-9.627857971191405e-05, 3.46484375) (-9.631710052490233e-05, 3.466796875) (-9.637065124511719e-05, 3.46875) (-9.644001007080078e-05, 3.470703125) (-9.652551269531249e-05, 3.47265625) (-9.662700653076171e-05, 3.474609375) (-9.674384307861327e-05, 3.4765625) (-9.6875e-05, 3.478515625) (-9.70190200805664e-05, 3.48046875) (-9.717405700683594e-05, 3.482421875) (-9.733795166015624e-05, 3.484375) (-9.750840759277343e-05, 3.486328125) (-9.768302154541016e-05, 3.48828125) (-9.78593521118164e-05, 3.490234375) (-9.803495025634765e-05, 3.4921875) (-9.820723724365234e-05, 3.494140625) (-9.837345886230468e-05, 3.49609375) (-9.853088378906249e-05, 3.498046875) (-9.867681884765624e-05, 3.5) (-9.880854034423827e-05, 3.501953125) (-9.892320251464843e-05, 3.50390625) (-9.90177001953125e-05, 3.505859375) (-9.908871459960937e-05, 3.5078125) (-9.913296508789062e-05, 3.509765625) (-9.914729309082031e-05, 3.51171875) (-9.912854766845703e-05, 3.513671875) (-9.907342529296875e-05, 3.515625) (-9.897847747802734e-05, 3.517578125) (-9.884021759033203e-05, 3.51953125) (-9.865531158447266e-05, 3.521484375) (-9.842060089111327e-05, 3.5234375) (-9.813291931152343e-05, 3.525390625) (-9.778909301757812e-05, 3.52734375) (-9.738613891601562e-05, 3.529296875) (-9.692137145996094e-05, 3.53125) (-9.6392578125e-05, 3.533203125) (-9.579821014404296e-05, 3.53515625) (-9.513713073730468e-05, 3.537109375) (-9.440870666503906e-05, 3.5390625) (-9.361291503906249e-05, 3.541015625) (-9.275044250488281e-05, 3.54296875) (-9.182273101806641e-05, 3.544921875) (-9.083199310302734e-05, 3.546875) (-8.978086853027343e-05, 3.548828125) (-8.867218780517578e-05, 3.55078125) (-8.750906372070312e-05, 3.552734375) (-8.6294921875e-05, 3.5546875) (-8.503371429443359e-05, 3.556640625) (-8.373006439208985e-05, 3.55859375) (-8.238865661621093e-05, 3.560546875) (-8.101399993896485e-05, 3.5625) (-7.961121368408203e-05, 3.564453125) (-7.818630981445312e-05, 3.56640625) (-7.674634552001952e-05, 3.568359375) (-7.529962921142577e-05, 3.5703125) (-7.38546142578125e-05, 3.572265625) (-7.241931915283202e-05, 3.57421875) (-7.100242614746093e-05, 3.576171875) (-6.961351013183593e-05, 3.578125) (-6.8261962890625e-05, 3.580078125) (-6.695704650878906e-05, 3.58203125) (-6.570691680908203e-05, 3.583984375) (-6.451769256591796e-05, 3.5859375) (-6.339621353149414e-05, 3.587890625) (-6.235020446777344e-05, 3.58984375) (-6.138712310791015e-05, 3.591796875) (-6.0514957427978516e-05, 3.59375) (-5.974041748046875e-05, 3.595703125) (-5.9068214416503904e-05, 3.59765625) (-5.850344085693359e-05, 3.599609375) (-5.8051071166992184e-05, 3.6015625) (-5.771352005004882e-05, 3.603515625) (-5.749185943603515e-05, 3.60546875) (-5.738418197631836e-05, 3.607421875) (-5.73841552734375e-05, 3.609375) (-5.748817443847656e-05, 3.611328125) (-5.769414901733398e-05, 3.61328125) (-5.800102233886718e-05, 3.615234375) (-5.841255187988281e-05, 3.6171875) (-5.892934799194336e-05, 3.619140625) (-5.954793548583984e-05, 3.62109375) (-6.026455688476562e-05, 3.623046875) (-6.107225036621093e-05, 3.625) (-6.195966339111328e-05, 3.626953125) (-6.291331481933594e-05, 3.62890625) (-6.391130065917969e-05, 3.630859375) (-6.492201995849609e-05, 3.6328125) (-6.591842651367188e-05, 3.634765625) (-6.687368774414062e-05, 3.63671875) (-6.776130676269531e-05, 3.638671875) (-6.856118011474609e-05, 3.640625) (-6.924324798583984e-05, 3.642578125) (-6.977499389648437e-05, 3.64453125) (-7.012803649902344e-05, 3.646484375) (-7.026760864257812e-05, 3.6484375) (-7.016262817382812e-05, 3.650390625) (-6.978656005859375e-05, 3.65234375) (-6.911918640136719e-05, 3.654296875) (-6.815676879882812e-05, 3.65625) (-6.69120864868164e-05, 3.658203125) (-6.540623474121093e-05, 3.66015625) (-6.366850662231445e-05, 3.662109375) (-6.173778915405273e-05, 3.6640625) (-5.965764236450195e-05, 3.666015625) (-5.749496078491211e-05, 3.66796875) (-5.532356643676757e-05, 3.669921875) (-5.321089935302734e-05, 3.671875) (-5.1239315032958984e-05, 3.673828125) (-4.946191787719726e-05, 3.67578125) (-4.794813537597656e-05, 3.677734375) (-4.682190322875976e-05, 3.6796875) (-4.6119789123535156e-05, 3.681640625) (-4.580265808105468e-05, 3.68359375) (-4.5754352569580074e-05, 3.685546875) (-4.5704074859619136e-05, 3.6875) (-4.539884185791015e-05, 3.689453125) (-4.470707321166992e-05, 3.69140625) (-4.337910461425781e-05, 3.693359375) (-4.1069686889648434e-05, 3.6953125) (-3.771486282348633e-05, 3.697265625) (-3.33887939453125e-05, 3.69921875) (-2.8424592971801758e-05, 3.701171875) (-2.3604496002197264e-05, 3.703125) (-1.944912338256836e-05, 3.705078125) (-1.6187808990478515e-05, 3.70703125) (-1.4314600944519042e-05, 3.708984375) (-1.4270661354064941e-05, 3.7109375) (-1.5928123474121092e-05, 3.712890625) (-1.8807180404663086e-05, 3.71484375) (-2.173305320739746e-05, 3.716796875) (-2.2793527603149412e-05, 3.71875) (-2.0635086059570313e-05, 3.720703125) (-1.4067419052124023e-05, 3.72265625) (-1.3122031688690185e-06, 3.724609375) (1.9211769104003906e-05, 3.7265625) (4.842504119873047e-05, 3.728515625) (8.552408599853515e-05, 3.73046875) (0.00012765342712402344, 3.732421875) (0.00017187265014648436, 3.734375) (0.00021643043518066406, 3.736328125) (0.0002623059997558594, 3.73828125) (0.00031155813598632813, 3.740234375) (0.00036233932495117186, 3.7421875) (0.00040925866699218746, 3.744140625) (0.00044289355468749996, 3.74609375) (0.000451587890625, 3.748046875) (0.00042999032592773434, 3.75) (0.0003794594116210937, 3.751953125) (0.000306606689453125, 3.75390625) (0.00022463641357421874, 3.755859375) (0.00014582516479492186, 3.7578125) (7.724822998046874e-05, 3.759765625) (2.3813621520996094e-05, 3.76171875) (-1.5781561851501464e-05, 3.763671875) (-4.6741455078124996e-05, 3.765625) (-7.139959716796875e-05, 3.767578125) (-9.247981262207031e-05, 3.76953125) (-0.00011009101867675781, 3.771484375) (-0.00012067900085449218, 3.7734375) (-0.0001232792510986328, 3.775390625) (-0.00011809095764160156, 3.77734375) (-0.00010680885314941406, 3.779296875) (-9.357288360595703e-05, 3.78125) (-8.13379898071289e-05, 3.783203125) (-7.140032196044921e-05, 3.78515625) (-6.425273895263672e-05, 3.787109375) (-5.9530929565429684e-05, 3.7890625) (-5.678193664550781e-05, 3.791015625) (-5.5759819030761716e-05, 3.79296875) (-5.593125915527344e-05, 3.794921875) (-5.6377895355224606e-05, 3.796875) (-5.6165145874023434e-05, 3.798828125) (-5.4819381713867185e-05, 3.80078125) (-5.231393432617187e-05, 3.802734375) (-4.887890243530273e-05, 3.8046875) (-4.487827682495117e-05, 3.806640625) (-4.0589271545410154e-05, 3.80859375) (-3.625572967529297e-05, 3.810546875) (-3.224954605102539e-05, 3.8125) (-2.8968658447265625e-05, 3.814453125) (-2.661960983276367e-05, 3.81640625) (-2.522927474975586e-05, 3.818359375) (-2.4690731048583982e-05, 3.8203125) (-2.4818485260009765e-05, 3.822265625) (-2.5479793548583982e-05, 3.82421875) (-2.658485984802246e-05, 3.826171875) (-2.8034255981445313e-05, 3.828125) (-2.9694135665893552e-05, 3.830078125) (-3.1416934967041016e-05, 3.83203125) (-3.309154510498047e-05, 3.833984375) (-3.465249633789062e-05, 3.8359375) (-3.6036186218261716e-05, 3.837890625) (-3.716294479370117e-05, 3.83984375) (-3.796640396118164e-05, 3.841796875) (-3.83857536315918e-05, 3.84375) (-3.8417358398437496e-05, 3.845703125) (-3.8142494201660154e-05, 3.84765625) (-3.7601181030273435e-05, 3.849609375) (-3.676508331298828e-05, 3.8515625) (-3.5774593353271485e-05, 3.853515625) (-3.496042633056641e-05, 3.85546875) (-3.441106414794922e-05, 3.857421875) (-3.405889892578125e-05, 3.859375) (-3.3938655853271485e-05, 3.861328125) (-3.374646759033203e-05, 3.86328125) (-3.419247436523438e-05, 3.865234375) (-3.705924987792969e-05, 3.8671875) (-4.1805572509765626e-05, 3.869140625) (-4.686119079589843e-05, 3.87109375) (-4.930833435058594e-05, 3.873046875) (-4.407967758178711e-05, 3.875) (-3.20900764465332e-05, 3.876953125) (-1.8357807159423827e-05, 3.87890625) (-8.030211448669434e-06, 3.880859375) (-8.522526741027832e-06, 3.8828125) (-1.9673307418823243e-05, 3.884765625) (-3.4579105377197266e-05, 3.88671875) (-4.813489532470703e-05, 3.888671875) (-5.445072937011718e-05, 3.890625) (-5.237387084960937e-05, 3.892578125) (-4.781971740722656e-05, 3.89453125) (-4.4696334838867184e-05, 3.896484375) (-4.391195297241211e-05, 3.8984375) (-4.5859489440917966e-05, 3.900390625) (-4.546399688720703e-05, 3.90234375) (-3.714645385742187e-05, 3.904296875) (-2.4447183609008787e-05, 3.90625) (-1.1139525413513183e-05, 3.908203125) (-3.6090922355651855e-06, 3.91015625) (-1.1716818809509276e-05, 3.912109375) (-3.104774665832519e-05, 3.9140625) (-5.275155639648437e-05, 3.916015625) (-6.905300903320312e-05, 3.91796875) (-6.835029602050781e-05, 3.919921875) (-5.279408264160156e-05, 3.921875) (-3.2543388366699216e-05, 3.923828125) (-1.4038771629333495e-05, 3.92578125) (-5.242811679840088e-06, 3.927734375) (-6.292923927307129e-06, 3.9296875) (-1.035749340057373e-05, 3.931640625) (-1.4191096305847168e-05, 3.93359375) (-1.5246492385864257e-05, 3.935546875) (-1.2941673278808594e-05, 3.9375) (-9.847606658935546e-06, 3.939453125) (-6.851206302642822e-06, 3.94140625) (-3.7713875770568848e-06, 3.943359375) (-7.345871329307556e-07, 3.9453125) (2.5868210792541504e-06, 3.947265625) (6.266297340393066e-06, 3.94921875) (9.967842102050781e-06, 3.951171875) (1.357110023498535e-05, 3.953125) (1.7103553771972657e-05, 3.955078125) (2.051355171203613e-05, 3.95703125) (2.3739151000976562e-05, 3.958984375) (2.678132629394531e-05, 3.9609375) (2.964223861694336e-05, 3.962890625) (3.2325000762939455e-05, 3.96484375) (3.4862655639648434e-05, 3.966796875) (3.724946975708008e-05, 3.96875) (3.9438007354736324e-05, 3.970703125) (4.14042854309082e-05, 3.97265625) (4.313596725463867e-05, 3.974609375) (4.4612682342529293e-05, 3.9765625) (4.581927490234375e-05, 3.978515625) (4.673930358886719e-05, 3.98046875) (4.735122680664062e-05, 3.982421875) (4.764152908325195e-05, 3.984375) (4.760343551635742e-05, 3.986328125) (4.722904586791992e-05, 3.98828125) (4.651139450073242e-05, 3.990234375) (4.5445049285888667e-05, 3.9921875) (4.402529907226562e-05, 3.994140625) (4.224992752075195e-05, 3.99609375) (4.011911010742187e-05, 3.998046875) (3.763452911376953e-05, 4.0) (3.479957962036133e-05, 4.001953125) (3.161944580078125e-05, 4.00390625) (2.8101028442382812e-05, 4.005859375) (2.4252990722656248e-05, 4.0078125) (2.008557891845703e-05, 4.009765625) (1.5610546112060546e-05, 4.01171875) (1.0841157913208007e-05, 4.013671875) (5.79214859008789e-06, 4.015625) (4.796473979949951e-07, 4.017578125) (-5.078915596008301e-06, 4.01953125) (-1.0864931106567382e-05, 4.021484375) (-1.6858768463134764e-05, 4.0234375) (-2.3039882659912107e-05, 4.025390625) (-2.9386899948120114e-05, 4.02734375) (-3.5877746582031246e-05, 4.029296875) (-4.248974227905273e-05, 4.03125) (-4.9199745178222656e-05, 4.033203125) (-5.598440551757812e-05, 4.03515625) (-6.282027435302734e-05, 4.037109375) (-6.9683837890625e-05, 4.0390625) (-7.655160522460937e-05, 4.041015625) (-8.340019226074218e-05, 4.04296875) (-9.020654296875e-05, 4.044921875) (-9.694815063476561e-05, 4.046875) (-0.00010360315704345703, 4.048828125) (-0.00011015029907226562, 4.05078125) (-0.00011656908416748047, 4.052734375) (-0.0001228398971557617, 4.0546875) (-0.00012894424438476563, 4.056640625) (-0.00013486483764648438, 4.05859375) (-0.00014058563232421874, 4.060546875) (-0.0001460915069580078, 4.0625) (-0.00015136842346191406, 4.064453125) (-0.00015640359497070313, 4.06640625) (-0.0001611853790283203, 4.068359375) (-0.00016570344543457031, 4.0703125) (-0.00016994888305664062, 4.072265625) (-0.00017391400146484374, 4.07421875) (-0.00017759262084960937, 4.076171875) (-0.00018098022460937498, 4.078125) (-0.00018407373046874998, 4.080078125) (-0.00018687176513671873, 4.08203125) (-0.00018937451171875, 4.083984375) (-0.00019158343505859375, 4.0859375) (-0.00019350114440917969, 4.087890625) (-0.00019513133239746093, 4.08984375) (-0.000196478759765625, 4.091796875) (-0.0001975494384765625, 4.09375) (-0.0001983503875732422, 4.095703125) (-0.00019888941955566405, 4.09765625) (-0.00019917514038085937, 4.099609375) (-0.00019921716308593748, 4.1015625) (-0.00019902626037597655, 4.103515625) (-0.0001986143798828125, 4.10546875) (-0.00019799424743652342, 4.107421875) (-0.000197178955078125, 4.109375) (-0.00019618180847167968, 4.111328125) (-0.00019501661682128906, 4.11328125) (-0.00019369747924804687, 4.115234375) (-0.00019223817443847656, 4.1171875) (-0.00019065208435058593, 4.119140625) (-0.00018895181274414062, 4.12109375) (-0.00018714935302734375, 4.123046875) (-0.0001852572479248047, 4.125) (-0.00018328836059570313, 4.126953125) (-0.00018125538635253906, 4.12890625) (-0.00017917098999023436, 4.130859375) (-0.00017704818725585935, 4.1328125) (-0.00017489971923828124, 4.134765625) (-0.00017273887634277344, 4.13671875) (-0.0001705787353515625, 4.138671875) (-0.00016843014526367187, 4.140625) (-0.00016630227661132812, 4.142578125) (-0.0001642025604248047, 4.14453125) (-0.00016213607788085938, 4.146484375) (-0.0001601070556640625, 4.1484375) (-0.00015811920166015623, 4.150390625) (-0.00015617446899414061, 4.15234375) (-0.0001542748565673828, 4.154296875) (-0.00015242265319824217, 4.15625) (-0.00015061978149414062, 4.158203125) (-0.00014887042236328123, 4.16015625) (-0.00014718038940429688, 4.162109375) (-0.00014555239868164062, 4.1640625) (-0.0001439867706298828, 4.166015625) (-0.0001424801025390625, 4.16796875) (-0.00014102421569824218, 4.169921875) (-0.00013961434936523437, 4.171875) (-0.0001382481689453125, 4.173828125) (-0.00013692144775390624, 4.17578125) (-0.00013563314819335938, 4.177734375) (-0.00013438624572753905, 4.1796875) (-0.000133188232421875, 4.181640625) (-0.00013205690002441404, 4.18359375) (-0.00013101251220703125, 4.185546875) (-0.00013006591796875, 4.1875) (-0.00012922268676757813, 4.189453125) (-0.00012848016357421875, 4.19140625) (-0.00012782440185546876, 4.193359375) (-0.00012724365234374998, 4.1953125) (-0.00012672256469726563, 4.197265625) (-0.00012624166870117188, 4.19921875) (-0.00012579100036621093, 4.201171875) (-0.00012535652160644532, 4.203125) (-0.00012492265319824218, 4.205078125) (-0.00012448365020751952, 4.20703125) (-0.00012403001403808592, 4.208984375) (-0.00012354259490966797, 4.2109375) (-0.00012299117279052733, 4.212890625) (-0.00012232225036621093, 4.21484375) (-0.00012147377014160155, 4.216796875) (-0.00012040470886230468, 4.21875) (-0.00011908349609375, 4.220703125) (-0.00011748894500732421, 4.22265625) (-0.00011562052154541015, 4.224609375) (-0.00011347940063476563, 4.2265625) (-0.0001110904083251953, 4.228515625) (-0.00010850574493408202, 4.23046875) (-0.00010576925659179687, 4.232421875) (-0.00010292949676513672, 4.234375) (-0.00010003341674804688, 4.236328125) (-9.711200714111328e-05, 4.23828125) (-9.420295715332031e-05, 4.240234375) (-9.135359954833984e-05, 4.2421875) (-8.861947631835937e-05, 4.244140625) (-8.608113861083984e-05, 4.24609375) (-8.382852172851563e-05, 4.248046875) (-8.19267578125e-05, 4.25) (-8.043685913085938e-05, 4.251953125) (-7.941487884521485e-05, 4.25390625) (-7.889666748046875e-05, 4.255859375) (-7.891463470458984e-05, 4.2578125) (-7.945497131347656e-05, 4.259765625) (-8.045323181152344e-05, 4.26171875) (-8.184558868408203e-05, 4.263671875) (-8.355725860595703e-05, 4.265625) (-8.551392364501952e-05, 4.267578125) (-8.76516876220703e-05, 4.26953125) (-8.989026641845703e-05, 4.271484375) (-9.214696502685546e-05, 4.2734375) (-9.434706115722656e-05, 4.275390625) (-9.640574645996094e-05, 4.27734375) (-9.823710632324218e-05, 4.279296875) (-9.977320861816405e-05, 4.28125) (-0.00010093766021728515, 4.283203125) (-0.00010165182495117187, 4.28515625) (-0.00010184896850585936, 4.287109375) (-0.00010146049499511718, 4.2890625) (-0.00010046656799316405, 4.291015625) (-9.889781951904296e-05, 4.29296875) (-9.678942871093749e-05, 4.294921875) (-9.419637298583984e-05, 4.296875) (-9.118036651611328e-05, 4.298828125) (-8.78057861328125e-05, 4.30078125) (-8.416310882568359e-05, 4.302734375) (-8.033850860595702e-05, 4.3046875) (-7.639524841308594e-05, 4.306640625) (-7.239042663574219e-05, 4.30859375) (-6.83734130859375e-05, 4.310546875) (-6.43845977783203e-05, 4.3125) (-6.047995376586914e-05, 4.314453125) (-5.6719352722167965e-05, 4.31640625) (-5.315718078613281e-05, 4.318359375) (-4.985720062255859e-05, 4.3203125) (-4.6855583190917966e-05, 4.322265625) (-4.416060256958008e-05, 4.32421875) (-4.177887725830078e-05, 4.326171875) (-3.9696899414062495e-05, 4.328125) (-3.788960266113281e-05, 4.330078125) (-3.632305908203125e-05, 4.33203125) (-3.493970870971679e-05, 4.333984375) (-3.3686737060546876e-05, 4.3359375) (-3.2533966064453126e-05, 4.337890625) (-3.146141052246094e-05, 4.33984375) (-3.0458024978637694e-05, 4.341796875) (-2.951807403564453e-05, 4.34375) (-2.862466812133789e-05, 4.345703125) (-2.7760101318359374e-05, 4.34765625) (-2.6910781860351562e-05, 4.349609375) (-2.6052347183227538e-05, 4.3515625) (-2.5165645599365235e-05, 4.353515625) (-2.4238277435302732e-05, 4.35546875) (-2.325486373901367e-05, 4.357421875) (-2.2210800170898436e-05, 4.359375) (-2.1110424041748044e-05, 4.361328125) (-1.996376037597656e-05, 4.36328125) (-1.879276657104492e-05, 4.365234375) (-1.7618764877319335e-05, 4.3671875) (-1.6450788497924803e-05, 4.369140625) (-1.5290602684020997e-05, 4.37109375) (-1.4133940696716308e-05, 4.373046875) (-1.2971155166625976e-05, 4.375) (-1.1794568061828612e-05, 4.376953125) (-1.0593972206115722e-05, 4.37890625) (-9.353711128234862e-06, 4.380859375) (-8.061517715454101e-06, 4.3828125) (-6.707194805145263e-06, 4.384765625) (-5.2820653915405274e-06, 4.38671875) (-3.7828412055969235e-06, 4.388671875) (-2.2063231468200683e-06, 4.390625) (-5.446492433547974e-07, 4.392578125) (1.2122660875320433e-06, 4.39453125) (3.0789415836334227e-06, 4.396484375) (5.073209762573242e-06, 4.3984375) (7.2058944702148435e-06, 4.400390625) (9.481342315673828e-06, 4.40234375) (1.1901089668273925e-05, 4.404296875) (1.4463127136230468e-05, 4.40625) (1.7161930084228514e-05, 4.408203125) (1.9985757827758787e-05, 4.41015625) (2.291168975830078e-05, 4.412109375) (2.590684127807617e-05, 4.4140625) (2.8940767288208007e-05, 4.416015625) (3.1991748809814454e-05, 4.41796875) (3.50498046875e-05, 4.419921875) (3.811441421508789e-05, 4.421875) (4.118148803710937e-05, 4.423828125) (4.4246376037597656e-05, 4.42578125) (4.730313491821289e-05, 4.427734375) (5.034484481811523e-05, 4.4296875) (5.3376895904541016e-05, 4.431640625) (5.64075927734375e-05, 4.43359375) (5.943792724609375e-05, 4.435546875) (6.246378326416016e-05, 4.4375) (6.548397827148438e-05, 4.439453125) (6.850764465332031e-05, 4.44140625) (7.156475830078125e-05, 4.443359375) (7.470707702636718e-05, 4.4453125) (7.797481536865234e-05, 4.447265625) (8.138424682617187e-05, 4.44921875) (8.492869567871094e-05, 4.451171875) (8.858195495605469e-05, 4.453125) (9.231874084472655e-05, 4.455078125) (9.610606384277344e-05, 4.45703125) (9.989834594726562e-05, 4.458984375) (0.00010363414001464844, 4.4609375) (0.00010723065185546875, 4.462890625) (0.0001106143798828125, 4.46484375) (0.00011373693847656249, 4.466796875) (0.00011656683349609374, 4.46875) (0.00011906849670410156, 4.470703125) (0.00012118971252441406, 4.47265625) (0.00012284960174560545, 4.474609375) (0.0001239420394897461, 4.4765625) (0.0001243879928588867, 4.478515625) (0.00012414292907714843, 4.48046875) (0.00012318431854248046, 4.482421875) (0.00012151171875, 4.484375) (0.00011913130187988281, 4.486328125) (0.00011607118225097655, 4.48828125) (0.00011240163421630859, 4.490234375) (0.00010823812866210937, 4.4921875) (0.00010371159362792969, 4.494140625) (9.892325592041015e-05, 4.49609375) (9.392821502685546e-05, 4.498046875) (8.875230407714844e-05, 4.5) (8.344867706298828e-05, 4.501953125) (7.811683654785156e-05, 4.50390625) (7.289306640625e-05, 4.505859375) (6.792414855957031e-05, 4.5078125) (6.33039207458496e-05, 4.509765625) (5.907643127441406e-05, 4.51171875) (5.530891799926758e-05, 4.513671875) (5.210138320922851e-05, 4.515625) (4.94938850402832e-05, 4.517578125) (4.7406654357910156e-05, 4.51953125) (4.5613162994384766e-05, 4.521484375) (4.3821857452392576e-05, 4.5234375) (4.1872116088867186e-05, 4.525390625) (3.9822593688964844e-05, 4.52734375) (3.7792388916015624e-05, 4.529296875) (3.5781913757324216e-05, 4.53125) (3.380254364013672e-05, 4.533203125) (3.1998785018920895e-05, 4.53515625) (3.0703285217285154e-05, 4.537109375) (3.0306331634521484e-05, 4.5390625) (3.0966503143310545e-05, 4.541015625) (3.2420562744140625e-05, 4.54296875) (3.422163391113281e-05, 4.544921875) (3.623232269287109e-05, 4.546875) (3.8391010284423824e-05, 4.548828125) (4.0473770141601564e-05, 4.55078125) (4.210480499267578e-05, 4.552734375) (4.285221862792969e-05, 4.5546875) (4.2507106781005856e-05, 4.556640625) (4.1324066162109373e-05, 4.55859375) (3.9744323730468747e-05, 4.560546875) (3.767449951171875e-05, 4.5625) (3.491465759277344e-05, 4.564453125) (3.1598802566528316e-05, 4.56640625) (2.8019405364990233e-05, 4.568359375) (2.458106231689453e-05, 4.5703125) (2.1611568450927734e-05, 4.572265625) (1.9245304107666013e-05, 4.57421875) (1.774574279785156e-05, 4.576171875) (1.8201494216918943e-05, 4.578125) (2.2014104843139646e-05, 4.580078125) (3.0096153259277344e-05, 4.58203125) (4.312892150878906e-05, 4.583984375) (6.1884033203125e-05, 4.5859375) (8.729667663574219e-05, 4.587890625) (0.00012022074890136719, 4.58984375) (0.00016096031188964844, 4.591796875) (0.00020759506225585936, 4.59375) (0.0002563655090332031, 4.595703125) (0.00030443353271484376, 4.59765625) (0.00035001562499999996, 4.599609375) (0.0003941018676757812, 4.6015625) (0.00043947113037109373, 4.603515625) (0.00048509979248046874, 4.60546875) (0.0005256883544921875, 4.607421875) (0.0005514547119140625, 4.609375) (0.0005504259033203124, 4.611328125) (0.0005166841430664063, 4.61328125) (0.0004529344787597656, 4.615234375) (0.0003685715026855469, 4.6171875) (0.0002786491088867187, 4.619140625) (0.00019701341247558592, 4.62109375) (0.0001309048309326172, 4.623046875) (8.399720764160156e-05, 4.625) (5.428965377807617e-05, 4.626953125) (3.564559173583984e-05, 4.62890625) (2.4356460571289063e-05, 4.630859375) (1.690182876586914e-05, 4.6328125) (1.1992055892944335e-05, 4.634765625) (1.1695915222167969e-05, 4.63671875) (1.6144651412963867e-05, 4.638671875) (2.4316158294677732e-05, 4.640625) (3.422751998901367e-05, 4.642578125) (4.2704853057861325e-05, 4.64453125) (4.8233337402343746e-05, 4.646484375) (5.0723640441894527e-05, 4.6484375) (5.0714080810546876e-05, 4.650390625) (4.93525161743164e-05, 4.65234375) (4.7514476776123044e-05, 4.654296875) (4.597792816162109e-05, 4.65625) (4.56386489868164e-05, 4.658203125) (4.695683670043945e-05, 4.66015625) (5.001639938354492e-05, 4.662109375) (5.459201049804687e-05, 4.6640625) (6.015815734863281e-05, 4.666015625) (6.622195434570312e-05, 4.66796875) (7.238733673095703e-05, 4.669921875) (7.822105407714843e-05, 4.671875) (8.331544494628905e-05, 4.673828125) (8.742769622802734e-05, 4.67578125) (9.045587921142578e-05, 4.677734375) (9.24422836303711e-05, 4.6796875) (9.353714752197265e-05, 4.681640625) (9.387522125244141e-05, 4.68359375) (9.357825469970702e-05, 4.685546875) (9.277729034423827e-05, 4.6875) (9.160449981689452e-05, 4.689453125) (9.01859130859375e-05, 4.69140625) (8.863784790039062e-05, 4.693359375) (8.707665252685547e-05, 4.6953125) (8.560987854003906e-05, 4.697265625) (8.432102203369141e-05, 4.69921875) (8.32726821899414e-05, 4.701171875) (8.250611114501952e-05, 4.703125) (8.204114532470703e-05, 4.705078125) (8.18910675048828e-05, 4.70703125) (8.205903625488281e-05, 4.708984375) (8.252384948730469e-05, 4.7109375) (8.325151824951171e-05, 4.712890625) (8.420759582519531e-05, 4.71484375) (8.535540008544921e-05, 4.716796875) (8.666604614257812e-05, 4.71875) (8.811439514160156e-05, 4.720703125) (8.966307067871093e-05, 4.72265625) (9.127012634277343e-05, 4.724609375) (9.289030456542968e-05, 4.7265625) (9.447699737548828e-05, 4.728515625) (9.600103759765625e-05, 4.73046875) (9.74473648071289e-05, 4.732421875) (9.880620574951171e-05, 4.734375) (0.00010007641601562499, 4.736328125) (0.00010126231384277343, 4.73828125) (0.00010237239074707031, 4.740234375) (0.00010342619323730468, 4.7421875) (0.00010444937133789061, 4.744140625) (0.00010546212768554687, 4.74609375) (0.00010648184967041015, 4.748046875) (0.0001075234375, 4.75) (0.00010859887695312499, 4.751953125) (0.00010972469329833983, 4.75390625) (0.00011091931915283202, 4.755859375) (0.00011219923400878906, 4.7578125) (0.0001135804672241211, 4.759765625) (0.00011507652282714843, 4.76171875) (0.00011669819641113281, 4.763671875) (0.00011845606994628906, 4.765625) (0.00012035928344726562, 4.767578125) (0.00012241381835937498, 4.76953125) (0.00012462376403808592, 4.771484375) (0.00012699076843261718, 4.7734375) (0.00012951425170898436, 4.775390625) (0.00013219453430175781, 4.77734375) (0.00013503184509277343, 4.779296875) (0.00013802517700195311, 4.78125) (0.00014117274475097656, 4.783203125) (0.0001444710998535156, 4.78515625) (0.00014791493225097655, 4.787109375) (0.00015149809265136717, 4.7890625) (0.0001552130889892578, 4.791015625) (0.00015905009460449217, 4.79296875) (0.00016299742126464842, 4.794921875) (0.000167041748046875, 4.796875) (0.00017116822814941405, 4.798828125) (0.00017536117553710936, 4.80078125) (0.00017960406494140624, 4.802734375) (0.00018387918090820312, 4.8046875) (0.00018816806030273435, 4.806640625) (0.00019245172119140624, 4.80859375) (0.00019671081542968748, 4.810546875) (0.0002009257354736328, 4.8125) (0.00020507675170898437, 4.814453125) (0.00020914373779296874, 4.81640625) (0.00021310659790039062, 4.818359375) (0.00021694554138183592, 4.8203125) (0.00022064108276367186, 4.822265625) (0.00022417405700683594, 4.82421875) (0.0002275258331298828, 4.826171875) (0.00023067811584472656, 4.828125) (0.0002336133575439453, 4.830078125) (0.00023631491088867186, 4.83203125) (0.00023876707458496093, 4.833984375) (0.00024095518493652342, 4.8359375) (0.00024286569213867186, 4.837890625) (0.0002444862060546875, 4.83984375) (0.00024580560302734375, 4.841796875) (0.0002468143768310547, 4.84375) (0.0002475044555664062, 4.845703125) (0.00024786932373046876, 4.84765625) (0.00024790399169921873, 4.849609375) (0.00024760507202148434, 4.8515625) (0.00024697079467773437, 4.853515625) (0.00024600115966796877, 4.85546875) (0.00024469812011718747, 4.857421875) (0.00024306510925292967, 4.859375) (0.00024110734558105467, 4.861328125) (0.0002388314971923828, 4.86328125) (0.00023624560546874998, 4.865234375) (0.00023335919189453123, 4.8671875) (0.00023018312072753906, 4.869140625) (0.00022672917175292967, 4.87109375) (0.00022301007080078125, 4.873046875) (0.00021903945922851562, 4.875) (0.00021483163452148436, 4.876953125) (0.0002104016418457031, 4.87890625) (0.00020576519775390625, 4.880859375) (0.00020093850708007813, 4.8828125) (0.00019593820190429688, 4.884765625) (0.00019078134155273437, 4.88671875) (0.00018548524475097656, 4.888671875) (0.00018006756591796875, 4.890625) (0.00017454614257812498, 4.892578125) (0.00016893875122070312, 4.89453125) (0.00016326312255859375, 4.896484375) (0.00015753677368164062, 4.8984375) (0.0001517769775390625, 4.900390625) (0.00014600065612792968, 4.90234375) (0.00014022428894042968, 4.904296875) (0.00013446380615234375, 4.90625) (0.00012873458862304687, 4.908203125) (0.00012305130004882812, 4.91015625) (0.00011742799377441406, 4.912109375) (0.00011187797546386718, 4.9140625) (0.00010641370391845702, 4.916015625) (0.00010104675292968749, 4.91796875) (9.578768920898437e-05, 4.919921875) (9.064604187011718e-05, 4.921875) (8.563037109375e-05, 4.923828125) (8.074818420410156e-05, 4.92578125) (7.600599670410156e-05, 4.927734375) (7.140928649902343e-05, 4.9296875) (6.696259307861328e-05, 4.931640625) (6.266957473754882e-05, 4.93359375) (5.853306579589844e-05, 4.935546875) (5.4555145263671875e-05, 4.9375) (5.073711013793945e-05, 4.939453125) (4.7079505920410154e-05, 4.94140625) (4.358211517333984e-05, 4.943359375) (4.024397277832031e-05, 4.9453125) (3.7063407897949217e-05, 4.947265625) (3.403804779052734e-05, 4.94921875) (3.1164825439453126e-05, 4.951171875) (2.8440006256103514e-05, 4.953125) (2.5859243392944336e-05, 4.955078125) (2.3417648315429688e-05, 4.95703125) (2.1109867095947263e-05, 4.958984375) (1.8930147171020508e-05, 4.9609375) (1.687233352661133e-05, 4.962890625) (1.4929915428161621e-05, 4.96484375) (1.3096052169799804e-05, 4.966796875) (1.1363630294799805e-05, 4.96875) (9.725314140319823e-06, 4.970703125) (8.173583030700683e-06, 4.97265625) (6.700767040252685e-06, 4.974609375) (5.299101829528808e-06, 4.9765625) (3.96081805229187e-06, 4.978515625) (2.6782412528991697e-06, 4.98046875) (1.443889856338501e-06, 4.982421875) (2.50532865524292e-07, 4.984375) (-9.087788462638855e-07, 4.986328125) (-2.040694713592529e-06, 4.98828125) (-3.1515307426452635e-06, 4.990234375) (-4.247241973876953e-06, 4.9921875) (-5.333409786224365e-06, 4.994140625) (-6.415251731872558e-06, 4.99609375) (-7.4976501464843745e-06, 4.998046875) (-8.585156440734863e-06, 5.0) (-9.681962966918946e-06, 5.001953125) (-1.0791854858398437e-05, 5.00390625) (-1.191818618774414e-05, 5.005859375) (-1.3063876152038573e-05, 5.0078125) (-1.423143196105957e-05, 5.009765625) (-1.5422959327697754e-05, 5.01171875) (-1.6640155792236327e-05, 5.013671875) (-1.7884296417236327e-05, 5.015625) (-1.9156236648559568e-05, 5.017578125) (-2.0456432342529296e-05, 5.01953125) (-2.1784997940063474e-05, 5.021484375) (-2.3141677856445312e-05, 5.0234375) (-2.4525842666625975e-05, 5.025390625) (-2.5936439514160154e-05, 5.02734375) (-2.737199592590332e-05, 5.029296875) (-2.8830596923828123e-05, 5.03125) (-3.0309940338134765e-05, 5.033203125) (-3.180746269226074e-05, 5.03515625) (-3.3320251464843746e-05, 5.037109375) (-3.4845123291015624e-05, 5.0390625) (-3.6378723144531245e-05, 5.041015625) (-3.791726303100586e-05, 5.04296875) (-3.945680236816406e-05, 5.044921875) (-4.09937629699707e-05, 5.046875) (-4.2524475097656245e-05, 5.048828125) (-4.4044952392578126e-05, 5.05078125) (-4.555162048339844e-05, 5.052734375) (-4.703993606567383e-05, 5.0546875) (-4.850521087646484e-05, 5.056640625) (-4.9945724487304686e-05, 5.05859375) (-5.135977172851562e-05, 5.060546875) (-5.274452590942383e-05, 5.0625) (-5.4098178863525387e-05, 5.064453125) (-5.541725158691406e-05, 5.06640625) (-5.669638442993164e-05, 5.068359375) (-5.793757629394531e-05, 5.0703125) (-5.914369964599609e-05, 5.072265625) (-6.03043212890625e-05, 5.07421875) (-6.141141128540039e-05, 5.076171875) (-6.245867919921875e-05, 5.078125) (-6.343615722656249e-05, 5.080078125) (-6.435134124755859e-05, 5.08203125) (-6.521914672851562e-05, 5.083984375) (-6.602714538574218e-05, 5.0859375) (-6.676239013671874e-05, 5.087890625) (-6.745559692382813e-05, 5.08984375) (-6.813031005859375e-05, 5.091796875) (-6.880548095703124e-05, 5.09375) (-6.951057434082031e-05, 5.095703125) (-7.022421264648438e-05, 5.09765625) (-7.090208435058593e-05, 5.099609375) (-7.157235717773437e-05, 5.1015625) (-7.228425598144531e-05, 5.103515625) (-7.291901397705078e-05, 5.10546875) (-7.333621215820312e-05, 5.107421875) (-7.362544250488281e-05, 5.109375) (-7.378192901611328e-05, 5.111328125) (-7.378233337402343e-05, 5.11328125) (-7.393999481201171e-05, 5.115234375) (-7.342447662353515e-05, 5.1171875) (-7.142794799804688e-05, 5.119140625) (-6.91139144897461e-05, 5.12109375) (-6.683769989013672e-05, 5.123046875) (-6.673339843749999e-05, 5.125) (-7.135472106933594e-05, 5.126953125) (-7.788259887695313e-05, 5.12890625) (-8.4439208984375e-05, 5.130859375) (-8.822665405273437e-05, 5.1328125) (-8.540014648437499e-05, 5.134765625) (-7.936650085449218e-05, 5.13671875) (-7.301399993896484e-05, 5.138671875) (-6.832266235351562e-05, 5.140625) (-6.856246948242188e-05, 5.142578125) (-7.14002685546875e-05, 5.14453125) (-7.447113037109375e-05, 5.146484375) (-7.725117492675781e-05, 5.1484375) (-7.829964447021484e-05, 5.150390625) (-7.8456298828125e-05, 5.15234375) (-7.880012512207032e-05, 5.154296875) (-7.912738800048828e-05, 5.15625) (-7.957670593261718e-05, 5.158203125) (-8.007682800292969e-05, 5.16015625) (-8.041001892089843e-05, 5.162109375) (-8.071924591064453e-05, 5.1640625) (-8.11186065673828e-05, 5.166015625) (-8.156951904296875e-05, 5.16796875) (-8.206251525878906e-05, 5.169921875) (-8.260964965820312e-05, 5.171875) (-8.320592498779296e-05, 5.173828125) (-8.38408203125e-05, 5.17578125) (-8.450751495361328e-05, 5.177734375) (-8.518232727050781e-05, 5.1796875) (-8.583753967285156e-05, 5.181640625) (-8.647999572753906e-05, 5.18359375) (-8.71162109375e-05, 5.185546875) (-8.773886871337891e-05, 5.1875) (-8.834530639648436e-05, 5.189453125) (-8.893148803710938e-05, 5.19140625) (-8.949176025390624e-05, 5.193359375) (-9.002525329589844e-05, 5.1953125) (-9.053118896484375e-05, 5.197265625) (-9.100399780273437e-05, 5.19921875) (-9.143839263916015e-05, 5.201171875) (-9.183020782470702e-05, 5.203125) (-9.217478179931641e-05, 5.205078125) (-9.246825408935547e-05, 5.20703125) (-9.270693969726561e-05, 5.208984375) (-9.288665771484375e-05, 5.2109375) (-9.300335693359374e-05, 5.212890625) (-9.305323028564452e-05, 5.21484375) (-9.303269958496094e-05, 5.216796875) (-9.293861389160156e-05, 5.21875) (-9.27680206298828e-05, 5.220703125) (-9.251823425292969e-05, 5.22265625) (-9.218692016601562e-05, 5.224609375) (-9.177212524414062e-05, 5.2265625) (-9.127241516113281e-05, 5.228515625) (-9.068680572509765e-05, 5.23046875) (-9.001465606689453e-05, 5.232421875) (-8.925552368164063e-05, 5.234375) (-8.840937805175781e-05, 5.236328125) (-8.747653198242187e-05, 5.23828125) (-8.645774841308593e-05, 5.240234375) (-8.535408782958984e-05, 5.2421875) (-8.416673278808593e-05, 5.244140625) (-8.289698791503905e-05, 5.24609375) (-8.154640197753906e-05, 5.248046875) (-8.01167984008789e-05, 5.25) (-7.861038208007811e-05, 5.251953125) (-7.702968597412109e-05, 5.25390625) (-7.537727355957031e-05, 5.255859375) (-7.365559387207031e-05, 5.2578125) (-7.18678741455078e-05, 5.259765625) (-7.001797485351562e-05, 5.26171875) (-6.810990905761718e-05, 5.263671875) (-6.614837646484375e-05, 5.265625) (-6.41375503540039e-05, 5.267578125) (-6.208061599731445e-05, 5.26953125) (-5.998398971557617e-05, 5.271484375) (-5.785713958740234e-05, 5.2734375) (-5.570841979980468e-05, 5.275390625) (-5.35461196899414e-05, 5.27734375) (-5.1377384185791015e-05, 5.279296875) (-4.92050666809082e-05, 5.28125) (-4.703778076171875e-05, 5.283203125) (-4.4892135620117184e-05, 5.28515625) (-4.277086639404297e-05, 5.287109375) (-4.066562271118164e-05, 5.2890625) (-3.857208251953125e-05, 5.291015625) (-3.6483673095703126e-05, 5.29296875) (-3.44090347290039e-05, 5.294921875) (-3.2382598876953124e-05, 5.296875) (-3.0416650772094726e-05, 5.298828125) (-2.8494998931884763e-05, 5.30078125) (-2.6647182464599607e-05, 5.302734375) (-2.4937774658203122e-05, 5.3046875) (-2.3418340682983396e-05, 5.306640625) (-2.2145687103271485e-05, 5.30859375) (-2.113046646118164e-05, 5.310546875) (-2.030611228942871e-05, 5.3125) (-1.965947151184082e-05, 5.314453125) (-1.9271604537963867e-05, 5.31640625) (-1.9065563201904297e-05, 5.318359375) (-1.8773670196533203e-05, 5.3203125) (-1.8350040435791016e-05, 5.322265625) (-1.7875343322753904e-05, 5.32421875) (-1.731560707092285e-05, 5.326171875) (-1.6976282119750976e-05, 5.328125) (-1.627682876586914e-05, 5.330078125) (-1.3522686958312988e-05, 5.33203125) (-9.14057445526123e-06, 5.333984375) (-4.652358531951904e-06, 5.3359375) (-2.676464796066284e-06, 5.337890625) (-8.049592971801757e-06, 5.33984375) (-2.0300323486328123e-05, 5.341796875) (-3.462622833251953e-05, 5.34375) (-4.617591094970703e-05, 5.345703125) (-4.806211471557617e-05, 5.34765625) (-4.009025573730468e-05, 5.349609375) (-2.8719697952270507e-05, 5.3515625) (-1.8923725128173827e-05, 5.353515625) (-1.614599609375e-05, 5.35546875) (-2.1124076843261717e-05, 5.357421875) (-2.8979850769042968e-05, 5.359375) (-3.676651000976562e-05, 5.361328125) (-4.238883590698242e-05, 5.36328125) (-4.5281982421875e-05, 5.365234375) (-4.7409515380859374e-05, 5.3671875) (-4.959457015991211e-05, 5.369140625) (-5.174665069580078e-05, 5.37109375) (-5.388164138793945e-05, 5.373046875) (-5.564303207397461e-05, 5.375) (-5.692583084106445e-05, 5.376953125) (-5.796790313720703e-05, 5.37890625) (-5.882875061035156e-05, 5.380859375) (-5.9456794738769526e-05, 5.3828125) (-5.986565399169922e-05, 5.384765625) (-6.0076549530029295e-05, 5.38671875) (-6.010830688476562e-05, 5.388671875) (-6.001752090454101e-05, 5.390625) (-5.986695098876953e-05, 5.392578125) (-5.971943664550781e-05, 5.39453125) (-5.9657196044921875e-05, 5.396484375) (-5.977702713012695e-05, 5.3984375) (-6.016348266601562e-05, 5.400390625) (-6.092060852050781e-05, 5.40234375) (-6.222850799560546e-05, 5.404296875) (-6.422439575195313e-05, 5.40625) (-6.691831970214843e-05, 5.408203125) (-7.017460632324218e-05, 5.41015625) (-7.371930694580078e-05, 5.412109375) (-7.728783416748046e-05, 5.4140625) (-8.068800354003905e-05, 5.416015625) (-8.368019104003907e-05, 5.41796875) (-8.58741455078125e-05, 5.419921875) (-8.698861694335937e-05, 5.421875) (-8.70492172241211e-05, 5.423828125) (-8.649835205078125e-05, 5.42578125) (-8.619166564941406e-05, 5.427734375) (-8.684073638916016e-05, 5.4296875) (-8.906205749511718e-05, 5.431640625) (-9.356034851074219e-05, 5.43359375) (-0.00010076077270507812, 5.435546875) (-0.00011085143280029296, 5.4375) (-0.00012257618713378907, 5.439453125) (-0.0001328481750488281, 5.44140625) (-0.0001395810546875, 5.443359375) (-0.0001415089111328125, 5.4453125) (-0.00013870443725585936, 5.447265625) (-0.00013341085815429688, 5.44921875) (-0.00012320834350585937, 5.451171875) (-0.00010246011352539062, 5.453125) (-6.658509063720702e-05, 5.455078125) (-1.0380659103393554e-05, 5.45703125) (6.337699508666992e-05, 5.458984375) (0.00014468899536132813, 5.4609375) (0.00022446461486816404, 5.462890625) (0.00029263653564453126, 5.46484375) (0.00034386572265625, 5.466796875) (0.00037877496337890623, 5.46875) (0.00039739828491210935, 5.470703125) (0.000400303466796875, 5.47265625) (0.0003875904541015625, 5.474609375) (0.00035816021728515623, 5.4765625) (0.00031326647949218747, 5.478515625) (0.0002561845397949219, 5.48046875) (0.00019105711364746092, 5.482421875) (0.0001227928466796875, 5.484375) (5.523365783691406e-05, 5.486328125) (-8.586528778076171e-06, 5.48828125) (-6.546592712402344e-05, 5.490234375) (-0.00011290472412109375, 5.4921875) (-0.00014921774291992186, 5.494140625) (-0.00017373257446289062, 5.49609375) (-0.00018734494018554686, 5.498046875) (-0.0001918400421142578, 5.5) (-0.00018865447998046874, 5.501953125) (-0.00017939724731445313, 5.50390625) (-0.0001661688995361328, 5.505859375) (-0.00015087890625, 5.5078125) (-0.00013572872924804688, 5.509765625) (-0.0001226190185546875, 5.51171875) (-0.0001120851593017578, 5.513671875) (-0.0001039865264892578, 5.515625) (-9.830564880371094e-05, 5.517578125) (-9.480081176757812e-05, 5.51953125) (-9.313623809814452e-05, 5.521484375) (-9.311199951171875e-05, 5.5234375) (-9.374806213378906e-05, 5.525390625) (-9.385858917236328e-05, 5.52734375) (-9.311264038085937e-05, 5.529296875) (-9.154506683349609e-05, 5.53125) (-8.926142883300781e-05, 5.533203125) (-8.652207946777344e-05, 5.53515625) (-8.332201385498046e-05, 5.537109375) (-7.942562866210937e-05, 5.5390625) (-7.520014953613281e-05, 5.541015625) (-7.132244873046875e-05, 5.54296875) (-6.810252380371093e-05, 5.544921875) (-6.569742584228516e-05, 5.546875) (-6.406702423095703e-05, 5.548828125) (-6.298295593261719e-05, 5.55078125) (-6.243543243408203e-05, 5.552734375) (-6.257682800292968e-05, 5.5546875) (-6.32981185913086e-05, 5.556640625) (-6.430242919921875e-05, 5.55859375) (-6.534597778320312e-05, 5.560546875) (-6.61933364868164e-05, 5.5625) (-6.674945831298828e-05, 5.564453125) (-6.706568145751953e-05, 5.56640625) (-6.712950134277344e-05, 5.568359375) (-6.688194274902343e-05, 5.5703125) (-6.630706787109374e-05, 5.572265625) (-6.542499542236327e-05, 5.57421875) (-6.428337860107422e-05, 5.576171875) (-6.295897674560546e-05, 5.578125) (-6.150106048583984e-05, 5.580078125) (-5.9919891357421873e-05, 5.58203125) (-5.822965240478515e-05, 5.583984375) (-5.644729232788086e-05, 5.5859375) (-5.4603561401367186e-05, 5.587890625) (-5.274637222290039e-05, 5.58984375) (-5.092105865478515e-05, 5.591796875) (-4.9166427612304686e-05, 5.59375) (-4.7505401611328124e-05, 5.595703125) (-4.594856262207031e-05, 5.59765625) (-4.45015983581543e-05, 5.599609375) (-4.3165550231933595e-05, 5.6015625) (-4.194165802001953e-05, 5.603515625) (-4.082534027099609e-05, 5.60546875) (-3.980051040649414e-05, 5.607421875) (-3.884564971923828e-05, 5.609375) (-3.7941131591796875e-05, 5.611328125) (-3.706915283203125e-05, 5.61328125) (-3.622178649902344e-05, 5.615234375) (-3.539442443847656e-05, 5.6171875) (-3.4562625885009766e-05, 5.619140625) (-3.369947433471679e-05, 5.62109375) (-3.2780414581298824e-05, 5.623046875) (-3.177641677856445e-05, 5.625) (-3.068075370788574e-05, 5.626953125) (-2.949944496154785e-05, 5.62890625) (-2.8209951400756836e-05, 5.630859375) (-2.6788803100585937e-05, 5.6328125) (-2.525516128540039e-05, 5.634765625) (-2.3618410110473633e-05, 5.63671875) (-2.1890533447265624e-05, 5.638671875) (-2.010319137573242e-05, 5.640625) (-1.822451972961426e-05, 5.642578125) (-1.6187908172607422e-05, 5.64453125) (-1.4000307083129881e-05, 5.646484375) (-1.1686135292053222e-05, 5.6484375) (-9.124479293823242e-06, 5.650390625) (-6.200033664703369e-06, 5.65234375) (-2.9966254234313962e-06, 5.654296875) (5.188908576965332e-07, 5.65625) (4.352107524871826e-06, 5.658203125) (8.148027420043945e-06, 5.66015625) (1.2655971527099609e-05, 5.662109375) (1.859865379333496e-05, 5.6640625) (2.4857046127319333e-05, 5.666015625) (3.115511512756348e-05, 5.66796875) (3.546464538574219e-05, 5.669921875) (3.526978302001953e-05, 5.671875) (3.333877563476562e-05, 5.673828125) (3.173965072631836e-05, 5.67578125) (3.320965957641601e-05, 5.677734375) (4.131958770751953e-05, 5.6796875) (5.281912612915039e-05, 5.681640625) (6.465411376953125e-05, 5.68359375) (7.545549774169922e-05, 5.685546875) (8.377783966064453e-05, 5.6875) (9.148612976074219e-05, 5.689453125) (9.920094299316406e-05, 5.69140625) (0.00010480615234375, 5.693359375) (0.00010477659606933593, 5.6953125) (9.851021575927734e-05, 5.697265625) (8.98870849609375e-05, 5.69921875) (8.393144226074218e-05, 5.701171875) (8.75714874267578e-05, 5.703125) (0.00010161493682861328, 5.705078125) (0.00011954796600341796, 5.70703125) (0.00013609674072265625, 5.708984375) (0.0001456786346435547, 5.7109375) (0.00014690457153320312, 5.712890625) (0.0001455387725830078, 5.71484375) (0.0001454414520263672, 5.716796875) (0.00014748175048828125, 5.71875) (0.000151980712890625, 5.720703125) (0.00015478173828124998, 5.72265625) (0.00015238717651367187, 5.724609375) (0.0001477214660644531, 5.7265625) (0.00014258065795898437, 5.728515625) (0.00014006144714355469, 5.73046875) (0.00014411170959472655, 5.732421875) (0.00015103526306152343, 5.734375) (0.00015784677124023436, 5.736328125) (0.00016260910034179686, 5.73828125) (0.00016203233337402342, 5.740234375) (0.00015844976806640625, 5.7421875) (0.0001542559814453125, 5.744140625) (0.00014999899291992186, 5.74609375) (0.00014716082763671876, 5.748046875) (0.00014495669555664062, 5.75) (0.00014233045959472656, 5.751953125) (0.00013947851562499998, 5.75390625) (0.0001362694396972656, 5.755859375) (0.00013279325866699218, 5.7578125) (0.00012928402709960936, 5.759765625) (0.00012561721801757813, 5.76171875) (0.0001216944580078125, 5.763671875) (0.0001175658187866211, 5.765625) (0.00011325717163085938, 5.767578125) (0.00010877774047851561, 5.76953125) (0.00010415226745605469, 5.771484375) (9.941044616699219e-05, 5.7734375) (9.457804870605468e-05, 5.775390625) (8.969664764404296e-05, 5.77734375) (8.481218719482422e-05, 5.779296875) (7.993608856201172e-05, 5.78125) (7.507951354980468e-05, 5.783203125) (7.0266845703125e-05, 5.78515625) (6.551708221435547e-05, 5.787109375) (6.084958267211914e-05, 5.7890625) (5.628450775146484e-05, 5.791015625) (5.183606338500976e-05, 5.79296875) (4.751720809936523e-05, 5.794921875) (4.334436798095703e-05, 5.796875) (3.933219528198242e-05, 5.798828125) (3.549264526367187e-05, 5.80078125) (3.1836742401123045e-05, 5.802734375) (2.837314987182617e-05, 5.8046875) (2.5108734130859372e-05, 5.806640625) (2.2049301147460937e-05, 5.80859375) (1.919890022277832e-05, 5.810546875) (1.6559913635253907e-05, 5.8125) (1.4133222579956055e-05, 5.814453125) (1.191817283630371e-05, 5.81640625) (9.912670135498047e-06, 5.818359375) (8.113248825073242e-06, 5.8203125) (6.515098571777344e-06, 5.822265625) (5.112136840820312e-06, 5.82421875) (3.897017002105713e-06, 5.826171875) (2.8611583709716796e-06, 5.828125) (1.9947941303253174e-06, 5.830078125) (1.2870330810546874e-06, 5.83203125) (7.259411811828613e-07, 5.833984375) (2.986552119255066e-07, 5.8359375) (-8.490525186061858e-09, 5.837890625) (-2.0982763171195984e-07, 5.83984375) (-3.2020086050033566e-07, 5.841796875) (-3.5481461882591245e-07, 5.84375) (-3.2909071445465085e-07, 5.845703125) (-2.5852710008621217e-07, 5.84765625) (-1.5857365727424621e-07, 5.849609375) (-4.4527497142553324e-08, 5.8515625) (6.857562810182571e-08, 5.853515625) (1.6607144474983216e-07, 5.85546875) (2.337745726108551e-07, 5.857421875) (2.580960988998413e-07, 5.859375) (2.261570245027542e-07, 5.861328125) (1.2588916718959807e-07, 5.86328125) (-5.385895073413849e-08, 5.865234375) (-3.232240080833435e-07, 5.8671875) (-6.91257894039154e-07, 5.869140625) (-1.1658806800842285e-06, 5.87109375) (-1.753871440887451e-06, 5.873046875) (-2.4608867168426514e-06, 5.875) (-3.291485071182251e-06, 5.876953125) (-4.249155521392822e-06, 5.87890625) (-5.336352825164795e-06, 5.880859375) (-6.5545229911804195e-06, 5.8828125) (-7.904130458831786e-06, 5.884765625) (-9.38468074798584e-06, 5.88671875) (-1.0994722366333007e-05, 5.888671875) (-1.2731840133666991e-05, 5.890625) (-1.4592660903930663e-05, 5.892578125) (-1.6572858810424804e-05, 5.89453125) (-1.8667194366455076e-05, 5.896484375) (-2.086958122253418e-05, 5.8984375) (-2.3173145294189454e-05, 5.900390625) (-2.557032012939453e-05, 5.90234375) (-2.8052909851074218e-05, 5.904296875) (-3.061220550537109e-05, 5.90625) (-3.3239059448242185e-05, 5.908203125) (-3.5923980712890625e-05, 5.91015625) (-3.865724182128906e-05, 5.912109375) (-4.142892074584961e-05, 5.9140625) (-4.422895812988281e-05, 5.916015625) (-4.704726409912109e-05, 5.91796875) (-4.9873744964599606e-05, 5.919921875) (-5.269847106933593e-05, 5.921875) (-5.551171493530273e-05, 5.923828125) (-5.8304069519042964e-05, 5.92578125) (-6.106653594970703e-05, 5.927734375) (-6.379058456420898e-05, 5.9296875) (-6.646824645996093e-05, 5.931640625) (-6.909215545654297e-05, 5.93359375) (-7.165557861328125e-05, 5.935546875) (-7.415239715576172e-05, 5.9375) (-7.657707214355469e-05, 5.939453125) (-7.892460632324219e-05, 5.94140625) (-8.119053649902343e-05, 5.943359375) (-8.337088012695313e-05, 5.9453125) (-8.5462158203125e-05, 5.947265625) (-8.746136474609374e-05, 5.94921875) (-8.936592102050781e-05, 5.951171875) (-9.117372894287109e-05, 5.953125) (-9.288310241699219e-05, 5.955078125) (-9.449291229248047e-05, 5.95703125) (-9.600253295898437e-05, 5.958984375) (-9.741188812255859e-05, 5.9609375) (-9.872132873535155e-05, 5.962890625) (-9.993162536621094e-05, 5.96484375) (-0.00010104393005371093, 5.966796875) (-0.00010205979156494141, 5.96875) (-0.0001029810791015625, 5.970703125) (-0.00010381002044677734, 5.97265625) (-0.00010454905700683593, 5.974609375) (-0.00010520082092285156, 5.9765625) (-0.00010576815795898437, 5.978515625) (-0.00010625413513183593, 5.98046875) (-0.00010666200256347656, 5.982421875) (-0.0001069951934814453, 5.984375) (-0.0001072571563720703, 5.986328125) (-0.00010745134735107421, 5.98828125) (-0.0001075810546875, 5.990234375) (-0.00010764948272705078, 5.9921875) (-0.00010765970611572265, 5.994140625) (-0.00010761452484130859, 5.99609375) (-0.00010751651763916015, 5.998046875) (-0.00010736796569824219, 6.0) (-0.00010717086029052734, 6.001953125) (-0.00010692713165283203, 6.00390625) (-0.00010663874816894531, 6.005859375) (-0.00010630758666992187, 6.0078125) (-0.00010593554687499999, 6.009765625) (-0.00010552449035644531, 6.01171875) (-0.00010507631683349609, 6.013671875) (-0.00010459307098388672, 6.015625) (-0.00010407699584960937, 6.017578125) (-0.00010353023529052734, 6.01953125) (-0.00010295469665527343, 6.021484375) (-0.00010235205841064452, 6.0234375) (-0.00010172392272949218, 6.025390625) (-0.00010107188415527343, 6.02734375) (-0.00010039749145507812, 6.029296875) (-9.970215606689453e-05, 6.03125) (-9.898715209960938e-05, 6.033203125) (-9.825357818603515e-05, 6.03515625) (-9.750263977050781e-05, 6.037109375) (-9.67356948852539e-05, 6.0390625) (-9.595413208007813e-05, 6.041015625) (-9.515916442871094e-05, 6.04296875) (-9.435186767578125e-05, 6.044921875) (-9.353306579589843e-05, 6.046875) (-9.270336151123047e-05, 6.048828125) (-9.186349487304688e-05, 6.05078125) (-9.101425170898436e-05, 6.052734375) (-9.015631103515624e-05, 6.0546875) (-8.9290283203125e-05, 6.056640625) (-8.841682434082031e-05, 6.05859375) (-8.753668212890624e-05, 6.060546875) (-8.665083312988281e-05, 6.0625) (-8.576042938232422e-05, 6.064453125) (-8.486631011962891e-05, 6.06640625) (-8.396871948242188e-05, 6.068359375) (-8.306752014160155e-05, 6.0703125) (-8.216230010986327e-05, 6.072265625) (-8.125216674804688e-05, 6.07421875) (-8.033549499511718e-05, 6.076171875) (-7.940975952148437e-05, 6.078125) (-7.847140502929687e-05, 6.080078125) (-7.751679229736328e-05, 6.08203125) (-7.654292297363281e-05, 6.083984375) (-7.554690551757813e-05, 6.0859375) (-7.452561950683594e-05, 6.087890625) (-7.347593688964843e-05, 6.08984375) (-7.239508819580077e-05, 6.091796875) (-7.128107452392578e-05, 6.09375) (-7.013294982910156e-05, 6.095703125) (-6.894938659667968e-05, 6.09765625) (-6.772746276855469e-05, 6.099609375) (-6.64627456665039e-05, 6.1015625) (-6.515000915527343e-05, 6.103515625) (-6.378420257568359e-05, 6.10546875) (-6.236023330688476e-05, 6.107421875) (-6.087260818481445e-05, 6.109375) (-5.9315032958984375e-05, 6.111328125) (-5.76806411743164e-05, 6.11328125) (-5.5963348388671874e-05, 6.115234375) (-5.4159965515136715e-05, 6.1171875) (-5.227006912231445e-05, 6.119140625) (-5.029207611083984e-05, 6.12109375) (-4.8223072052001954e-05, 6.123046875) (-4.605726623535156e-05, 6.125) (-4.378604125976562e-05, 6.126953125) (-4.140597534179687e-05, 6.12890625) (-3.8919227600097655e-05, 6.130859375) (-3.6330123901367186e-05, 6.1328125) (-3.3644256591796874e-05, 6.134765625) (-3.086941146850586e-05, 6.13671875) (-2.8018388748168945e-05, 6.138671875) (-2.5113386154174803e-05, 6.140625) (-2.2186994552612304e-05, 6.142578125) (-1.9270484924316407e-05, 6.14453125) (-1.638638687133789e-05, 6.146484375) (-1.3545621871948242e-05, 6.1484375) (-1.074998950958252e-05, 6.150390625) (-8.004402160644531e-06, 6.15234375) (-5.3138332366943355e-06, 6.154296875) (-2.684441804885864e-06, 6.15625) (-1.2218308448791503e-07, 6.158203125) (2.3805432319641112e-06, 6.16015625) (4.834207057952881e-06, 6.162109375) (7.241737365722656e-06, 6.1640625) (9.600818634033203e-06, 6.166015625) (1.1911540985107421e-05, 6.16796875) (1.4183662414550781e-05, 6.169921875) (1.644757652282715e-05, 6.171875) (1.8755056381225585e-05, 6.173828125) (2.1146694183349608e-05, 6.17578125) (2.3640869140625e-05, 6.177734375) (2.6234352111816405e-05, 6.1796875) (2.8904918670654295e-05, 6.181640625) (3.1630672454833984e-05, 6.18359375) (3.438138961791992e-05, 6.185546875) (3.7115333557128905e-05, 6.1875) (3.9775306701660154e-05, 6.189453125) (4.2280956268310544e-05, 6.19140625) (4.455758666992187e-05, 6.193359375) (4.655122375488281e-05, 6.1953125) (4.8224174499511714e-05, 6.197265625) (4.953959655761718e-05, 6.19921875) (5.0449867248535156e-05, 6.201171875) (5.088335418701172e-05, 6.203125) (5.0744606018066405e-05, 6.205078125) (4.995896911621094e-05, 6.20703125) (4.847875595092773e-05, 6.208984375) (4.62762336730957e-05, 6.2109375) (4.334542846679687e-05, 6.212890625) (3.968777847290039e-05, 6.21484375) (3.5325405120849605e-05, 6.216796875) (3.0307981491088866e-05, 6.21875) (2.472176742553711e-05, 6.220703125) (1.8682897567749022e-05, 6.22265625) (1.2299139022827147e-05, 6.224609375) (5.6626157760620115e-06, 6.2265625) (-1.152467131614685e-06, 6.228515625) (-8.076437950134278e-06, 6.23046875) (-1.5027454376220702e-05, 6.232421875) (-2.190493392944336e-05, 6.234375) (-2.8593925476074217e-05, 6.236328125) (-3.4995212554931636e-05, 6.23828125) (-4.102317810058594e-05, 6.240234375) (-4.6599853515625e-05, 6.2421875) (-5.165363693237304e-05, 6.244140625) (-5.613010025024414e-05, 6.24609375) (-6.001547241210937e-05, 6.248046875) (-6.332115936279297e-05, 6.25) (-6.610066986083985e-05, 6.251953125) (-6.843026733398437e-05, 6.25390625) (-7.035949707031249e-05, 6.255859375) (-7.195809173583984e-05, 6.2578125) (-7.331824493408203e-05, 6.259765625) (-7.450800323486328e-05, 6.26171875) (-7.56022720336914e-05, 6.263671875) (-7.670281982421875e-05, 6.265625) (-7.787558746337891e-05, 6.267578125) (-7.922868347167968e-05, 6.26953125) (-8.096632385253906e-05, 6.271484375) (-8.31597442626953e-05, 6.2734375) (-8.576238250732422e-05, 6.275390625) (-8.868378448486328e-05, 6.27734375) (-9.163349914550781e-05, 6.279296875) (-9.429672241210937e-05, 6.28125) (-9.64871826171875e-05, 6.283203125) (-9.783764648437499e-05, 6.28515625) (-9.785443878173828e-05, 6.287109375) (-9.649581146240234e-05, 6.2890625) (-9.406021118164062e-05, 6.291015625) (-9.102333068847656e-05, 6.29296875) (-8.829106140136718e-05, 6.294921875) (-8.681371307373046e-05, 6.296875) (-8.732585144042968e-05, 6.298828125) (-9.067817687988281e-05, 6.30078125) (-9.778638458251953e-05, 6.302734375) (-0.00010776367950439453, 6.3046875) (-0.00011795048522949219, 6.306640625) (-0.00012691676330566407, 6.30859375) (-0.00013339643859863282, 6.310546875) (-0.000137060546875, 6.3125) (-0.00013996969604492186, 6.314453125) (-0.00013923489379882812, 6.31640625) (-0.0001280327606201172, 6.318359375) (-0.00010205725097656249, 6.3203125) (-5.733985137939453e-05, 6.322265625) (4.881401538848877e-06, 6.32421875) (7.63012466430664e-05, 6.326171875) (0.0001504327697753906, 6.328125) (0.0002222629699707031, 6.330078125) (0.00028530670166015623, 6.33203125) (0.0003345076904296875, 6.333984375) (0.0003656820373535156, 6.3359375) (0.000373899658203125, 6.337890625) (0.00035811166381835937, 6.33984375) (0.000322271728515625, 6.341796875) (0.0002697196044921875, 6.34375) (0.00020391635131835936, 6.345703125) (0.00013101123046874998, 6.34765625) (5.639931488037109e-05, 