(3.212208557128906e-05, 0.0) (4.7440128326416015e-05, 0.001953125) (5.728794860839843e-05, 0.00390625) (6.371705627441406e-05, 0.005859375) (6.883500671386719e-05, 0.0078125) (7.306040954589844e-05, 0.009765625) (7.76950225830078e-05, 0.01171875) (8.1893310546875e-05, 0.013671875) (8.462835693359374e-05, 0.015625) (8.611729431152344e-05, 0.017578125) (8.628480529785156e-05, 0.01953125) (8.529972076416016e-05, 0.021484375) (8.346575927734374e-05, 0.0234375) (8.07415771484375e-05, 0.025390625) (7.714972686767578e-05, 0.02734375) (7.28676528930664e-05, 0.029296875) (6.806996154785156e-05, 0.03125) (6.294423675537109e-05, 0.033203125) (5.765389251708984e-05, 0.03515625) (5.2327735900878906e-05, 0.037109375) (4.707796478271484e-05, 0.0390625) (4.200132751464844e-05, 0.041015625) (3.718743896484375e-05, 0.04296875) (3.2692367553710935e-05, 0.044921875) (2.8539108276367187e-05, 0.046875) (2.473493957519531e-05, 0.048828125) (2.1271762847900388e-05, 0.05078125) (1.8123889923095704e-05, 0.052734375) (1.527047824859619e-05, 0.0546875) (1.2694138526916503e-05, 0.056640625) (1.0353759765624999e-05, 0.05859375) (8.199259757995606e-06, 0.060546875) (6.166343212127685e-06, 0.0625) (4.171470642089844e-06, 0.064453125) (2.156520366668701e-06, 0.06640625) (8.838246017694472e-08, 0.068359375) (-2.061582565307617e-06, 0.0703125) (-4.309144496917724e-06, 0.072265625) (-6.6645078659057615e-06, 0.07421875) (-9.138033866882324e-06, 0.076171875) (-1.1722692489624022e-05, 0.078125) (-1.4395425796508788e-05, 0.080078125) (-1.713625144958496e-05, 0.08203125) (-1.9925437927246092e-05, 0.083984375) (-2.274616813659668e-05, 0.0859375) (-2.5588090896606444e-05, 0.087890625) (-2.8431625366210936e-05, 0.08984375) (-3.1250305175781246e-05, 0.091796875) (-3.4015712738037107e-05, 0.09375) (-3.669637298583984e-05, 0.095703125) (-3.927099990844726e-05, 0.09765625) (-4.172898864746093e-05, 0.099609375) (-4.406168746948242e-05, 0.1015625) (-4.6264091491699216e-05, 0.103515625) (-4.8334980010986325e-05, 0.10546875) (-5.027503204345703e-05, 0.107421875) (-5.209165191650391e-05, 0.109375) (-5.3798431396484374e-05, 0.111328125) (-5.540542602539062e-05, 0.11328125) (-5.69199104309082e-05, 0.115234375) (-5.834855270385742e-05, 0.1171875) (-5.969618225097656e-05, 0.119140625) (-6.097031784057617e-05, 0.12109375) (-6.21807746887207e-05, 0.123046875) (-6.333647918701172e-05, 0.125) (-6.444575500488282e-05, 0.126953125) (-6.55157012939453e-05, 0.12890625) (-6.655210876464843e-05, 0.130859375) (-6.756056213378906e-05, 0.1328125) (-6.854618072509765e-05, 0.134765625) (-6.95124282836914e-05, 0.13671875) (-7.046141815185547e-05, 0.138671875) (-7.139376831054687e-05, 0.140625) (-7.230867004394531e-05, 0.142578125) (-7.32058868408203e-05, 0.14453125) (-7.40854263305664e-05, 0.146484375) (-7.494672393798827e-05, 0.1484375) (-7.578897857666015e-05, 0.150390625) (-7.661066436767578e-05, 0.15234375) (-7.740961456298827e-05, 0.154296875) (-7.818363189697265e-05, 0.15625) (-7.893033599853515e-05, 0.158203125) (-7.964645385742188e-05, 0.16015625) (-8.032799530029297e-05, 0.162109375) (-8.097048950195312e-05, 0.1640625) (-8.156906127929687e-05, 0.166015625) (-8.211886596679688e-05, 0.16796875) (-8.261495971679687e-05, 0.169921875) (-8.305217742919921e-05, 0.171875) (-8.34252700805664e-05, 0.173828125) (-8.372914123535156e-05, 0.17578125) (-8.395895385742187e-05, 0.177734375) (-8.41101303100586e-05, 0.1796875) (-8.417813873291015e-05, 0.181640625) (-8.415852355957031e-05, 0.18359375) (-8.404698944091797e-05, 0.185546875) (-8.383959197998047e-05, 0.1875) (-8.353270721435546e-05, 0.189453125) (-8.312295532226562e-05, 0.19140625) (-8.260713195800781e-05, 0.193359375) (-8.198225402832031e-05, 0.1953125) (-8.124585723876952e-05, 0.197265625) (-8.039634704589843e-05, 0.19921875) (-7.943279266357422e-05, 0.201171875) (-7.835499572753905e-05, 0.203125) (-7.716368103027343e-05, 0.205078125) (-7.58604507446289e-05, 0.20703125) (-7.444796752929687e-05, 0.208984375) (-7.293014526367187e-05, 0.2109375) (-7.131147003173827e-05, 0.212890625) (-6.959679412841796e-05, 0.21484375) (-6.779164123535156e-05, 0.216796875) (-6.590191650390625e-05, 0.21875) (-6.39339370727539e-05, 0.220703125) (-6.18947296142578e-05, 0.22265625) (-5.979158020019531e-05, 0.224609375) (-5.7631801605224606e-05, 0.2265625) (-5.5423572540283204e-05, 0.228515625) (-5.317564010620117e-05, 0.23046875) (-5.0897228240966794e-05, 0.232421875) (-4.85982551574707e-05, 0.234375) (-4.628842163085937e-05, 0.236328125) (-4.39769287109375e-05, 0.23828125) (-4.16727066040039e-05, 0.240234375) (-3.9384025573730465e-05, 0.2421875) (-3.7118705749511714e-05, 0.244140625) (-3.488469696044922e-05, 0.24609375) (-3.268862533569336e-05, 0.248046875) (-3.053560256958007e-05, 0.25) (-2.843119430541992e-05, 0.251953125) (-2.6380342483520508e-05, 0.25390625) (-2.438846969604492e-05, 0.255859375) (-2.2462364196777343e-05, 0.2578125) (-2.0604618072509766e-05, 0.259765625) (-1.8813188552856445e-05, 0.26171875) (-1.7083772659301756e-05, 0.263671875) (-1.5408622741699217e-05, 0.265625) (-1.3776658058166503e-05, 0.267578125) (-1.217510986328125e-05, 0.26953125) (-1.0586111068725585e-05, 0.271484375) (-8.986601829528809e-06, 0.2734375) (-7.354914188385009e-06, 0.275390625) (-5.669398307800293e-06, 0.27734375) (-3.909540891647339e-06, 0.279296875) (-2.0576088428497313e-06, 0.28125) (-9.246861934661865e-08, 0.283203125) (2.0088067054748532e-06, 0.28515625) (4.270529270172119e-06, 0.287109375) (6.719977855682373e-06, 0.2890625) (9.37868881225586e-06, 0.291015625) (1.2260354042053222e-05, 0.29296875) (1.5376853942871093e-05, 0.294921875) (1.87366943359375e-05, 0.296875) (2.2340112686157226e-05, 0.298828125) (2.618220520019531e-05, 0.30078125) (3.0245853424072265e-05, 0.302734375) (3.4499153137207026e-05, 0.3046875) (3.891338348388672e-05, 0.306640625) (4.346134567260742e-05, 0.30859375) (4.811038970947265e-05, 0.310546875) (5.28242073059082e-05, 0.3125) (5.755947875976562e-05, 0.314453125) (6.226487731933594e-05, 0.31640625) (6.689241790771484e-05, 0.318359375) (7.140183258056641e-05, 0.3203125) (7.574407958984375e-05, 0.322265625) (7.986296081542969e-05, 0.32421875) (8.369754791259765e-05, 0.326171875) (8.717807769775391e-05, 0.328125) (9.025260162353515e-05, 0.330078125) (9.2903076171875e-05, 0.33203125) (9.510491180419922e-05, 0.333984375) (9.681924438476562e-05, 0.3359375) (9.806331634521483e-05, 0.337890625) (9.89137725830078e-05, 0.33984375) (9.95379638671875e-05, 0.341796875) (0.00010023703002929688, 0.34375) (0.00010129908752441406, 0.345703125) (0.00010293511199951172, 0.34765625) (0.00010542039489746093, 0.349609375) (0.0001090916290283203, 0.3515625) (0.00011417308044433593, 0.353515625) (0.000120797607421875, 0.35546875) (0.00012886782836914063, 0.357421875) (0.00013792741394042969, 0.359375) (0.00014756010437011718, 0.361328125) (0.00015749783325195313, 0.36328125) (0.0001673251953125, 0.365234375) (0.00017651141357421875, 0.3671875) (0.000184687744140625, 0.369140625) (0.00019161636352539062, 0.37109375) (0.0001972943420410156, 0.373046875) (0.00020223843383789062, 0.375) (0.00020695240783691405, 0.376953125) (0.0002116085662841797, 0.37890625) (0.00021776849365234374, 0.380859375) (0.00022827114868164062, 0.3828125) (0.00024516033935546877, 0.384765625) (0.00027039312744140623, 0.38671875) (0.00030219491577148435, 0.388671875) (0.00033460321044921876, 0.390625) (0.0003646021728515625, 0.392578125) (0.00039100030517578126, 0.39453125) (0.0004182432861328125, 0.396484375) (0.0004567862854003906, 0.3984375) (0.0005120159912109374, 0.400390625) (0.0005855523681640624, 0.40234375) (0.0006706583251953125, 0.404296875) (0.0007515503540039062, 0.40625) (0.0008131079101562499, 0.408203125) (0.000838825927734375, 0.41015625) (0.0008181913452148437, 0.412109375) (0.0007475260009765625, 0.4140625) (0.0006255916748046875, 0.416015625) (0.00045821948242187496, 0.41796875) (0.0002508027191162109, 0.419921875) (1.2526573181152344e-05, 0.421875) (-0.00023926815795898435, 0.423828125) (-0.00048404541015624995, 0.42578125) (-0.0006932073364257813, 0.427734375) (-0.0008404818725585938, 0.4296875) (-0.0009114869384765625, 0.431640625) (-0.0009040504760742187, 0.43359375) (-0.0008323862915039063, 0.435546875) (-0.0007194353027343749, 0.4375) (-0.0005899542236328124, 0.439453125) (-0.00046516265869140624, 0.44140625) (-0.00035928070068359374, 0.443359375) (-0.0002815204162597656, 0.4453125) (-0.00023223214721679685, 0.447265625) (-0.0002082126007080078, 0.44921875) (-0.00020343661499023436, 0.451171875) (-0.0002056968536376953, 0.453125) (-0.00020630624389648438, 0.455078125) (-0.000197859619140625, 0.45703125) (-0.00017541419982910155, 0.458984375) (-0.00014320166015625, 0.4609375) (-0.00010715142822265625, 0.462890625) (-7.42068862915039e-05, 0.46484375) (-5.0433998107910154e-05, 0.466796875) (-3.5600082397460936e-05, 0.46875) (-2.68203067779541e-05, 0.470703125) (-1.995930290222168e-05, 0.47265625) (-1.1750676155090332e-05, 0.474609375) (-1.950188875198364e-06, 0.4765625) (8.431362152099609e-06, 0.478515625) (1.7671117782592772e-05, 0.48046875) (2.467425727844238e-05, 0.482421875) (2.9533535003662106e-05, 0.484375) (3.256771850585937e-05, 0.486328125) (3.41641731262207e-05, 0.48828125) (3.454830932617188e-05, 0.490234375) (3.362594985961914e-05, 0.4921875) (3.1291183471679685e-05, 0.494140625) (2.7697067260742185e-05, 0.49609375) (2.3111555099487304e-05, 0.498046875) (1.7819982528686523e-05, 0.5) (1.2152506828308106e-05, 0.501953125) (6.381077289581298e-06, 0.50390625) (7.309885025024414e-07, 0.505859375) (-4.508198738098145e-06, 0.5078125) (-9.038763999938965e-06, 0.509765625) (-1.2688337326049805e-05, 0.51171875) (-1.5378758430480956e-05, 0.513671875) (-1.712620162963867e-05, 0.515625) (-1.8043058395385742e-05, 0.517578125) (-1.8241376876831054e-05, 0.51953125) (-1.7829921722412108e-05, 0.521484375) (-1.695492172241211e-05, 0.5234375) (-1.5781882286071778e-05, 0.525390625) (-1.446878433227539e-05, 0.52734375) (-1.3163904190063475e-05, 0.529296875) (-1.1978184700012207e-05, 0.53125) (-1.0979718208312988e-05, 0.533203125) (-1.0233238220214844e-05, 0.53515625) (-9.805500030517579e-06, 0.537109375) (-9.76508903503418e-06, 0.5390625) (-1.0181528091430663e-05, 0.541015625) (-1.1110393524169921e-05, 0.54296875) (-1.2581136703491211e-05, 0.544921875) (-1.4587018966674805e-05, 0.546875) (-1.7098989486694334e-05, 0.548828125) (-2.0078800201416014e-05, 0.55078125) (-2.347431182861328e-05, 0.552734375) (-2.722123336791992e-05, 0.5546875) (-3.1237628936767574e-05, 0.556640625) (-3.543006896972656e-05, 0.55859375) (-3.972152709960937e-05, 0.560546875) (-4.4069587707519526e-05, 0.5625) (-4.8461616516113276e-05, 0.564453125) (-5.2889312744140624e-05, 0.56640625) (-5.733619689941406e-05, 0.568359375) (-6.177405929565429e-05, 0.5703125) (-6.61696548461914e-05, 0.572265625) (-7.049822998046875e-05, 0.57421875) (-7.474224853515625e-05, 0.576171875) (-7.889228057861328e-05, 0.578125) (-8.293967437744141e-05, 0.580078125) (-8.687400817871093e-05, 0.58203125) (-9.06954345703125e-05, 0.583984375) (-9.441674041748046e-05, 0.5859375) (-9.806674194335938e-05, 0.587890625) (-0.00010168144989013672, 0.58984375) (-0.00010528121948242187, 0.591796875) (-0.00010886070251464843, 0.59375) (-0.000112395263671875, 0.595703125) (-0.00011586231994628906, 0.59765625) (-0.00011924811553955078, 0.599609375) (-0.00012254595947265625, 0.6015625) (-0.00012575086975097656, 0.603515625) (-0.00012885165405273437, 0.60546875) (-0.00013183856201171875, 0.607421875) (-0.00013470906066894532, 0.609375) (-0.00013746910095214842, 0.611328125) (-0.0001401272430419922, 0.61328125) (-0.0001426856231689453, 0.615234375) (-0.00014513848876953126, 0.6171875) (-0.0001474717254638672, 0.619140625) (-0.00014967071533203123, 0.62109375) (-0.00015172933959960936, 0.623046875) (-0.00015365158081054686, 0.625) (-0.00015544845581054687, 0.626953125) (-0.0001571285400390625, 0.62890625) (-0.00015869682312011718, 0.630859375) (-0.00016015728759765624, 0.6328125) (-0.0001615150451660156, 0.634765625) (-0.00016277810668945312, 0.63671875) (-0.00016395216369628906, 0.638671875) (-0.00016503643798828125, 0.640625) (-0.00016602470397949218, 0.642578125) (-0.00016691044616699217, 0.64453125) (-0.0001676902618408203, 0.646484375) (-0.00016836370849609373, 0.6484375) (-0.00016893286132812498, 0.650390625) (-0.00016939871215820312, 0.65234375) (-0.0001697603759765625, 0.654296875) (-0.00017001661682128905, 0.65625) (-0.00017016604614257812, 0.658203125) (-0.00017020848083496094, 0.66015625) (-0.00017014425659179686, 0.662109375) (-0.00016997332763671875, 0.6640625) (-0.00016969503784179687, 0.666015625) (-0.00016930868530273436, 0.66796875) (-0.00016881510925292968, 0.669921875) (-0.00016821708679199218, 0.671875) (-0.00016751901245117185, 0.673828125) (-0.0001667254180908203, 0.67578125) (-0.00016584042358398437, 0.677734375) (-0.00016486834716796875, 0.6796875) (-0.00016381388854980468, 0.681640625) (-0.00016268272399902342, 0.68359375) (-0.00016148092651367186, 0.685546875) (-0.00016021435546875, 0.6875) (-0.00015888877868652342, 0.689453125) (-0.00015751051330566406, 0.69140625) (-0.00015608668518066405, 0.693359375) (-0.00015462516784667967, 0.6953125) (-0.00015313447570800782, 0.697265625) (-0.00015162322998046873, 0.69921875) (-0.00015010021972656248, 0.701171875) (-0.00014857469177246093, 0.703125) (-0.00014705625915527342, 0.705078125) (-0.0001455545654296875, 0.70703125) (-0.0001440792999267578, 0.708984375) (-0.00014263975524902344, 0.7109375) (-0.00014124497985839842, 0.712890625) (-0.00013990364074707032, 0.71484375) (-0.0001386241760253906, 0.716796875) (-0.00013741447448730468, 0.71875) (-0.00013628192138671874, 0.720703125) (-0.00013523315429687498, 0.72265625) (-0.0001342742919921875, 0.724609375) (-0.00013341087341308593, 0.7265625) (-0.0001326478576660156, 0.728515625) (-0.00013198959350585937, 0.73046875) (-0.00013143972778320313, 0.732421875) (-0.00013100115966796874, 0.734375) (-0.00013067605590820312, 0.736328125) (-0.00013046612548828123, 0.73828125) (-0.0001303724670410156, 0.740234375) (-0.00013039559936523437, 0.7421875) (-0.00013053546142578125, 0.744140625) (-0.0001307913360595703, 0.74609375) (-0.00013116201782226562, 0.748046875) (-0.00013164588928222656, 0.75) (-0.00013224092102050782, 0.751953125) (-0.00013294448852539063, 0.75390625) (-0.00013375326538085937, 0.755859375) (-0.00013466326904296874, 0.7578125) (-0.000135669921875, 0.759765625) (-0.00013676812744140625, 0.76171875) (-0.0001379523468017578, 0.763671875) (-0.00013921652221679688, 0.765625) (-0.0001405541534423828, 0.767578125) (-0.0001419583740234375, 0.76953125) (-0.0001434220733642578, 0.771484375) (-0.00014493804931640624, 0.7734375) (-0.0001464990539550781, 0.775390625) (-0.0001480977020263672, 0.77734375) (-0.00014972659301757811, 0.779296875) (-0.0001513782958984375, 0.78125) (-0.00015304542541503906, 0.783203125) (-0.00015472074890136717, 0.78515625) (-0.00015639721679687498, 0.787109375) (-0.0001580680389404297, 0.7890625) (-0.00015972662353515624, 0.791015625) (-0.00016136654663085936, 0.79296875) (-0.000162981689453125, 0.794921875) (-0.00016456619262695312, 0.796875) (-0.00016611448669433593, 0.798828125) (-0.00016762123107910156, 0.80078125) (-0.0001690812072753906, 0.802734375) (-0.00017048931884765625, 0.8046875) (-0.000171840576171875, 0.806640625) (-0.00017313020324707031, 0.80859375) (-0.00017435368347167967, 0.810546875) (-0.0001755066223144531, 0.8125) (-0.00017658486938476562, 0.814453125) (-0.00017758453369140625, 0.81640625) (-0.00017850205993652344, 0.818359375) (-0.00017933428955078123, 0.8203125) (-0.000180078369140625, 0.822265625) (-0.00018073190307617187, 0.82421875) (-0.00018129273986816405, 0.826171875) (-0.000181759033203125, 0.828125) (-0.00018212921142578124, 0.830078125) (-0.000182402099609375, 0.83203125) (-0.00018257676696777344, 0.833984375) (-0.00018265255737304686, 0.8359375) (-0.00018262907409667968, 0.837890625) (-0.00018250611877441405, 0.83984375) (-0.00018228378295898437, 0.841796875) (-0.00018196238708496093, 0.84375) (-0.00018154251098632812, 0.845703125) (-0.00018102487182617186, 0.84765625) (-0.00018041021728515625, 0.849609375) (-0.00017969940185546873, 0.8515625) (-0.00017889337158203124, 0.853515625) (-0.00017799307250976562, 0.85546875) (-0.00017699957275390624, 0.857421875) (-0.00017591400146484373, 0.859375) (-0.00017473753356933594, 0.861328125) (-0.00017347149658203124, 0.86328125) (-0.00017211746215820312, 0.865234375) (-0.00017067718505859374, 0.8671875) (-0.00016915264892578124, 0.869140625) (-0.00016754612731933593, 0.87109375) (-0.0001658599853515625, 0.873046875) (-0.00016409677124023438, 0.875) (-0.00016225914001464844, 0.876953125) (-0.00016034994506835938, 0.87890625) (-0.00015837203979492185, 0.880859375) (-0.0001563283996582031, 0.8828125) (-0.00015422198486328125, 0.884765625) (-0.00015205581665039063, 0.88671875) (-0.00014983297729492188, 0.888671875) (-0.00014755661010742188, 0.890625) (-0.00014522991943359374, 0.892578125) (-0.0001428560791015625, 0.89453125) (-0.00014043824768066406, 0.896484375) (-0.0001379794921875, 0.8984375) (-0.00013548289489746093, 0.900390625) (-0.00013295143127441404, 0.90234375) (-0.000130387939453125, 0.904296875) (-0.0001277952423095703, 0.90625) (-0.00012517594146728515, 0.908203125) (-0.00012253268432617186, 0.91015625) (-0.00011986808013916014, 0.912109375) (-0.00011718475341796874, 0.9140625) (-0.0001144853744506836, 0.916015625) (-0.00011177261352539062, 0.91796875) (-0.00010904912567138671, 0.919921875) (-0.00010631755828857422, 0.921875) (-0.00010358049774169921, 0.923828125) (-0.00010084043884277343, 0.92578125) (-9.809973907470703e-05, 0.927734375) (-9.53605728149414e-05, 0.9296875) (-9.26248779296875e-05, 0.931640625) (-8.989440155029297e-05, 0.93359375) (-8.717071533203125e-05, 0.935546875) (-8.445524597167969e-05, 0.9375) (-8.174922180175781e-05, 0.939453125) (-7.905372619628906e-05, 0.94140625) (-7.636964416503906e-05, 0.943359375) (-7.369770812988281e-05, 0.9453125) (-7.103845977783202e-05, 0.947265625) (-6.839225006103516e-05, 0.94921875) (-6.575921630859375e-05, 0.951171875) (-6.313929748535156e-05, 0.953125) (-6.0532169342041016e-05, 0.955078125) (-5.79373664855957e-05, 0.95703125) (-5.535428619384765e-05, 0.958984375) (-5.278220748901367e-05, 0.9609375) (-5.0220340728759765e-05, 0.962890625) (-4.766781997680664e-05, 0.96484375) (-4.512372970581055e-05, 0.966796875) (-4.258709716796875e-05, 0.96875) (-4.005691909790039e-05, 0.970703125) (-3.753208541870117e-05, 0.97265625) (-3.501139450073242e-05, 0.974609375) (-3.2493515014648436e-05, 0.9765625) (-2.9976953506469726e-05, 0.978515625) (-2.746009826660156e-05, 0.98046875) (-2.4941215515136716e-05, 0.982421875) (-2.241848945617676e-05, 0.984375) (-1.989004898071289e-05, 0.986328125) (-1.735398483276367e-05, 0.98828125) (-1.4808385848999024e-05, 0.990234375) (-1.225136375427246e-05, 0.9921875) (-9.681087493896484e-06, 0.994140625) (-7.095757007598876e-06, 0.99609375) (-4.493598937988281e-06, 0.998046875) (-1.8728730678558348e-06, 1.0) (7.681455016136169e-07, 1.001953125) (3.4311447143554687e-06, 1.00390625) (6.117748260498047e-06, 1.005859375) (8.829504013061523e-06, 1.0078125) (1.1567855834960937e-05, 1.009765625) (1.4334091186523437e-05, 1.01171875) (1.7129358291625977e-05, 1.013671875) (1.9954641342163085e-05, 1.015625) (2.2810752868652342e-05, 1.017578125) (2.5698369979858396e-05, 1.01953125) (2.8618030548095703e-05, 1.021484375) (3.157012939453125e-05, 1.0234375) (3.4555000305175776e-05, 1.025390625) (3.757290649414062e-05, 1.02734375) (4.0624015808105465e-05, 1.029296875) (4.370843505859375e-05, 1.03125) (4.6826133728027345e-05, 1.033203125) (4.997695159912109e-05, 1.03515625) (5.31606216430664e-05, 1.037109375) (5.637679290771484e-05, 1.0390625) (5.962497329711914e-05, 1.041015625) (6.290457916259765e-05, 1.04296875) (6.621495056152343e-05, 1.044921875) (6.955532073974609e-05, 1.046875) (7.292488098144531e-05, 1.048828125) (7.632282257080077e-05, 1.05078125) (7.974829101562499e-05, 1.052734375) (8.320043182373046e-05, 1.0546875) (8.667832946777343e-05, 1.056640625) (9.018098449707031e-05, 1.05859375) (9.370738220214843e-05, 1.060546875) (9.725643157958983e-05, 1.0625) (0.00010082699584960937, 1.064453125) (0.00010441789245605468, 1.06640625) (0.00010802789306640624, 1.068359375) (0.00011165563201904296, 1.0703125) (0.00011529973602294921, 1.072265625) (0.00011895890045166016, 1.07421875) (0.00012263175201416014, 1.076171875) (0.00012631694793701172, 1.078125) (0.00013001309204101563, 1.080078125) (0.00013371868896484374, 1.08203125) (0.00013743231201171876, 1.083984375) (0.0001411526336669922, 1.0859375) (0.00014487823486328125, 1.087890625) (0.00014860780334472655, 1.08984375) (0.00015234002685546874, 1.091796875) (0.00015607359313964844, 1.09375) (0.00015980741882324218, 1.095703125) (0.00016354052734375, 1.09765625) (0.00016727203369140624, 1.099609375) (0.00017100094604492185, 1.1015625) (0.00017472628784179686, 1.103515625) (0.00017844696044921874, 1.10546875) (0.0001821617736816406, 1.107421875) (0.00018586961364746094, 1.109375) (0.0001895692138671875, 1.111328125) (0.00019325918579101562, 1.11328125) (0.00019693814086914062, 1.115234375) (0.00020060447692871094, 1.1171875) (0.0002042567138671875, 1.119140625) (0.00020789344787597655, 1.12109375) (0.00021151322937011717, 1.123046875) (0.0002151145782470703, 1.125) (0.00021869606018066405, 1.126953125) (0.00022225607299804686, 1.12890625) (0.0002257932586669922, 1.130859375) (0.0002293064270019531, 1.1328125) (0.00023279452514648436, 1.134765625) (0.0002362565002441406, 1.13671875) (0.00023969137573242187, 1.138671875) (0.0002430984649658203, 1.140625) (0.00024647720336914064, 1.142578125) (0.0002498274230957031, 1.14453125) (0.00025314894104003905, 1.146484375) (0.00025644140625, 1.1484375) (0.0002597044372558594, 1.150390625) (0.0002629376220703125, 1.15234375) (0.00026614031982421875, 1.154296875) (0.00026931176757812497, 1.15625) (0.0002724507141113281, 1.158203125) (0.0002755552062988281, 1.16015625) (0.0002786231079101562, 1.162109375) (0.00028165246582031246, 1.1640625) (0.0002846409912109375, 1.166015625) (0.00028758660888671876, 1.16796875) (0.00029048767089843747, 1.169921875) (0.000293342529296875, 1.171875) (0.0002961505126953125, 1.173828125) (0.00029891192626953125, 1.17578125) (0.00030162728881835937, 1.177734375) (0.00030429745483398436, 1.1796875) (0.00030692376708984375, 1.181640625) (0.00030950701904296874, 1.18359375) (0.0003120482788085937, 1.185546875) (0.0003145489501953125, 1.1875) (0.0003170101623535156, 1.189453125) (0.0003194332885742187, 1.19140625) (0.0003218208923339844, 1.193359375) (0.000324175537109375, 1.1953125) (0.00032650161743164063, 1.197265625) (0.0003288066711425781, 1.19921875) (0.00033109762573242186, 1.201171875) (0.00033338119506835936, 1.203125) (0.00033566305541992184, 1.205078125) (0.0003379453125, 1.20703125) (0.0003402313232421875, 1.208984375) (0.00034252731323242185, 1.2109375) (0.0003448388977050781, 1.212890625) (0.00034717282104492186, 1.21484375) (0.00034954034423828124, 1.216796875) (0.0003519559936523437, 1.21875) (0.0003544428405761719, 1.220703125) (0.000357032470703125, 1.22265625) (0.0003597553100585937, 1.224609375) (0.0003626406555175781, 1.2265625) (0.0003657146301269531, 1.228515625) (0.00036899578857421873, 1.23046875) (0.00037250311279296875, 1.232421875) (0.0003762562561035156, 1.234375) (0.00038027258300781246, 1.236328125) (0.0003845708312988281, 1.23828125) (0.0003891652526855469, 1.240234375) (0.0003940598449707031, 1.2421875) (0.00039925787353515624, 1.244140625) (0.0004047610778808594, 1.24609375) (0.0004105539855957031, 1.248046875) (0.0004166012268066406, 1.25) (0.0004228373107910156, 1.251953125) (0.0004291673583984375, 1.25390625) (0.00043549053955078124, 1.255859375) (0.00044171136474609375, 1.2578125) (0.00044774139404296875, 1.259765625) (0.0004534856262207031, 1.26171875) (0.0004588362121582031, 1.263671875) (0.000463677978515625, 1.265625) (0.0004678955383300781, 1.267578125) (0.00047138995361328123, 1.26953125) (0.0004740914916992187, 1.271484375) (0.00047592590332031247, 1.2734375) (0.00047678854370117183, 1.275390625) (0.00047662799072265623, 1.27734375) (0.00047548730468749997, 1.279296875) (0.00047352423095703124, 1.28125) (0.0004710653076171875, 1.283203125) (0.00046847726440429687, 1.28515625) (0.00046605535888671873, 1.287109375) (0.00046415136718749996, 1.2890625) (0.00046319491577148436, 1.291015625) (0.0004635018310546875, 1.29296875) (0.00046528381347656246, 1.294921875) (0.0004685434875488281, 1.296875) (0.0004728906860351562, 1.298828125) (0.00047790039062499997, 1.30078125) (0.000483323974609375, 1.302734375) (0.00048877294921875, 1.3046875) (0.0004937708129882812, 1.306640625) (0.0004981040344238281, 1.30859375) (0.00050165380859375, 1.310546875) (0.0005044850463867187, 1.3125) (0.0005072493896484375, 1.314453125) (0.0005106299133300781, 1.31640625) (0.0005149447631835937, 1.318359375) (0.0005218195190429687, 1.3203125) (0.0005339377441406249, 1.322265625) (0.0005531219482421875, 1.32421875) (0.000581342529296875, 1.326171875) (0.0006170799560546874, 1.328125) (0.0006546676635742187, 1.330078125) (0.0006907281494140624, 1.33203125) (0.0007227946777343749, 1.333984375) (0.0007535616455078125, 1.3359375) (0.0007923481445312499, 1.337890625) (0.0008449896850585937, 1.33984375) (0.000915174072265625, 1.341796875) (0.000999747802734375, 1.34375) (0.0010844899902343749, 1.345703125) (0.0011528310546875, 1.34765625) (0.0011853447265625, 1.349609375) (0.0011642990722656248, 1.3515625) (0.0010824855957031249, 1.353515625) (0.0009418690185546874, 1.35546875) (0.0007527124633789062, 1.357421875) (0.000533330078125, 1.359375) (0.00030238873291015624, 1.361328125) (7.56981964111328e-05, 1.36328125) (-0.00012978176879882813, 1.365234375) (-0.000300787109375, 1.3671875) (-0.0004259141845703125, 1.369140625) (-0.0004953075866699219, 1.37109375) (-0.0005089423522949218, 1.373046875) (-0.0004717304382324219, 1.375) (-0.0003953356628417969, 1.376953125) (-0.00029741073608398436, 1.37890625) (-0.00019248187255859375, 1.380859375) (-9.540170288085937e-05, 1.3828125) (-1.5785215377807615e-05, 1.384765625) (4.584773254394531e-05, 1.38671875) (9.142327880859375e-05, 1.388671875) (0.0001282451171875, 1.390625) (0.00016409779357910156, 1.392578125) (0.00020014651489257812, 1.39453125) (0.00023557971191406248, 1.396484375) (0.00026707830810546873, 1.3984375) (0.0002904327087402344, 1.400390625) (0.0003063292541503906, 1.40234375) (0.00031741717529296874, 1.404296875) (0.000326455078125, 1.40625) (0.0003367628173828125, 1.408203125) (0.00034956900024414063, 1.41015625) (0.0003646378173828125, 1.412109375) (0.00038182257080078124, 1.4140625) (0.00040011700439453125, 1.416015625) (0.0004180418090820312, 1.41796875) (0.00043458987426757813, 1.419921875) (0.0004489176330566406, 1.421875) (0.0004604295959472656, 1.423828125) (0.0004691101684570312, 1.42578125) (0.00047498590087890623, 1.427734375) (0.00047797735595703125, 1.4296875) (0.0004786409912109375, 1.431640625) (0.00047803369140624996, 1.43359375) (0.00047695446777343747, 1.435546875) (0.00047600408935546875, 1.4375) (0.00047537762451171873, 1.439453125) (0.00047471673583984373, 1.44140625) (0.0004738392333984375, 1.443359375) (0.0004727947082519531, 1.4453125) (0.00047133666992187496, 1.447265625) (0.00046903613281249997, 1.44921875) (0.00046562045288085936, 1.451171875) (0.00046091845703124997, 1.453125) (0.000455106689453125, 1.455078125) (0.0004487474365234375, 1.45703125) (0.00044220892333984374, 1.458984375) (0.00043566259765625, 1.4609375) (0.00042929608154296874, 1.462890625) (0.00042325131225585933, 1.46484375) (0.000417641845703125, 1.466796875) (0.0004125733947753906, 1.46875) (0.0004080036926269531, 1.470703125) (0.0004037519226074219, 1.47265625) (0.00039973114013671876, 1.474609375) (0.0003959392395019531, 1.4765625) (0.00039241284179687496, 1.478515625) (0.00038924249267578123, 1.48046875) (0.000386486572265625, 1.482421875) (0.00038416867065429685, 1.484375) (0.0003823203735351562, 1.486328125) (0.00038097531127929686, 1.48828125) (0.00038014141845703125, 1.490234375) (0.00037980087280273435, 1.4921875) (0.0003799317932128906, 1.494140625) (0.00038050375366210936, 1.49609375) (0.0003814830627441406, 1.498046875) (0.0003828352355957031, 1.5) (0.0003845115051269531, 1.501953125) (0.0003864441528320312, 1.50390625) (0.00038855755615234373, 1.505859375) (0.00039077536010742185, 1.5078125) (0.000393006103515625, 1.509765625) (0.00039515209960937496, 1.51171875) (0.00039713726806640625, 1.513671875) (0.00039890280151367186, 1.515625) (0.0004004177551269531, 1.517578125) (0.0004016817321777344, 1.51953125) (0.0004027005615234375, 1.521484375) (0.00040348602294921874, 1.5234375) (0.00040405429077148436, 1.525390625) (0.000404420654296875, 1.52734375) (0.00040460693359375, 1.529296875) (0.0004046428527832031, 1.53125) (0.0004045592041015625, 1.533203125) (0.0004043906555175781, 1.53515625) (0.00040417987060546875, 1.537109375) (0.00040397058105468746, 1.5390625) (0.00040381771850585936, 1.541015625) (0.0004037843017578125, 1.54296875) (0.00040391479492187497, 1.544921875) (0.00040423776245117186, 1.546875) (0.0004047671508789062, 1.548828125) (0.00040549865722656247, 1.55078125) (0.0004064241943359375, 1.552734375) (0.00040753448486328123, 1.5546875) (0.0004088116455078125, 1.556640625) (0.00041023312377929684, 1.55859375) (0.0004117771301269531, 1.560546875) (0.0004134204711914062, 1.5625) (0.0004151428833007812, 1.564453125) (0.00041692706298828125, 1.56640625) (0.00041875018310546874, 1.568359375) (0.0004205865478515625, 1.5703125) (0.00042240679931640626, 1.572265625) (0.0004241776428222656, 1.57421875) (0.0004258735656738281, 1.576171875) (0.0004274765930175781, 1.578125) (0.0004289723205566406, 1.580078125) (0.0004303518371582031, 1.58203125) (0.00043160833740234374, 1.583984375) (0.0004327354736328125, 1.5859375) (0.0004337319946289062, 1.587890625) (0.0004346001281738281, 1.58984375) (0.00043533981323242186, 1.591796875) (0.00043594955444335937, 1.59375) (0.0004364262390136719, 1.595703125) (0.0004367645263671875, 1.59765625) (0.00043696124267578125, 1.599609375) (0.00043701519775390626, 1.6015625) (0.00043692529296874996, 1.603515625) (0.00043669134521484376, 1.60546875) (0.0004363124084472656, 1.607421875) (0.0004357866516113281, 1.609375) (0.0004351127014160156, 1.611328125) (0.00043428948974609375, 1.61328125) (0.00043331530761718745, 1.615234375) (0.00043218820190429685, 1.6171875) (0.0004309056396484375, 1.619140625) (0.0004294644775390625, 1.62109375) (0.0004278626708984375, 1.623046875) (0.00042609936523437496, 1.625) (0.00042417416381835936, 1.626953125) (0.0004220871887207031, 1.62890625) (0.0004198387451171875, 1.630859375) (0.000417428955078125, 1.6328125) (0.00041485852050781246, 1.634765625) (0.00041212884521484375, 1.63671875) (0.00040924072265625, 1.638671875) (0.000406195068359375, 1.640625) (0.00040299276733398435, 1.642578125) (0.00039963482666015624, 1.64453125) (0.0003961224975585937, 1.646484375) (0.0003924579772949219, 1.6484375) (0.00038864337158203124, 1.650390625) (0.0003846812744140625, 1.65234375) (0.0003805747680664062, 1.654296875) (0.00037632745361328125, 1.65625) (0.000371943359375, 1.658203125) (0.00036742721557617185, 1.66015625) (0.00036278402709960934, 1.662109375) (0.00035801910400390624, 1.6640625) (0.00035313818359375, 1.666015625) (0.00034814727783203124, 1.66796875) (0.00034305267333984373, 1.669921875) (0.0003378612060546875, 1.671875) (0.0003325797119140625, 1.673828125) (0.00032721527099609373, 1.67578125) (0.000321775146484375, 1.677734375) (0.00031626678466796873, 1.6796875) (0.00031069747924804687, 1.681640625) (0.0003050747375488281, 1.68359375) (0.0002994058837890625, 1.685546875) (0.0002936980590820312, 1.6875) (0.00028795828247070313, 1.689453125) (0.00028219345092773436, 1.69140625) (0.0002764102172851562, 1.693359375) (0.0002706152648925781, 1.6953125) (0.0002648148498535156, 1.697265625) (0.00025901513671875, 1.69921875) (0.0002532220458984375, 1.701171875) (0.00024744137573242184, 1.703125) (0.0002416785888671875, 1.705078125) (0.00023593882751464843, 1.70703125) (0.00023022674560546874, 1.708984375) (0.0002245465393066406, 1.7109375) (0.0002189019317626953, 1.712890625) (0.0002132961730957031, 1.71484375) (0.0002077320098876953, 1.716796875) (0.00020221170043945312, 1.71875) (0.00019673699951171873, 1.720703125) (0.00019130923461914062, 1.72265625) (0.00018592926025390625, 1.724609375) (0.00018059751892089842, 1.7265625) (0.00017531393432617187, 1.728515625) (0.00017007803344726562, 1.73046875) (0.000164888916015625, 1.732421875) (0.00015974520874023436, 1.734375) (0.00015464524841308594, 1.736328125) (0.0001495870361328125, 1.73828125) (0.0001445683898925781, 1.740234375) (0.0001395869598388672, 1.7421875) (0.00013464035034179686, 1.744140625) (0.00012972618103027344, 1.74609375) (0.0001248420944213867, 1.748046875) (0.00011998579406738281, 1.75) (0.00011515504455566405, 1.751953125) (0.00011034770202636718, 1.75390625) (0.00010556175231933594, 1.755859375) (0.00010079522705078125, 1.7578125) (9.604629516601562e-05, 1.759765625) (9.131332397460937e-05, 1.76171875) (8.65948257446289e-05, 1.763671875) (8.188966369628906e-05, 1.765625) (7.7197021484375e-05, 1.767578125) (7.251644897460937e-05, 1.76953125) (6.784794616699218e-05, 1.771484375) (6.319189453125e-05, 1.7734375) (5.8549110412597655e-05, 1.775390625) (5.392083358764648e-05, 1.77734375) (4.930867004394531e-05, 1.779296875) (4.4714599609374995e-05, 1.78125) (4.014094543457031e-05, 1.783203125) (3.559036254882812e-05, 1.78515625) (3.1065879821777345e-05, 1.787109375) (2.657089614868164e-05, 1.7890625) (2.2109184265136716e-05, 1.791015625) (1.7684894561767576e-05, 1.79296875) (1.3302503585815428e-05, 1.794921875) (8.96678352355957e-06, 1.796875) (4.682729721069335e-06, 1.798828125) (4.5549917221069334e-07, 1.80078125) (-3.7096846103668213e-06, 1.802734375) (-7.807615756988524e-06, 1.8046875) (-1.1833181381225586e-05, 1.806640625) (-1.5781400680541992e-05, 1.80859375) (-1.9647457122802732e-05, 1.810546875) (-2.3426694869995117e-05, 1.8125) (-2.7114635467529297e-05, 1.814453125) (-3.070698738098144e-05, 1.81640625) (-3.419966506958008e-05, 1.818359375) (-3.758881759643555e-05, 1.8203125) (-4.0870849609375e-05, 1.822265625) (-4.404248046875e-05, 1.82421875) (-4.7100807189941406e-05, 1.826171875) (-5.004337692260742e-05, 1.828125) (-5.286823272705078e-05, 1.830078125) (-5.557397842407226e-05, 1.83203125) (-5.815975189208984e-05, 1.833984375) (-6.062525939941406e-05, 1.8359375) (-6.297074508666992e-05, 1.837890625) (-6.519700622558593e-05, 1.83984375) (-6.730533599853515e-05, 1.841796875) (-6.929759216308594e-05, 1.84375) (-7.117611694335937e-05, 1.845703125) (-7.294378662109375e-05, 1.84765625) (-7.460403442382812e-05, 1.849609375) (-7.616084289550782e-05, 1.8515625) (-7.761880493164062e-05, 1.853515625) (-7.898301696777343e-05, 1.85546875) (-8.025914001464844e-05, 1.857421875) (-8.145326232910156e-05, 1.859375) (-8.257186889648438e-05, 1.861328125) (-8.362174224853515e-05, 1.86328125) (-8.460993194580078e-05, 1.865234375) (-8.554359436035156e-05, 1.8671875) (-8.64300079345703e-05, 1.869140625) (-8.727648162841797e-05, 1.87109375) (-8.809034729003906e-05, 1.873046875) (-8.887896728515624e-05, 1.875) (-8.964973449707031e-05, 1.876953125) (-9.041000366210938e-05, 1.87890625) (-9.116712188720702e-05, 1.880859375) (-9.192835998535156e-05, 1.8828125) (-9.270088195800781e-05, 1.884765625) (-9.349170684814453e-05, 1.88671875) (-9.430760955810546e-05, 1.888671875) (-9.515507507324218e-05, 1.890625) (-9.6040283203125e-05, 1.892578125) (-9.696900939941405e-05, 1.89453125) (-9.794667053222656e-05, 1.896484375) (-9.897827911376953e-05, 1.8984375) (-0.00010006841278076171, 1.900390625) (-0.00010122125244140625, 1.90234375) (-0.00010244056701660156, 1.904296875) (-0.00010372962951660156, 1.90625) (-0.00010509122467041015, 1.908203125) (-0.00010652764892578124, 1.91015625) (-0.00010804058837890624, 1.912109375) (-0.00010963118743896484, 1.9140625) (-0.00011129993438720703, 1.916015625) (-0.0001130467529296875, 1.91796875) (-0.00011487092590332031, 1.919921875) (-0.00011677124023437499, 1.921875) (-0.00011874599456787108, 1.923828125) (-0.00012079302978515624, 1.92578125) (-0.00012290983581542968, 1.927734375) (-0.00012509358978271483, 1.9296875) (-0.00012734114837646484, 1.931640625) (-0.00012964907836914062, 1.93359375) (-0.00013201371765136718, 1.935546875) (-0.0001344311065673828, 1.9375) (-0.00013689706420898438, 1.939453125) (-0.00013940708923339842, 1.94140625) (-0.00014195652770996093, 1.943359375) (-0.00014454045104980468, 1.9453125) (-0.00014715374755859374, 1.947265625) (-0.00014979116821289061, 1.94921875) (-0.00015244741821289061, 1.951171875) (-0.00015511703491210936, 1.953125) (-0.0001577945861816406, 1.955078125) (-0.0001604745635986328, 1.95703125) (-0.00016315145874023435, 1.958984375) (-0.00016581979370117186, 1.9609375) (-0.00016847410583496094, 1.962890625) (-0.00017110903930664062, 1.96484375) (-0.0001737191925048828, 1.966796875) (-0.00017629946899414063, 1.96875) (-0.00017884483337402343, 1.970703125) (-0.0001813505401611328, 1.97265625) (-0.00018381219482421874, 1.974609375) (-0.00018622564697265623, 1.9765625) (-0.00018858721923828125, 1.978515625) (-0.00019089353942871093, 1.98046875) (-0.0001931416320800781, 1.982421875) (-0.00019532890319824217, 1.984375) (-0.0001974530792236328, 1.986328125) (-0.0001995122833251953, 1.98828125) (-0.00020150483703613282, 1.990234375) (-0.00020342936706542968, 1.9921875) (-0.00020528479003906249, 1.994140625) (-0.0002070703582763672, 1.99609375) (-0.00020878552246093748, 1.998046875) (-0.0002104300842285156, 2.0) (-0.00021200405883789063, 2.001953125) (-0.00021350779724121091, 2.00390625) (-0.0002149419250488281, 2.005859375) (-0.00021630734252929687, 2.0078125) (-0.000217605224609375, 2.009765625) (-0.0002188369903564453, 2.01171875) (-0.00022000428771972656, 2.013671875) (-0.00022110899353027343, 2.015625) (-0.0002221532287597656, 2.017578125) (-0.00022313937377929687, 2.01953125) (-0.00022406999206542967, 2.021484375) (-0.00022494784545898437, 2.0234375) (-0.00022577590942382813, 2.025390625) (-0.00022655726623535156, 2.02734375) (-0.00022729513549804686, 2.029296875) (-0.00022799279785156248, 2.03125) (-0.00022865353393554687, 2.033203125) (-0.00022928060913085936, 2.03515625) (-0.00022987713623046874, 2.037109375) (-0.00023044604492187499, 2.0390625) (-0.00023099018859863281, 2.041015625) (-0.00023151214599609373, 2.04296875) (-0.0002320142822265625, 2.044921875) (-0.00023249879455566406, 2.046875) (-0.00023296759033203124, 2.048828125) (-0.00023342236328125, 2.05078125) (-0.0002338645324707031, 2.052734375) (-0.00023429534912109375, 2.0546875) (-0.0002347158508300781, 2.056640625) (-0.00023512672424316406, 2.05859375) (-0.00023552850341796873, 2.060546875) (-0.0002359214172363281, 2.0625) (-0.00023630552673339843, 2.064453125) (-0.0002366806182861328, 2.06640625) (-0.0002370462951660156, 2.068359375) (-0.00023740187072753905, 2.0703125) (-0.00023774650573730468, 2.072265625) (-0.00023807910156249998, 2.07421875) (-0.0002383983917236328, 2.076171875) (-0.0002387029113769531, 2.078125) (-0.000238990966796875, 2.080078125) (-0.00023926068115234374, 2.08203125) (-0.00023951000976562498, 2.083984375) (-0.00023973667907714843, 2.0859375) (-0.00023993835449218748, 2.087890625) (-0.00024011257934570312, 2.08984375) (-0.00024025682067871091, 2.091796875) (-0.0002403685302734375, 2.09375) (-0.0002404450988769531, 2.095703125) (-0.00024048410034179687, 2.09765625) (-0.00024048318481445312, 2.099609375) (-0.00024044012451171875, 2.1015625) (-0.00024035290527343748, 2.103515625) (-0.00024021972656249998, 2.10546875) (-0.00024003903198242186, 2.107421875) (-0.00023980953979492188, 2.109375) (-0.00023953030395507813, 2.111328125) (-0.0002392007141113281, 2.11328125) (-0.00023882035827636717, 2.115234375) (-0.00023838925170898437, 2.1171875) (-0.0002379076690673828, 2.119140625) (-0.00023737619018554686, 2.12109375) (-0.00023679582214355466, 2.123046875) (-0.00023616781616210938, 2.125) (-0.00023549374389648437, 2.126953125) (-0.00023477545166015624, 2.12890625) (-0.00023401515197753905, 2.130859375) (-0.0002332152099609375, 2.1328125) (-0.00023237838745117186, 2.134765625) (-0.0002315077209472656, 2.13671875) (-0.00023060638427734373, 2.138671875) (-0.00022967782592773437, 2.140625) (-0.0002287256164550781, 2.142578125) (-0.00022775363159179687, 2.14453125) (-0.00022676583862304688, 2.146484375) (-0.00022576632690429687, 2.1484375) (-0.00022475932312011716, 2.150390625) (-0.00022374908447265625, 2.15234375) (-0.00022273992919921875, 2.154296875) (-0.00022173623657226562, 2.15625) (-0.0002207423858642578, 2.158203125) (-0.0002197626953125, 2.16015625) (-0.00021880139160156248, 2.162109375) (-0.0002178625030517578, 2.1640625) (-0.000216949951171875, 2.166015625) (-0.00021606742858886719, 2.16796875) (-0.00021521839904785155, 2.169921875) (-0.00021440609741210938, 2.171875) (-0.00021363340759277344, 2.173828125) (-0.00021290289306640623, 2.17578125) (-0.0002122168273925781, 2.177734375) (-0.0002115772247314453, 2.1796875) (-0.00021098580932617188, 2.181640625) (-0.00021044398498535155, 2.18359375) (-0.00020995274353027344, 2.185546875) (-0.00020951278686523437, 2.1875) (-0.00020912455749511717, 2.189453125) (-0.00020878807067871094, 2.19140625) (-0.00020850303649902344, 2.193359375) (-0.0002082687530517578, 2.1953125) (-0.00020808424377441405, 2.197265625) (-0.00020794808959960937, 2.19921875) (-0.00020785870361328125, 2.201171875) (-0.00020781417846679686, 2.203125) (-0.0002078124542236328, 2.205078125) (-0.00020785125732421874, 2.20703125) (-0.0002079281005859375, 2.208984375) (-0.00020804028320312498, 2.2109375) (-0.00020818507385253905, 2.212890625) (-0.00020835955810546874, 2.21484375) (-0.00020856072998046873, 2.216796875) (-0.00020878543090820312, 2.21875) (-0.00020903039550781248, 2.220703125) (-0.00020929222106933593, 2.22265625) (-0.00020956765747070312, 2.224609375) (-0.0002098534240722656, 2.2265625) (-0.00021014627075195311, 2.228515625) (-0.00021044302368164062, 2.23046875) (-0.00021074061584472657, 2.232421875) (-0.00021103605651855468, 2.234375) (-0.00021132647705078125, 2.236328125) (-0.00021160916137695311, 2.23828125) (-0.00021188140869140624, 2.240234375) (-0.00021214048767089844, 2.2421875) (-0.00021238371276855467, 2.244140625) (-0.0002126083984375, 2.24609375) (-0.00021281201171875, 2.248046875) (-0.0002129920654296875, 2.25) (-0.00021314617919921875, 2.251953125) (-0.00021327197265625, 2.25390625) (-0.00021336730957031248, 2.255859375) (-0.0002134302215576172, 2.2578125) (-0.00021345903015136718, 2.259765625) (-0.00021345227050781248, 2.26171875) (-0.00021340855407714842, 2.263671875) (-0.00021332662963867186, 2.265625) (-0.00021320535278320312, 2.267578125) (-0.00021304368591308593, 2.26953125) (-0.00021284066772460936, 2.271484375) (-0.00021259555053710936, 2.2734375) (-0.00021230767822265624, 2.275390625) (-0.0002119763488769531, 2.27734375) (-0.00021160118103027344, 2.279296875) (-0.00021118185424804688, 2.28125) (-0.00021071827697753906, 2.283203125) (-0.00021021051025390625, 2.28515625) (-0.00020965867614746093, 2.287109375) (-0.00020906280517578123, 2.2890625) (-0.00020842303466796875, 2.291015625) (-0.0002077395324707031, 2.29296875) (-0.00020701255798339843, 2.294921875) (-0.000206242431640625, 2.296875) (-0.0002054295654296875, 2.298828125) (-0.00020457437133789062, 2.30078125) (-0.00020367782592773436, 2.302734375) (-0.00020274137878417968, 2.3046875) (-0.00020176687622070312, 2.306640625) (-0.00020075645446777343, 2.30859375) (-0.00019971293640136717, 2.310546875) (-0.00019863972473144531, 2.3125) (-0.0001975408020019531, 2.314453125) (-0.00019642103576660155, 2.31640625) (-0.000195285400390625, 2.318359375) (-0.00019413882446289062, 2.3203125) (-0.00019298672485351561, 2.322265625) (-0.0001918349914550781, 2.32421875) (-0.00019068949890136718, 2.326171875) (-0.0001895567626953125, 2.328125) (-0.00018844290161132811, 2.330078125) (-0.0001873535919189453, 2.33203125) (-0.00018629504394531248, 2.333984375) (-0.00018527392578125, 2.3359375) (-0.0001842969512939453, 2.337890625) (-0.00018337139892578123, 2.33984375) (-0.00018250399780273436, 2.341796875) (-0.00018170037841796875, 2.34375) (-0.00018096650695800782, 2.345703125) (-0.00018030819702148437, 2.34765625) (-0.00017973104858398436, 2.349609375) (-0.000179241455078125, 2.3515625) (-0.00017884378051757812, 2.353515625) (-0.00017853959655761718, 2.35546875) (-0.00017833093261718748, 2.357421875) (-0.00017821951293945311, 2.359375) (-0.00017820738220214843, 2.361328125) (-0.000178298828125, 2.36328125) (-0.00017849401855468748, 2.365234375) (-0.00017878778076171875, 2.3671875) (-0.00017917404174804688, 2.369140625) (-0.00017964445495605467, 2.37109375) (-0.0001801882629394531, 2.373046875) (-0.0001807944641113281, 2.375) (-0.00018144523620605468, 2.376953125) (-0.00018211508178710937, 2.37890625) (-0.00018277813720703125, 2.380859375) (-0.00018340667724609373, 2.3828125) (-0.0001839756164550781, 2.384765625) (-0.00018446627807617186, 2.38671875) (-0.00018485643005371094, 2.388671875) (-0.00018512147521972656, 2.390625) (-0.00018523600769042967, 2.392578125) (-0.00018517062377929687, 2.39453125) (-0.00018490325927734375, 2.396484375) (-0.00018442282104492186, 2.3984375) (-0.0001837185363769531, 2.400390625) (-0.0001827825469970703, 2.40234375) (-0.00018161468505859375, 2.404296875) (-0.0001802193603515625, 2.40625) (-0.0001786211700439453, 2.408203125) (-0.00017686761474609375, 2.41015625) (-0.00017501269531249998, 2.412109375) (-0.00017312094116210937, 2.4140625) (-0.0001712564697265625, 2.416015625) (-0.00016947821044921874, 2.41796875) (-0.00016785021972656248, 2.419921875) (-0.00016643392944335936, 2.421875) (-0.00016529837036132812, 2.423828125) (-0.00016452658081054686, 2.42578125) (-0.0001641944580078125, 2.427734375) (-0.0001643719787597656, 2.4296875) (-0.00016512945556640624, 2.431640625) (-0.00016651199340820313, 2.43359375) (-0.0001685738525390625, 2.435546875) (-0.0001713917694091797, 2.4375) (-0.0001749491729736328, 2.439453125) (-0.00017913670349121094, 2.44140625) (-0.00018374896240234373, 2.443359375) (-0.00018843069458007812, 2.4453125) (-0.0001928209228515625, 2.447265625) (-0.00019660968017578125, 2.44921875) (-0.00019940164184570312, 2.451171875) (-0.00020074499511718748, 2.453125) (-0.0002003191680908203, 2.455078125) (-0.0001979200897216797, 2.45703125) (-0.00019363694763183592, 2.458984375) (-0.00018796893310546873, 2.4609375) (-0.0001814285888671875, 2.462890625) (-0.00017452088928222655, 2.46484375) (-0.00016787771606445313, 2.466796875) (-0.0001621342315673828, 2.46875) (-0.00015784678649902344, 2.470703125) (-0.00015541954040527344, 2.47265625) (-0.00015471771240234373, 2.474609375) (-0.00015494473266601562, 2.4765625) (-0.00015506224060058592, 2.478515625) (-0.00015367572021484375, 2.48046875) (-0.00014914736938476561, 2.482421875) (-0.0001398514862060547, 2.484375) (-0.00012384510803222656, 2.486328125) (-9.921781921386719e-05, 2.48828125) (-6.472062683105469e-05, 2.490234375) (-1.9633298873901366e-05, 2.4921875) (3.518022918701172e-05, 2.494140625) (9.652320861816405e-05, 2.49609375) (0.00016070721435546874, 2.498046875) (0.00022340496826171873, 2.5) (0.000281321533203125, 2.501953125) (0.0003343357543945312, 2.50390625) (0.0003814052734375, 2.505859375) (0.0004199578857421875, 2.5078125) (0.0004444783325195312, 2.509765625) (0.0004440762939453125, 2.51171875) (0.0004080847473144531, 2.513671875) (0.0003276602783203125, 2.515625) (0.00019706744384765624, 2.517578125) (1.8267990112304688e-05, 2.51953125) (-0.00020079425048828123, 2.521484375) (-0.0004447865600585937, 2.5234375) (-0.0006882294311523437, 2.525390625) (-0.0009033245849609375, 2.52734375) (-0.0010656005859375, 2.529296875) (-0.001158778564453125, 2.53125) (-0.001184948486328125, 2.533203125) (-0.0011578503417968749, 2.53515625) (-0.001093291015625, 2.537109375) (-0.0010082440795898438, 2.5390625) (-0.0009121286621093749, 2.541015625) (-0.000809520263671875, 2.54296875) (-0.0007095758056640624, 2.544921875) (-0.0006227918701171874, 2.546875) (-0.0005579468994140625, 2.548828125) (-0.00052087548828125, 2.55078125) (-0.0005083580017089844, 2.552734375) (-0.000506502197265625, 2.5546875) (-0.0005019618530273437, 2.556640625) (-0.0004858567199707031, 2.55859375) (-0.000453587158203125, 2.560546875) (-0.000412509521484375, 2.5625) (-0.0003728332824707031, 2.564453125) (-0.00033965206909179687, 2.56640625) (-0.00031743960571289063, 2.568359375) (-0.0003038076782226562, 2.5703125) (-0.00029214422607421874, 2.572265625) (-0.00027994833374023437, 2.57421875) (-0.00026534225463867186, 2.576171875) (-0.00024828460693359375, 2.578125) (-0.00023160704040527344, 2.580078125) (-0.00021654063415527342, 2.58203125) (-0.00020332066345214842, 2.583984375) (-0.00019228286743164062, 2.5859375) (-0.0001830760803222656, 2.587890625) (-0.00017546734619140625, 2.58984375) (-0.00016972256469726562, 2.591796875) (-0.00016598779296875, 2.59375) (-0.00016406626892089842, 2.595703125) (-0.00016367364501953125, 2.59765625) (-0.000164478759765625, 2.599609375) (-0.000166064697265625, 2.6015625) (-0.00016809835815429687, 2.603515625) (-0.00017033108520507812, 2.60546875) (-0.00017243519592285156, 2.607421875) (-0.00017406971740722656, 2.609375) (-0.00017504849243164063, 2.611328125) (-0.0001752558135986328, 2.61328125) (-0.00017463131713867187, 2.615234375) (-0.00017322108459472656, 2.6171875) (-0.00017106869506835936, 2.619140625) (-0.00016820304870605467, 2.62109375) (-0.00016470057678222655, 2.623046875) (-0.00016066477966308594, 2.625) (-0.00015618743896484374, 2.626953125) (-0.00015136517333984374, 2.62890625) (-0.0001462784423828125, 2.630859375) (-0.0001409651184082031, 2.6328125) (-0.00013547706604003906, 2.634765625) (-0.00012987615966796875, 2.63671875) (-0.00012421722412109373, 2.638671875) (-0.00011857437133789062, 2.640625) (-0.00011301616668701172, 2.642578125) (-0.00010759722137451172, 2.64453125) (-0.00010237337493896483, 2.646484375) (-9.738859558105469e-05, 2.6484375) (-9.267164611816405e-05, 2.650390625) (-8.825511169433594e-05, 2.65234375) (-8.416764831542968e-05, 2.654296875) (-8.041181182861327e-05, 2.65625) (-7.698414611816406e-05, 2.658203125) (-7.387448120117188e-05, 2.66015625) (-7.106944274902343e-05, 2.662109375) (-6.857901763916015e-05, 2.6640625) (-6.640957641601562e-05, 2.666015625) (-6.4553955078125e-05, 2.66796875) (-6.300067901611327e-05, 2.669921875) (-6.172367858886719e-05, 2.671875) (-6.069047546386719e-05, 2.673828125) (-5.987205505371094e-05, 2.67578125) (-5.923355484008789e-05, 2.677734375) (-5.8730297088623046e-05, 2.6796875) (-5.8319309234619135e-05, 2.681640625) (-5.7950920104980466e-05, 2.68359375) (-5.757131195068359e-05, 2.685546875) (-5.714686584472656e-05, 2.6875) (-5.6651702880859375e-05, 2.689453125) (-5.606349563598632e-05, 2.69140625) (-5.5366291046142575e-05, 2.693359375) (-5.453523254394531e-05, 2.6953125) (-5.354688262939453e-05, 2.697265625) (-5.238967132568359e-05, 2.69921875) (-5.105794525146484e-05, 2.701171875) (-4.954913711547851e-05, 2.703125) (-4.786418914794922e-05, 2.705078125) (-4.600291061401367e-05, 2.70703125) (-4.3967453002929684e-05, 2.708984375) (-4.1771331787109374e-05, 2.7109375) (-3.943085479736328e-05, 2.712890625) (-3.6965118408203126e-05, 2.71484375) (-3.439717483520508e-05, 2.716796875) (-3.174177932739258e-05, 2.71875) (-2.9009433746337888e-05, 2.720703125) (-2.621073532104492e-05, 2.72265625) (-2.335321044921875e-05, 2.724609375) (-2.0444686889648438e-05, 2.7265625) (-1.7493160247802732e-05, 2.728515625) (-1.4502059936523438e-05, 2.73046875) (-1.1471837997436522e-05, 2.732421875) (-8.405386924743652e-06, 2.734375) (-5.306318759918213e-06, 2.736328125) (-2.1790194511413573e-06, 2.73828125) (9.712002873420715e-07, 2.740234375) (4.142748832702636e-06, 2.7421875) (7.3355836868286125e-06, 2.744140625) (1.0549291610717773e-05, 2.74609375) (1.3784168243408202e-05, 2.748046875) (1.703938293457031e-05, 2.75) (2.031315231323242e-05, 2.751953125) (2.360427093505859e-05, 2.75390625) (2.691118049621582e-05, 2.755859375) (3.023111534118652e-05, 2.7578125) (3.356119155883789e-05, 2.759765625) (3.6897888183593746e-05, 2.76171875) (4.023690795898437e-05, 2.763671875) (4.3575153350830077e-05, 2.765625) (4.6910297393798826e-05, 2.767578125) (5.0240009307861326e-05, 2.76953125) (5.356252288818359e-05, 2.771484375) (5.6876037597656246e-05, 2.7734375) (6.017850112915039e-05, 2.775390625) (6.346820068359375e-05, 2.77734375) (6.674366760253905e-05, 2.779296875) (7.000291442871093e-05, 2.78125) (7.324362182617187e-05, 2.783203125) (7.646320343017578e-05, 2.78515625) (7.965867614746094e-05, 2.787109375) (8.282700347900391e-05, 2.7890625) (8.596517181396484e-05, 2.791015625) (8.906985473632813e-05, 2.79296875) (9.213746643066406e-05, 2.794921875) (9.516439819335937e-05, 2.796875) (9.814675903320312e-05, 2.798828125) (0.00010108063507080077, 2.80078125) (0.00010396205902099609, 2.802734375) (0.00010678671264648438, 2.8046875) (0.00010955018615722656, 2.806640625) (0.00011224798583984374, 2.80859375) (0.00011487557983398438, 2.810546875) (0.00011742847442626953, 2.8125) (0.0001199022216796875, 2.814453125) (0.00012229238891601563, 2.81640625) (0.00012459469604492187, 2.818359375) (0.00012680511474609375, 2.8203125) (0.0001289197235107422, 2.822265625) (0.00013093475341796875, 2.82421875) (0.00013284671020507812, 2.826171875) (0.00013465231323242188, 2.828125) (0.00013634835815429686, 2.830078125) (0.00013793206787109373, 2.83203125) (0.00013940084838867187, 2.833984375) (0.00014075250244140625, 2.8359375) (0.00014198500061035155, 2.837890625) (0.00014309674072265625, 2.83984375) (0.00014408624267578125, 2.841796875) (0.00014495259094238281, 2.84375) (0.0001456951904296875, 2.845703125) (0.00014631382751464843, 2.84765625) (0.00014680871582031248, 2.849609375) (0.00014718048095703124, 2.8515625) (0.00014743011474609375, 2.853515625) (0.00014755909729003905, 2.85546875) (0.00014756944274902343, 2.857421875) (0.00014746354675292968, 2.859375) (0.00014724424743652343, 2.861328125) (0.00014691479492187498, 2.86328125) (0.000146478759765625, 2.865234375) (0.00014594012451171875, 2.8671875) (0.00014530332946777343, 2.869140625) (0.00014457302856445313, 2.87109375) (0.00014375430297851563, 2.873046875) (0.00014285250854492187, 2.875) (0.00014187330627441405, 2.876953125) (0.0001408227081298828, 2.87890625) (0.00013970704650878904, 2.880859375) (0.0001385329132080078, 2.8828125) (0.00013730715942382812, 2.884765625) (0.000136036865234375, 2.88671875) (0.00013472918701171874, 2.888671875) (0.00013339138793945311, 2.890625) (0.00013203086853027344, 2.892578125) (0.00013065495300292968, 2.89453125) (0.00012927099609375, 2.896484375) (0.00012788629150390623, 2.8984375) (0.0001265080795288086, 2.900390625) (0.0001251435775756836, 2.90234375) (0.00012379991912841797, 2.904296875) (0.00012248419189453123, 2.90625) (0.00012120331573486327, 2.908203125) (0.00011996405029296874, 2.91015625) (0.0001187729263305664, 2.912109375) (0.00011763617706298828, 2.9140625) (0.00011655975341796874, 2.916015625) (0.0001155491714477539, 2.91796875) (0.00011460953521728515, 2.919921875) (0.00011374549865722656, 2.921875) (0.00011296136474609374, 2.923828125) (0.000112260986328125, 2.92578125) (0.00011164786529541015, 2.927734375) (0.00011112513732910156, 2.9296875) (0.000110695556640625, 2.931640625) (0.00011036144256591796, 2.93359375) (0.0001101247329711914, 2.935546875) (0.00010998690795898436, 2.9375) (0.00010994896697998046, 2.939453125) (0.00011001139068603515, 2.94140625) (0.00011017411041259765, 2.943359375) (0.0001104365234375, 2.9453125) (0.00011079752349853515, 2.947265625) (0.00011125556945800781, 2.94921875) (0.00011180870056152344, 2.951171875) (0.00011245457458496093, 2.953125) (0.0001131905059814453, 2.955078125) (0.00011401345062255859, 2.95703125) (0.00011492009735107421, 2.958984375) (0.00011590681457519531, 2.9609375) (0.00011696965026855469, 2.962890625) (0.00011810432434082031, 2.96484375) (0.00011930618286132812, 2.966796875) (0.00012057032775878906, 2.96875) (0.00012189157104492187, 2.970703125) (0.0001232645797729492, 2.97265625) (0.00012468388366699217, 2.974609375) (0.00012614397430419922, 2.9765625) (0.00012763932800292967, 2.978515625) (0.00012916445922851562, 2.98046875) (0.00013071397399902344, 2.982421875) (0.0001322825927734375, 2.984375) (0.00013386508178710936, 2.986328125) (0.00013545620727539062, 2.98828125) (0.00013705076599121094, 2.990234375) (0.00013864355468749999, 2.9921875) (0.00014022937011718748, 2.994140625) (0.00014180316162109373, 2.99609375) (0.00014335992431640623, 2.998046875) (0.00014489477539062498, 3.0) (0.00014640310668945312, 3.001953125) (0.00014788052368164061, 3.00390625) (0.00014932296752929688, 3.005859375) (0.00015072671508789063, 3.0078125) (0.00015208828735351561, 3.009765625) (0.00015340447998046875, 3.01171875) (0.00015467237854003906, 3.013671875) (0.00015588929748535155, 3.015625) (0.00015705279541015625, 3.017578125) (0.00015816075134277344, 3.01953125) (0.00015921127319335938, 3.021484375) (0.000160202880859375, 3.0234375) (0.00016113438415527343, 3.025390625) (0.00016200498962402342, 3.02734375) (0.00016281442260742188, 3.029296875) (0.00016356271362304688, 3.03125) (0.00016425027465820312, 3.033203125) (0.00016487785339355468, 3.03515625) (0.00016544638061523437, 3.037109375) (0.00016595709228515624, 3.0390625) (0.0001664112548828125, 3.041015625) (0.0001668104553222656, 3.04296875) (0.00016715628051757812, 3.044921875) (0.00016745053100585938, 3.046875) (0.00016769522094726562, 3.048828125) (0.000167892578125, 3.05078125) (0.000168045166015625, 3.052734375) (0.00016815574645996092, 3.0546875) (0.0001682274627685547, 3.056640625) (0.00016826359558105467, 3.05859375) (0.00016826760864257812, 3.060546875) (0.00016824319458007812, 3.0625) (0.00016819410705566407, 3.064453125) (0.00016812409973144532, 3.06640625) (0.00016803692626953125, 3.068359375) (0.00016793632507324218, 3.0703125) (0.00016782598876953123, 3.072265625) (0.00016770964050292968, 3.07421875) (0.0001675909729003906, 3.076171875) (0.00016747360229492188, 3.078125) (0.00016736111450195312, 3.080078125) (0.0001672568664550781, 3.08203125) (0.00016716415405273436, 3.083984375) (0.00016708592224121092, 3.0859375) (0.00016702490234375, 3.087890625) (0.00016698341369628906, 3.08984375) (0.00016696347045898436, 3.091796875) (0.00016696662902832032, 3.09375) (0.00016699420166015625, 3.095703125) (0.000167047119140625, 3.09765625) (0.0001671260986328125, 3.099609375) (0.00016723167419433594, 3.1015625) (0.00016736407470703123, 3.103515625) (0.00016752340698242187, 3.10546875) (0.00016770944213867186, 3.107421875) (0.00016792172241210937, 3.109375) (0.00016815951538085935, 3.111328125) (0.00016842169189453123, 3.11328125) (0.00016870675659179686, 3.115234375) (0.00016901272583007813, 3.1171875) (0.00016933724975585937, 3.119140625) (0.00016967762756347655, 3.12109375) (0.00017003076171875, 3.123046875) (0.000170393310546875, 3.125) (0.0001707615966796875, 3.126953125) (0.00017113180541992188, 3.12890625) (0.00017149984741210938, 3.130859375) (0.00017186148071289062, 3.1328125) (0.00017221234130859373, 3.134765625) (0.00017254785156249999, 3.13671875) (0.0001728633575439453, 3.138671875) (0.00017315402221679686, 3.140625) (0.00017341503906249999, 3.142578125) (0.0001736416015625, 3.14453125) (0.00017382902526855468, 3.146484375) (0.00017397282409667967, 3.1484375) (0.00017406875610351561, 3.150390625) (0.00017411282348632812, 3.15234375) (0.00017410140991210937, 3.154296875) (0.00017403118896484375, 3.15625) (0.0001738992004394531, 3.158203125) (0.00017370272827148438, 3.16015625) (0.00017343930053710936, 3.162109375) (0.00017310661315917967, 3.1640625) (0.00017270257568359373, 3.166015625) (0.00017222534179687498, 3.16796875) (0.00017167330932617186, 3.169921875) (0.00017104524230957032, 3.171875) (0.0001703401336669922, 3.173828125) (0.00016955743408203125, 3.17578125) (0.00016869699096679687, 3.177734375) (0.00016775912475585936, 3.1796875) (0.00016674465942382812, 3.181640625) (0.00016565481567382812, 3.18359375) (0.00016449122619628906, 3.185546875) (0.0001632559356689453, 3.1875) (0.0001619513244628906, 3.189453125) (0.00016058009338378905, 3.19140625) (0.00015914535522460938, 3.193359375) (0.00015765066528320313, 3.1953125) (0.00015609982299804687, 3.197265625) (0.00015449699401855468, 3.19921875) (0.00015284669494628907, 3.201171875) (0.0001511536865234375, 3.203125) (0.00014942301940917968, 3.205078125) (0.000147659912109375, 3.20703125) (0.00014586953735351563, 3.208984375) (0.00014405691528320312, 3.2109375) (0.00014222697448730467, 3.212890625) (0.00014038453674316406, 3.21484375) (0.0001385341339111328, 3.216796875) (0.00013668020629882812, 3.21875) (0.00013482690429687498, 3.220703125) (0.0001329781494140625, 3.22265625) (0.00013113792419433594, 3.224609375) (0.00012931028747558592, 3.2265625) (0.00012749919891357422, 3.228515625) (0.0001257086486816406, 3.23046875) (0.00012394252014160157, 3.232421875) (0.00012220446014404296, 3.234375) (0.00012049806976318359, 3.236328125) (0.00011882681274414061, 3.23828125) (0.00011719375610351561, 3.240234375) (0.00011560169982910156, 3.2421875) (0.00011405304718017578, 3.244140625) (0.00011254977416992186, 3.24609375) (0.00011109371948242187, 3.248046875) (0.00010968644714355468, 3.25) (0.00010832916259765624, 3.251953125) (0.00010702285766601562, 3.25390625) (0.0001057680206298828, 3.255859375) (0.00010456463623046875, 3.2578125) (0.00010341237640380859, 3.259765625) (0.00010231060791015624, 3.26171875) (0.00010125811767578124, 3.263671875) (0.00010025341033935546, 3.265625) (9.929464721679687e-05, 3.267578125) (9.837953186035155e-05, 3.26953125) (9.750602722167969e-05, 3.271484375) (9.667247009277344e-05, 3.2734375) (9.587711334228515e-05, 3.275390625) (9.511835479736328e-05, 3.27734375) (9.439508056640624e-05, 3.279296875) (9.370633697509765e-05, 3.28125) (9.305158996582031e-05, 3.283203125) (9.243096923828125e-05, 3.28515625) (9.184401702880859e-05, 3.287109375) (9.128971862792968e-05, 3.2890625) (9.076716613769531e-05, 3.291015625) (9.027536010742187e-05, 3.29296875) (8.98128433227539e-05, 3.294921875) (8.937805938720702e-05, 3.296875) (8.896865081787109e-05, 3.298828125) (8.858139038085938e-05, 3.30078125) (8.821412658691405e-05, 3.302734375) (8.786562347412109e-05, 3.3046875) (8.753511047363281e-05, 3.306640625) (8.722258758544921e-05, 3.30859375) (8.692820739746093e-05, 3.310546875) (8.665203857421874e-05, 3.3125) (8.639530944824218e-05, 3.314453125) (8.616007995605468e-05, 3.31640625) (8.594788360595702e-05, 3.318359375) (8.576049041748046e-05, 3.3203125) (8.559835815429687e-05, 3.322265625) (8.54601593017578e-05, 3.32421875) (8.534689331054686e-05, 3.326171875) (8.526080322265624e-05, 3.328125) (8.520541381835938e-05, 3.330078125) (8.518701934814453e-05, 3.33203125) (8.520869445800781e-05, 3.333984375) (8.526896667480468e-05, 3.3359375) (8.536672973632812e-05, 3.337890625) (8.550013732910156e-05, 3.33984375) (8.566238403320313e-05, 3.341796875) (8.584510803222656e-05, 3.34375) (8.603361511230469e-05, 3.345703125) (8.620539855957031e-05, 3.34765625) (8.634519958496093e-05, 3.349609375) (8.644450378417968e-05, 3.3515625) (8.649909973144531e-05, 3.353515625) (8.651274871826172e-05, 3.35546875) (8.648843383789062e-05, 3.357421875) (8.642625427246093e-05, 3.359375) (8.632879638671874e-05, 3.361328125) (8.61989517211914e-05, 3.36328125) (8.604002380371094e-05, 3.365234375) (8.586018371582032e-05, 3.3671875) (8.566331481933593e-05, 3.369140625) (8.544789886474609e-05, 3.37109375) (8.522374725341796e-05, 3.373046875) (8.500668334960937e-05, 3.375) (8.482427978515625e-05, 3.376953125) (8.472140502929688e-05, 3.37890625) (8.472663879394531e-05, 3.380859375) (8.484877014160156e-05, 3.3828125) (8.508897399902344e-05, 3.384765625) (8.543337249755859e-05, 3.38671875) (8.586083221435546e-05, 3.388671875) (8.635366058349608e-05, 3.390625) (8.688382720947265e-05, 3.392578125) (8.741210174560547e-05, 3.39453125) (8.790837097167968e-05, 3.396484375) (8.834668731689453e-05, 3.3984375) (8.871129608154296e-05, 3.400390625) (8.900437927246093e-05, 3.40234375) (8.921749114990233e-05, 3.404296875) (8.932952117919922e-05, 3.40625) (8.930677795410156e-05, 3.408203125) (8.909669494628906e-05, 3.41015625) (8.866443634033203e-05, 3.412109375) (8.800337219238281e-05, 3.4140625) (8.711611938476562e-05, 3.416015625) (8.602040100097656e-05, 3.41796875) (8.475042724609374e-05, 3.419921875) (8.334062194824219e-05, 3.421875) (8.184217071533203e-05, 3.423828125) (8.032943725585938e-05, 3.42578125) (7.886122131347655e-05, 3.427734375) (7.747959899902343e-05, 3.4296875) (7.621290588378906e-05, 3.431640625) (7.506253051757812e-05, 3.43359375) (7.403008270263671e-05, 3.435546875) (7.313392639160157e-05, 3.4375) (7.240066528320312e-05, 3.439453125) (7.186164855957032e-05, 3.44140625) (7.153311157226562e-05, 3.443359375) (7.140730285644531e-05, 3.4453125) (7.14658203125e-05, 3.447265625) (7.168624114990234e-05, 3.44921875) (7.203500366210938e-05, 3.451171875) (7.245939636230469e-05, 3.453125) (7.287808227539062e-05, 3.455078125) (7.318118286132812e-05, 3.45703125) (7.326339721679687e-05, 3.458984375) (7.304704284667969e-05, 3.4609375) (7.248695373535156e-05, 3.462890625) (7.154000091552733e-05, 3.46484375) (7.01454849243164e-05, 3.466796875) (6.828457641601563e-05, 3.46875) (6.598734283447265e-05, 3.470703125) (6.336337661743164e-05, 3.47265625) (6.0630912780761715e-05, 3.474609375) (5.799051666259765e-05, 3.4765625) (5.5590309143066406e-05, 3.478515625) (5.3654266357421875e-05, 3.48046875) (5.249372482299804e-05, 3.482421875) (5.2351615905761715e-05, 3.484375) (5.340909957885742e-05, 3.486328125) (5.566753005981445e-05, 3.48828125) (5.8859603881835935e-05, 3.490234375) (6.278726196289062e-05, 3.4921875) (6.733082580566407e-05, 3.494140625) (7.219493865966797e-05, 3.49609375) (7.69033203125e-05, 3.498046875) (8.103076171875e-05, 3.5) (8.42786865234375e-05, 3.501953125) (8.653282165527343e-05, 3.50390625) (8.801007080078125e-05, 3.505859375) (8.886385345458984e-05, 3.5078125) (8.909439086914063e-05, 3.509765625) (9.002798461914063e-05, 3.51171875) (9.428569030761719e-05, 3.513671875) (0.00010403411865234374, 3.515625) (0.00012147899627685547, 3.517578125) (0.00014547821044921875, 3.51953125) (0.00017125936889648437, 3.521484375) (0.0001967244873046875, 3.5234375) (0.00022077122497558594, 3.525390625) (0.0002474804382324219, 3.52734375) (0.00028696301269531246, 3.529296875) (0.000344241943359375, 3.53125) (0.0004209530029296875, 3.533203125) (0.0005108598327636718, 3.53515625) (0.0005972838134765625, 3.537109375) (0.0006648902587890625, 3.5390625) (0.000699154296875, 3.541015625) (0.00069047314453125, 3.54296875) (0.00063787744140625, 3.544921875) (0.0005409386596679687, 3.546875) (0.0004004817199707031, 3.548828125) (0.00021843165588378906, 3.55078125) (-2.1670455932617186e-06, 3.552734375) (-0.0002490598602294922, 3.5546875) (-0.0004991850280761719, 3.556640625) (-0.0007235824584960937, 3.55859375) (-0.0008921624755859374, 3.560546875) (-0.000985458740234375, 3.5625) (-0.0010027322998046875, 3.564453125) (-0.0009562432861328125, 3.56640625) (-0.0008675684814453124, 3.568359375) (-0.0007588885498046874, 3.5703125) (-0.000644007568359375, 3.572265625) (-0.0005331056518554688, 3.57421875) (-0.0004343110656738281, 3.576171875) (-0.000354917236328125, 3.578125) (-0.000302406982421875, 3.580078125) (-0.0002789873352050781, 3.58203125) (-0.00027827133178710936, 3.583984375) (-0.00028604400634765623, 3.5859375) (-0.0002865067138671875, 3.587890625) (-0.000269098876953125, 3.58984375) (-0.00023256672668457032, 3.591796875) (-0.00018598422241210936, 3.59375) (-0.000141875244140625, 3.595703125) (-0.00010859731292724609, 3.59765625) (-8.86278076171875e-05, 3.599609375) (-7.790206909179687e-05, 3.6015625) (-6.904463195800781e-05, 3.603515625) (-5.7843036651611327e-05, 3.60546875) (-4.3202484130859375e-05, 3.607421875) (-2.605008316040039e-05, 3.609375) (-9.220819473266602e-06, 3.611328125) (5.7887425422668456e-06, 3.61328125) (1.89108772277832e-05, 3.615234375) (3.0095726013183592e-05, 3.6171875) (3.964205169677734e-05, 3.619140625) (4.7717582702636716e-05, 3.62109375) (5.4067104339599605e-05, 3.623046875) (5.852936553955078e-05, 3.625) (6.128266143798828e-05, 3.626953125) (6.257632446289063e-05, 3.62890625) (6.268474578857422e-05, 3.630859375) (6.196646881103515e-05, 3.6328125) (6.068364334106445e-05, 3.634765625) (5.902191925048828e-05, 3.63671875) (5.723743057250976e-05, 3.638671875) (5.557868194580078e-05, 3.640625) (5.4162750244140624e-05, 3.642578125) (5.3061100006103515e-05, 3.64453125) (5.229715347290039e-05, 3.646484375) (5.182898330688476e-05, 3.6484375) (5.163861083984375e-05, 3.650390625) (5.169442367553711e-05, 3.65234375) (5.1915779113769526e-05, 3.654296875) (5.221110153198242e-05, 3.65625) (5.249507141113281e-05, 3.658203125) (5.2697204589843744e-05, 3.66015625) (5.277899932861328e-05, 3.662109375) (5.272492980957031e-05, 3.6640625) (5.253808212280273e-05, 3.666015625) (5.224958038330078e-05, 3.66796875) (5.190052795410156e-05, 3.669921875) (5.1543678283691404e-05, 3.671875) (5.1232486724853516e-05, 3.673828125) (5.099865341186523e-05, 3.67578125) (5.086634826660156e-05, 3.677734375) (5.0848655700683594e-05, 3.6796875) (5.094810104370117e-05, 3.681640625) (5.1182361602783204e-05, 3.68359375) (5.157801055908203e-05, 3.685546875) (5.2157081604003905e-05, 3.6875) (5.294154739379883e-05, 3.689453125) (5.394472885131836e-05, 3.69140625) (5.516407394409179e-05, 3.693359375) (5.6591285705566404e-05, 3.6953125) (5.819501495361328e-05, 3.697265625) (5.991217041015625e-05, 3.69921875) (6.166895294189452e-05, 3.701171875) (6.338309478759765e-05, 3.703125) (6.498614501953125e-05, 3.705078125) (6.643782806396484e-05, 3.70703125) (6.771083068847656e-05, 3.708984375) (6.879129028320313e-05, 3.7109375) (6.967689514160156e-05, 3.712890625) (7.03658447265625e-05, 3.71484375) (7.085864257812499e-05, 3.716796875) (7.11623077392578e-05, 3.71875) (7.1282470703125e-05, 3.720703125) (7.122480010986327e-05, 3.72265625) (7.099999237060547e-05, 3.724609375) (7.062030792236328e-05, 3.7265625) (7.011325073242187e-05, 3.728515625) (6.952326965332031e-05, 3.73046875) (6.890220642089844e-05, 3.732421875) (6.830573272705078e-05, 3.734375) (6.777419281005859e-05, 3.736328125) (6.733248901367187e-05, 3.73828125) (6.699954223632812e-05, 3.740234375) (6.678559875488281e-05, 3.7421875) (6.669390106201171e-05, 3.744140625) (6.672374725341796e-05, 3.74609375) (6.687049865722656e-05, 3.748046875) (6.712907409667968e-05, 3.75) (6.750358581542969e-05, 3.751953125) (6.799978637695312e-05, 3.75390625) (6.861776733398437e-05, 3.755859375) (6.935155487060547e-05, 3.7578125) (7.018267822265625e-05, 3.759765625) (7.108807373046875e-05, 3.76171875) (7.204167175292969e-05, 3.763671875) (7.301542663574219e-05, 3.765625) (7.398660278320312e-05, 3.767578125) (7.492967987060547e-05, 3.76953125) (7.58194580078125e-05, 3.771484375) (7.663819885253906e-05, 3.7734375) (7.737477111816405e-05, 3.775390625) (7.801902770996094e-05, 3.77734375) (7.855756378173828e-05, 3.779296875) (7.896630859375e-05, 3.78125) (7.920487976074218e-05, 3.783203125) (7.923866271972657e-05, 3.78515625) (7.904932403564453e-05, 3.787109375) (7.863394927978515e-05, 3.7890625) (7.800465393066406e-05, 3.791015625) (7.717529296875e-05, 3.79296875) (7.616600799560547e-05, 3.794921875) (7.500536346435546e-05, 3.796875) (7.373296356201172e-05, 3.798828125) (7.240422058105469e-05, 3.80078125) (7.107044219970702e-05, 3.802734375) (6.976970672607422e-05, 3.8046875) (6.852989196777344e-05, 3.806640625) (6.737896728515625e-05, 3.80859375) (6.635449981689453e-05, 3.810546875) (6.551122283935547e-05, 3.8125) (6.491943359375e-05, 3.814453125) (6.463511657714844e-05, 3.81640625) (6.469277954101562e-05, 3.818359375) (6.510903167724609e-05, 3.8203125) (6.588552856445312e-05, 3.822265625) (6.702072143554687e-05, 3.82421875) (6.849976348876953e-05, 3.826171875) (7.029001617431641e-05, 3.828125) (7.233597564697265e-05, 3.830078125) (7.45631866455078e-05, 3.83203125) (7.690753936767578e-05, 3.833984375) (7.932147216796874e-05, 3.8359375) (8.176913452148437e-05, 3.837890625) (8.421610260009766e-05, 3.83984375) (8.661841583251953e-05, 3.841796875) (8.891806030273437e-05, 3.84375) (9.104934692382813e-05, 3.845703125) (9.296124267578125e-05, 3.84765625) (9.461642456054687e-05, 3.849609375) (9.598738098144531e-05, 3.8515625) (9.705282592773437e-05, 3.853515625) (9.779177856445311e-05, 3.85546875) (9.819585418701171e-05, 3.857421875) (9.82730484008789e-05, 3.859375) (9.805190277099609e-05, 3.861328125) (9.757420349121093e-05, 3.86328125) (9.686975860595702e-05, 3.865234375) (9.595511627197265e-05, 3.8671875) (9.483937072753906e-05, 3.869140625) (9.352896118164062e-05, 3.87109375) (9.20362319946289e-05, 3.873046875) (9.038117218017577e-05, 3.875) (8.858113861083984e-05, 3.876953125) (8.664289855957031e-05, 3.87890625) (8.456845092773437e-05, 3.880859375) (8.235575866699218e-05, 3.8828125) (8.000712585449219e-05, 3.884765625) (7.753235626220703e-05, 3.88671875) (7.493702697753906e-05, 3.888671875) (7.222171020507812e-05, 3.890625) (6.937916564941405e-05, 3.892578125) (6.639672088623046e-05, 3.89453125) (6.327338790893554e-05, 3.896484375) (6.002002716064453e-05, 3.8984375) (5.664606857299804e-05, 3.900390625) (5.3159309387207026e-05, 3.90234375) (4.956063461303711e-05, 3.904296875) (4.58406982421875e-05, 3.90625) (4.1999694824218746e-05, 3.908203125) (3.8049686431884764e-05, 3.91015625) (3.400737762451172e-05, 3.912109375) (2.989796447753906e-05, 3.9140625) (2.573951721191406e-05, 3.916015625) (2.153572845458984e-05, 3.91796875) (1.7287874221801757e-05, 3.919921875) (1.299574851989746e-05, 3.921875) (8.657522201538086e-06, 3.923828125) (4.272482395172119e-06, 3.92578125) (-1.7313694953918456e-07, 3.927734375) (-4.711018085479736e-06, 3.9296875) (-9.36308479309082e-06, 3.931640625) (-1.4135174751281738e-05, 3.93359375) (-1.9014287948608396e-05, 3.935546875) (-2.396184539794922e-05, 3.9375) (-2.8944402694702148e-05, 3.939453125) (-3.3942840576171874e-05, 3.94140625) (-3.894355392456055e-05, 3.943359375) (-4.39424819946289e-05, 3.9453125) (-4.8928314208984375e-05, 3.947265625) (-5.387105560302734e-05, 3.94921875) (-5.873376083374023e-05, 3.951171875) (-6.348019409179687e-05, 3.953125) (-6.807300567626952e-05, 3.955078125) (-7.247213745117187e-05, 3.95703125) (-7.662203979492187e-05, 3.958984375) (-8.044148254394531e-05, 3.9609375) (-8.385723876953124e-05, 3.962890625) (-8.682755279541016e-05, 3.96484375) (-8.934465026855468e-05, 3.966796875) (-9.143798828125e-05, 3.96875) (-9.314320373535156e-05, 3.970703125) (-9.448490142822265e-05, 3.97265625) (-9.548455810546875e-05, 3.974609375) (-9.616420745849608e-05, 3.9765625) (-9.655838775634765e-05, 3.978515625) (-9.671981811523436e-05, 3.98046875) (-9.67118911743164e-05, 3.982421875) (-9.659306335449219e-05, 3.984375) (-9.641295623779297e-05, 3.986328125) (-9.62264175415039e-05, 3.98828125) (-9.610307312011718e-05, 3.990234375) (-9.613495635986328e-05, 3.9921875) (-9.641475677490234e-05, 3.994140625) (-9.699787902832031e-05, 3.99609375) (-9.789604187011718e-05, 3.998046875) (-9.908979034423828e-05, 4.0) (-0.00010054869079589843, 4.001953125) (-0.00010224645233154296, 4.00390625) (-0.00010415934753417969, 4.005859375) (-0.00010624993896484375, 4.0078125) (-0.00010845922088623046, 4.009765625) (-0.0001107158203125, 4.01171875) (-0.00011293801879882812, 4.013671875) (-0.00011505068206787109, 4.015625) (-0.00011699913787841796, 4.017578125) (-0.00011872528076171875, 4.01953125) (-0.00012016073608398438, 4.021484375) (-0.0001212316665649414, 4.0234375) (-0.00012186430358886718, 4.025390625) (-0.00012202710723876953, 4.02734375) (-0.00012174432373046875, 4.029296875) (-0.00012105735778808593, 4.03125) (-0.00012001686096191405, 4.033203125) (-0.00011867420959472655, 4.03515625) (-0.000117071533203125, 4.037109375) (-0.00011528555297851562, 4.0390625) (-0.00011343397521972656, 4.041015625) (-0.00011164164733886719, 4.04296875) (-0.00011004496765136719, 4.044921875) (-0.00010877682495117187, 4.046875) (-0.00010793353271484374, 4.048828125) (-0.00010763005065917969, 4.05078125) (-0.00010802009582519531, 4.052734375) (-0.00010918775939941406, 4.0546875) (-0.00011113881683349608, 4.056640625) (-0.00011377155303955078, 4.05859375) (-0.00011680821228027343, 4.060546875) (-0.00011993055725097656, 4.0625) (-0.0001228546142578125, 4.064453125) (-0.0001252312316894531, 4.06640625) (-0.0001266584014892578, 4.068359375) (-0.00012686100006103514, 4.0703125) (-0.00012568743896484375, 4.072265625) (-0.0001231861877441406, 4.07421875) (-0.0001197786407470703, 4.076171875) (-0.00011602301025390624, 4.078125) (-0.00011249270629882812, 4.080078125) (-0.00010984251403808594, 4.08203125) (-0.00010865161895751953, 4.083984375) (-0.00010930616760253905, 4.0859375) (-0.00011202262878417968, 4.087890625) (-0.00011672904968261718, 4.08984375) (-0.00012297077941894532, 4.091796875) (-0.00012900709533691406, 4.09375) (-0.00013189068603515624, 4.095703125) (-0.00012905924987792968, 4.09765625) (-0.00011801106262207031, 4.099609375) (-9.946719360351563e-05, 4.1015625) (-7.781307220458984e-05, 4.103515625) (-5.456025695800781e-05, 4.10546875) (-2.988319396972656e-05, 4.107421875) (3.0945587158203125e-07, 4.109375) (4.6291946411132814e-05, 4.111328125) (0.00011171012878417968, 4.11328125) (0.0001952578430175781, 4.115234375) (0.0002910837707519531, 4.1171875) (0.00038378958129882813, 4.119140625) (0.00046237316894531246, 4.12109375) (0.0005188943481445312, 4.123046875) (0.0005438324584960937, 4.125) (0.0005341163330078125, 4.126953125) (0.0004839453735351562, 4.12890625) (0.0003870930480957031, 4.130859375) (0.00024588064575195313, 4.1328125) (6.374124908447265e-05, 4.134765625) (-0.00014860736083984375, 4.13671875) (-0.00037395251464843746, 4.138671875) (-0.000598019287109375, 4.140625) (-0.0008034940795898437, 4.142578125) (-0.0009758682861328125, 4.14453125) (-0.0011074835205078125, 4.146484375) (-0.0011928118896484374, 4.1484375) (-0.00123422265625, 4.150390625) (-0.0012386724853515624, 4.15234375) (-0.0012113935546875, 4.154296875) (-0.0011571536865234374, 4.15625) (-0.00107928955078125, 4.158203125) (-0.000980980224609375, 4.16015625) (-0.000870570068359375, 4.162109375) (-0.000760962890625, 4.1640625) (-0.000662382080078125, 4.166015625) (-0.000580836181640625, 4.16796875) (-0.0005152196044921875, 4.169921875) (-0.0004572190246582031, 4.171875) (-0.00040169073486328124, 4.173828125) (-0.0003475281372070312, 4.17578125) (-0.00029676055908203124, 4.177734375) (-0.0002548953247070312, 4.1796875) (-0.00022381753540039062, 4.181640625) (-0.00020195385742187498, 4.18359375) (-0.00018712176513671874, 4.185546875) (-0.00017630621337890625, 4.1875) (-0.00016781315612792968, 4.189453125) (-0.00016118821716308592, 4.19140625) (-0.00015580755615234374, 4.193359375) (-0.00015126889038085938, 4.1953125) (-0.00014752018737792968, 4.197265625) (-0.00014450274658203124, 4.19921875) (-0.0001420036163330078, 4.201171875) (-0.00013945553588867187, 4.203125) (-0.00013622512817382812, 4.205078125) (-0.0001320417022705078, 4.20703125) (-0.00012702416229248048, 4.208984375) (-0.00012145518493652343, 4.2109375) (-0.00011542520141601562, 4.212890625) (-0.00010894927215576172, 4.21484375) (-0.00010227904510498046, 4.216796875) (-9.607574462890624e-05, 4.21875) (-9.113330841064453e-05, 4.220703125) (-8.786376953125e-05, 4.22265625) (-8.624732971191406e-05, 4.224609375) (-8.603276062011719e-05, 4.2265625) (-8.695594787597656e-05, 4.228515625) (-8.87980728149414e-05, 4.23046875) (-9.128805541992188e-05, 4.232421875) (-9.39074478149414e-05, 4.234375) (-9.601272583007812e-05, 4.236328125) (-9.72397003173828e-05, 4.23828125) (-9.750318145751952e-05, 4.240234375) (-9.68927993774414e-05, 4.2421875) (-9.560183715820312e-05, 4.244140625) (-9.376727294921874e-05, 4.24609375) (-9.148200225830078e-05, 4.248046875) (-8.894981384277344e-05, 4.25) (-8.64438018798828e-05, 4.251953125) (-8.413665771484375e-05, 4.25390625) (-8.212388610839843e-05, 4.255859375) (-8.04158477783203e-05, 4.2578125) (-7.894662475585938e-05, 4.259765625) (-7.769711303710937e-05, 4.26171875) (-7.666630554199218e-05, 4.263671875) (-7.582239532470703e-05, 4.265625) (-7.51265869140625e-05, 4.267578125) (-7.452777099609375e-05, 4.26953125) (-7.396753692626952e-05, 4.271484375) (-7.341168212890625e-05, 4.2734375) (-7.283941650390625e-05, 4.275390625) (-7.223158264160156e-05, 4.27734375) (-7.159083557128906e-05, 4.279296875) (-7.091361999511718e-05, 4.28125) (-7.0186767578125e-05, 4.283203125) (-6.941670989990235e-05, 4.28515625) (-6.860914611816406e-05, 4.287109375) (-6.778060913085938e-05, 4.2890625) (-6.696653747558594e-05, 4.291015625) (-6.617908477783203e-05, 4.29296875) (-6.541719818115234e-05, 4.294921875) (-6.4682373046875e-05, 4.296875) (-6.396765899658203e-05, 4.298828125) (-6.327489471435546e-05, 4.30078125) (-6.261721801757813e-05, 4.302734375) (-6.19968490600586e-05, 4.3046875) (-6.141039276123046e-05, 4.306640625) (-6.0853004455566404e-05, 4.30859375) (-6.030621337890625e-05, 4.310546875) (-5.975661087036132e-05, 4.3125) (-5.919950866699219e-05, 4.314453125) (-5.8617252349853515e-05, 4.31640625) (-5.7989257812499996e-05, 4.318359375) (-5.7288421630859374e-05, 4.3203125) (-5.647502517700195e-05, 4.322265625) (-5.5526947021484375e-05, 4.32421875) (-5.443922424316406e-05, 4.326171875) (-5.3208995819091795e-05, 4.328125) (-5.184074020385742e-05, 4.330078125) (-5.033943176269531e-05, 4.33203125) (-4.870603561401367e-05, 4.333984375) (-4.695029830932617e-05, 4.3359375) (-4.5089839935302735e-05, 4.337890625) (-4.313925170898437e-05, 4.33984375) (-4.1114372253417964e-05, 4.341796875) (-3.902891540527343e-05, 4.34375) (-3.6891540527343746e-05, 4.345703125) (-3.471762084960937e-05, 4.34765625) (-3.252700805664062e-05, 4.349609375) (-3.0341991424560544e-05, 4.3515625) (-2.8189823150634766e-05, 4.353515625) (-2.609149932861328e-05, 4.35546875) (-2.406020164489746e-05, 4.357421875) (-2.2107887268066405e-05, 4.359375) (-2.0243896484374998e-05, 4.361328125) (-1.847534942626953e-05, 4.36328125) (-1.6809249877929686e-05, 4.365234375) (-1.5248178482055663e-05, 4.3671875) (-1.3789811134338378e-05, 4.369140625) (-1.2434005737304688e-05, 4.37109375) (-1.1182353019714354e-05, 4.373046875) (-1.0036817550659179e-05, 4.375) (-9.00089168548584e-06, 4.376953125) (-8.075765609741211e-06, 4.37890625) (-7.260066986083984e-06, 4.380859375) (-6.55190086364746e-06, 4.3828125) (-5.948410987854004e-06, 4.384765625) (-5.4466800689697265e-06, 4.38671875) (-5.044120788574218e-06, 4.388671875) (-4.737427234649658e-06, 4.390625) (-4.522687435150146e-06, 4.392578125) (-4.396272659301758e-06, 4.39453125) (-4.35462999343872e-06, 4.396484375) (-4.39471435546875e-06, 4.3984375) (-4.514204025268555e-06, 4.400390625) (-4.7097635269165034e-06, 4.40234375) (-4.97700548171997e-06, 4.404296875) (-5.3111362457275386e-06, 4.40625) (-5.706793785095215e-06, 4.408203125) (-6.158531188964844e-06, 4.41015625) (-6.660966873168945e-06, 4.412109375) (-7.20828914642334e-06, 4.4140625) (-7.794251918792725e-06, 4.416015625) (-8.412878036499023e-06, 4.41796875) (-9.058592796325684e-06, 4.419921875) (-9.72609519958496e-06, 4.421875) (-1.0410406112670897e-05, 4.423828125) (-1.1106612205505371e-05, 4.42578125) (-1.1809782028198241e-05, 4.427734375) (-1.2515164375305176e-05, 4.4296875) (-1.321825885772705e-05, 4.431640625) (-1.3914691925048828e-05, 4.43359375) (-1.4600154876708984e-05, 4.435546875) (-1.5270535469055175e-05, 4.4375) (-1.592190170288086e-05, 4.439453125) (-1.655055618286133e-05, 4.44140625) (-1.715314483642578e-05, 4.443359375) (-1.772658157348633e-05, 4.4453125) (-1.8268054962158202e-05, 4.447265625) (-1.8775087356567383e-05, 4.44921875) (-1.9245557785034177e-05, 4.451171875) (-1.9677698135375974e-05, 4.453125) (-2.0070165634155272e-05, 4.455078125) (-2.042201805114746e-05, 4.45703125) (-2.073270797729492e-05, 4.458984375) (-2.100212287902832e-05, 4.4609375) (-2.1230556488037107e-05, 4.462890625) (-2.141873550415039e-05, 4.46484375) (-2.1567861557006834e-05, 4.466796875) (-2.1679515838623048e-05, 4.46875) (-2.1755632400512695e-05, 4.470703125) (-2.1798530578613282e-05, 4.47265625) (-2.181085968017578e-05, 4.474609375) (-2.179563331604004e-05, 4.4765625) (-2.1756248474121093e-05, 4.478515625) (-2.1696315765380857e-05, 4.48046875) (-2.161959648132324e-05, 4.482421875) (-2.1530033111572263e-05, 4.484375) (-2.143164825439453e-05, 4.486328125) (-2.1328529357910157e-05, 4.48828125) (-2.1224777221679687e-05, 4.490234375) (-2.1124393463134764e-05, 4.4921875) (-2.1031202316284178e-05, 4.494140625) (-2.094888687133789e-05, 4.49609375) (-2.088092803955078e-05, 4.498046875) (-2.0830585479736326e-05, 4.5) (-2.080090522766113e-05, 4.501953125) (-2.0794673919677734e-05, 4.50390625) (-2.0814395904541014e-05, 4.505859375) (-2.0862297058105468e-05, 4.5078125) (-2.0940284729003907e-05, 4.509765625) (-2.1049930572509764e-05, 4.51171875) (-2.1192428588867185e-05, 4.513671875) (-2.1368547439575194e-05, 4.515625) (-2.1578598022460937e-05, 4.517578125) (-2.1822414398193358e-05, 4.51953125) (-2.2099342346191404e-05, 4.521484375) (-2.2408260345458983e-05, 4.5234375) (-2.274760818481445e-05, 4.525390625) (-2.3115388870239257e-05, 4.52734375) (-2.350922393798828e-05, 4.529296875) (-2.392635726928711e-05, 4.53125) (-2.4363691329956054e-05, 4.533203125) (-2.4817775726318358e-05, 4.53515625) (-2.5284847259521484e-05, 4.537109375) (-2.576081085205078e-05, 4.5390625) (-2.624124526977539e-05, 4.541015625) (-2.6721420288085937e-05, 4.54296875) (-2.719637107849121e-05, 4.544921875) (-2.7660926818847654e-05, 4.546875) (-2.8109813690185544e-05, 4.548828125) (-2.853772163391113e-05, 4.55078125) (-2.893939208984375e-05, 4.552734375) (-2.9309709548950194e-05, 4.5546875) (-2.9643775939941403e-05, 4.556640625) (-2.9936952590942382e-05, 4.55859375) (-3.018490982055664e-05, 4.560546875) (-3.038364028930664e-05, 4.5625) (-3.052946853637695e-05, 4.564453125) (-3.0619045257568356e-05, 4.56640625) (-3.064936828613281e-05, 4.568359375) (-3.06178035736084e-05, 4.5703125) (-3.052210807800293e-05, 4.572265625) (-3.036046028137207e-05, 4.57421875) (-3.0131488800048828e-05, 4.576171875) (-2.983430290222168e-05, 4.578125) (-2.9468517303466796e-05, 4.580078125) (-2.9034246444702146e-05, 4.58203125) (-2.85320930480957e-05, 4.583984375) (-2.79631290435791e-05, 4.5859375) (-2.732883071899414e-05, 4.587890625) (-2.663106346130371e-05, 4.58984375) (-2.5872020721435546e-05, 4.591796875) (-2.5054214477539062e-05, 4.59375) (-2.4180458068847656e-05, 4.595703125) (-2.3253849029541014e-05, 4.59765625) (-2.2277767181396485e-05, 4.599609375) (-2.125589370727539e-05, 4.6015625) (-2.019219970703125e-05, 4.603515625) (-1.909092330932617e-05, 4.60546875) (-1.7956533432006834e-05, 4.607421875) (-1.679367446899414e-05, 4.609375) (-1.5607086181640625e-05, 4.611328125) (-1.4401530265808105e-05, 4.61328125) (-1.318172264099121e-05, 4.615234375) (-1.1952248573303222e-05, 4.6171875) (-1.0717499732971192e-05, 4.619140625) (-9.481630325317382e-06, 4.62109375) (-8.248527526855469e-06, 4.623046875) (-7.021802425384521e-06, 4.625) (-5.804786682128906e-06, 4.626953125) (-4.600523948669433e-06, 4.62890625) (-3.411760091781616e-06, 4.630859375) (-2.240931510925293e-06, 4.6328125) (-1.09014892578125e-06, 4.634765625) (3.882338479161262e-08, 4.63671875) (1.1445794105529786e-06, 4.638671875) (2.226091384887695e-06, 4.640625) (3.282712459564209e-06, 4.642578125) (4.314164161682128e-06, 4.64453125) (5.320518016815186e-06, 4.646484375) (6.302156925201416e-06, 4.6484375) (7.259734153747558e-06, 4.650390625) (8.194138526916503e-06, 4.65234375) (9.10646629333496e-06, 4.654296875) (9.997998237609863e-06, 4.65625) (1.0870190620422363e-05, 4.658203125) (1.1724673271179198e-05, 4.66015625) (1.256325340270996e-05, 4.662109375) (1.338792610168457e-05, 4.6640625) (1.4200885772705078e-05, 4.666015625) (1.50045108795166e-05, 4.66796875) (1.5801342010498047e-05, 4.669921875) (1.6594053268432617e-05, 4.671875) (1.7385387420654298e-05, 4.673828125) (1.8178123474121093e-05, 4.67578125) (1.897503089904785e-05, 4.677734375) (1.9778804779052734e-05, 4.6796875) (2.05920352935791e-05, 4.681640625) (2.1417171478271485e-05, 4.68359375) (2.2256502151489256e-05, 4.685546875) (2.3112161636352538e-05, 4.6875) (2.3986129760742187e-05, 4.689453125) (2.48802375793457e-05, 4.69140625) (2.5796144485473633e-05, 4.693359375) (2.6735363006591797e-05, 4.6953125) (2.769922637939453e-05, 4.697265625) (2.868891716003418e-05, 4.69921875) (2.9705429077148436e-05, 4.701171875) (3.0749591827392574e-05, 4.703125) (3.182206344604492e-05, 4.705078125) (3.292334747314453e-05, 4.70703125) (3.405379486083984e-05, 4.708984375) (3.521363830566406e-05, 4.7109375) (3.6403015136718746e-05, 4.712890625) (3.762202453613281e-05, 4.71484375) (3.887070846557617e-05, 4.716796875) (4.014906311035156e-05, 4.71875) (4.145703887939453e-05, 4.720703125) (4.2794559478759766e-05, 4.72265625) (4.416149139404297e-05, 4.724609375) (4.5557613372802735e-05, 4.7265625) (4.6982616424560544e-05, 4.728515625) (4.843609237670898e-05, 4.73046875) (4.9917514801025386e-05, 4.732421875) (5.142623901367187e-05, 4.734375) (5.296155166625976e-05, 4.736328125) (5.4522640228271484e-05, 4.73828125) (5.610865783691406e-05, 4.740234375) (5.7718692779541015e-05, 4.7421875) (5.935182189941406e-05, 4.744140625) (6.100709533691406e-05, 4.74609375) (6.268357849121093e-05, 4.748046875) (6.438029479980469e-05, 4.75) (6.609627532958984e-05, 4.751953125) (6.783045959472655e-05, 4.75390625) (6.958174133300781e-05, 4.755859375) (7.13489990234375e-05, 4.7578125) (7.31309814453125e-05, 4.759765625) (7.492639923095703e-05, 4.76171875) (7.67338638305664e-05, 4.763671875) (7.855192565917968e-05, 4.765625) (8.037902069091797e-05, 4.767578125) (8.22134780883789e-05, 4.76953125) (8.405354309082031e-05, 4.771484375) (8.589735412597656e-05, 4.7734375) (8.77428970336914e-05, 4.775390625) (8.958800506591796e-05, 4.77734375) (9.143035888671875e-05, 4.779296875) (9.326748657226562e-05, 4.78125) (9.509676361083984e-05, 4.783203125) (9.691542053222656e-05, 4.78515625) (9.872059631347656e-05, 4.787109375) (0.00010050929260253906, 4.7890625) (0.00010227847290039063, 4.791015625) (0.00010402507019042969, 4.79296875) (0.00010574597930908203, 4.794921875) (0.00010743816375732421, 4.796875) (0.00010909856414794921, 4.798828125) (0.00011072420501708984, 4.80078125) (0.00011231208801269531, 4.802734375) (0.00011385931396484374, 4.8046875) (0.00011536304473876952, 4.806640625) (0.00011682050323486328, 4.80859375) (0.00011822898864746093, 4.810546875) (0.00011958592224121093, 4.8125) (0.0001208888473510742, 4.814453125) (0.00012213543701171875, 4.81640625) (0.0001233235626220703, 4.818359375) (0.00012445130920410156, 4.8203125) (0.00012551696014404296, 4.822265625) (0.00012651903533935545, 4.82421875) (0.00012745633697509764, 4.826171875) (0.00012832785034179686, 4.828125) (0.0001291329650878906, 4.830078125) (0.0001298712615966797, 4.83203125) (0.00013054264831542967, 4.833984375) (0.00013114730834960938, 4.8359375) (0.00013168580627441405, 4.837890625) (0.00013215899658203123, 4.83984375) (0.00013256808471679687, 4.841796875) (0.00013291468811035156, 4.84375) (0.00013320072937011719, 4.845703125) (0.00013342848205566405, 4.84765625) (0.0001336005401611328, 4.849609375) (0.00013371981811523436, 4.8515625) (0.00013378952026367187, 4.853515625) (0.00013381317138671874, 4.85546875) (0.00013379440307617187, 4.857421875) (0.00013373716735839844, 4.859375) (0.00013364555358886718, 4.861328125) (0.00013352377319335936, 4.86328125) (0.00013337622070312498, 4.865234375) (0.00013320741271972655, 4.8671875) (0.00013302194213867186, 4.869140625) (0.00013282449340820313, 4.87109375) (0.0001326197814941406, 4.873046875) (0.00013241250610351561, 4.875) (0.00013220744323730468, 4.876953125) (0.00013200926208496093, 4.87890625) (0.00013182260131835936, 4.880859375) (0.00013165190124511718, 4.8828125) (0.00013150152587890624, 4.884765625) (0.00013137570190429687, 4.88671875) (0.00013127836608886717, 4.888671875) (0.00013121331787109374, 4.890625) (0.00013118405151367186, 4.892578125) (0.0001311938018798828, 4.89453125) (0.0001312455291748047, 4.896484375) (0.00013134185791015623, 4.8984375) (0.00013148512268066405, 4.900390625) (0.00013167726135253905, 4.90234375) (0.00013191981506347655, 4.904296875) (0.00013221395874023437, 4.90625) (0.00013256040954589843, 4.908203125) (0.00013295945739746093, 4.91015625) (0.0001334110107421875, 4.912109375) (0.00013391444396972655, 4.9140625) (0.00013446878051757811, 4.916015625) (0.000135072509765625, 4.91796875) (0.00013572375488281248, 4.919921875) (0.00013642025756835938, 4.921875) (0.0001371593475341797, 4.923828125) (0.00013793797302246092, 4.92578125) (0.0001387527160644531, 4.927734375) (0.000139599853515625, 4.9296875) (0.00014047529602050782, 4.931640625) (0.0001413746643066406, 4.93359375) (0.00014229331970214842, 4.935546875) (0.0001432263488769531, 4.9375) (0.0001441686248779297, 4.939453125) (0.00014511477661132812, 4.94140625) (0.00014605929565429687, 4.943359375) (0.00014699658203125, 4.9453125) (0.00014792094421386718, 4.947265625) (0.00014882658386230468, 4.94921875) (0.00014970770263671875, 4.951171875) (0.0001505585174560547, 4.953125) (0.00015137327575683593, 4.955078125) (0.0001521462860107422, 4.95703125) (0.00015287199401855468, 4.958984375) (0.0001535448760986328, 4.9609375) (0.00015415957641601563, 4.962890625) (0.00015471092224121093, 4.96484375) (0.0001551940002441406, 4.966796875) (0.00015560412597656248, 4.96875) (0.0001559369354248047, 4.970703125) (0.00015618829345703125, 4.97265625) (0.00015635447692871092, 4.974609375) (0.00015643218994140624, 4.9765625) (0.00015641854858398436, 4.978515625) (0.0001563111572265625, 4.98046875) (0.00015610792541503906, 4.982421875) (0.00015580734252929686, 4.984375) (0.00015540824890136718, 4.986328125) (0.00015491000366210937, 4.98828125) (0.00015431243896484373, 4.990234375) (0.0001536158447265625, 4.9921875) (0.00015282098388671875, 4.994140625) (0.00015192900085449218, 4.99609375) (0.00015094155883789063, 4.998046875) (0.00014986070251464843, 5.0) (0.00014868896484375, 5.001953125) (0.0001474293212890625, 5.00390625) (0.00014608493041992187, 5.005859375) (0.000144659423828125, 5.0078125) (0.0001431566162109375, 5.009765625) (0.00014158070373535155, 5.01171875) (0.00013993615722656248, 5.013671875) (0.00013822770690917967, 5.015625) (0.0001364602355957031, 5.017578125) (0.0001346388397216797, 5.01953125) (0.00013276893615722657, 5.021484375) (0.000130856201171875, 5.0234375) (0.00012890650939941406, 5.025390625) (0.00012692593383789062, 5.02734375) (0.00012492062377929687, 5.029296875) (0.00012289686584472656, 5.03125) (0.00012086106872558593, 5.033203125) (0.00011881973266601561, 5.03515625) (0.00011677933502197265, 5.037109375) (0.00011474620056152343, 5.0390625) (0.00011272648620605468, 5.041015625) (0.0001107261734008789, 5.04296875) (0.00010875103759765625, 5.044921875) (0.00010680672454833984, 5.046875) (0.0001048986587524414, 5.048828125) (0.00010303191375732421, 5.05078125) (0.00010121115112304687, 5.052734375) (9.944072723388671e-05, 5.0546875) (9.772463989257812e-05, 5.056640625) (9.606658935546875e-05, 5.05859375) (9.446984100341797e-05, 5.060546875) (9.29372100830078e-05, 5.0625) (9.147105407714843e-05, 5.064453125) (9.007331848144531e-05, 5.06640625) (8.874575805664062e-05, 5.068359375) (8.748980712890625e-05, 5.0703125) (8.630644989013671e-05, 5.072265625) (8.51962890625e-05, 5.07421875) (8.415953826904296e-05, 5.076171875) (8.319600677490234e-05, 5.078125) (8.230526733398437e-05, 5.080078125) (8.148637390136718e-05, 5.08203125) (8.073756408691406e-05, 5.083984375) (8.005646514892577e-05, 5.0859375) (7.944024658203124e-05, 5.087890625) (7.888571166992187e-05, 5.08984375) (7.838906860351562e-05, 5.091796875) (7.794564819335937e-05, 5.09375) (7.75497817993164e-05, 5.095703125) (7.719480895996093e-05, 5.09765625) (7.687372589111328e-05, 5.099609375) (7.657946014404297e-05, 5.1015625) (7.630445098876953e-05, 5.103515625) (7.60403823852539e-05, 5.10546875) (7.577833557128906e-05, 5.107421875) (7.550922393798828e-05, 5.109375) (7.522414398193359e-05, 5.111328125) (7.491529846191406e-05, 5.11328125) (7.45750732421875e-05, 5.115234375) (7.419448852539062e-05, 5.1171875) (7.376351928710937e-05, 5.119140625) (7.327117919921875e-05, 5.12109375) (7.270641326904296e-05, 5.123046875) (7.205968475341797e-05, 5.125) (7.132231903076172e-05, 5.126953125) (7.048548889160156e-05, 5.12890625) (6.95401611328125e-05, 5.130859375) (6.847781372070313e-05, 5.1328125) (6.72926025390625e-05, 5.134765625) (6.598286437988281e-05, 5.13671875) (6.454864501953124e-05, 5.138671875) (6.298920440673828e-05, 5.140625) (6.13021125793457e-05, 5.142578125) (5.948220443725586e-05, 5.14453125) (5.7527137756347657e-05, 5.146484375) (5.544254684448242e-05, 5.1484375) (5.323825073242187e-05, 5.150390625) (5.092836761474609e-05, 5.15234375) (4.8530731201171874e-05, 5.154296875) (4.60622444152832e-05, 5.15625) (4.354443740844727e-05, 5.158203125) (4.1005332946777344e-05, 5.16015625) (3.847251892089844e-05, 5.162109375) (3.5972343444824216e-05, 5.1640625) (3.352606201171875e-05, 5.166015625) (3.114478683471679e-05, 5.16796875) (2.8839401245117186e-05, 5.169921875) (2.662656021118164e-05, 5.171875) (2.452591514587402e-05, 5.173828125) (2.2568317413330078e-05, 5.17578125) (2.0783857345581055e-05, 5.177734375) (1.9184932708740233e-05, 5.1796875) (1.778095817565918e-05, 5.181640625) (1.6566070556640625e-05, 5.18359375) (1.5515432357788084e-05, 5.185546875) (1.4617673873901366e-05, 5.1875) (1.3857732772827147e-05, 5.189453125) (1.3213987350463867e-05, 5.19140625) (1.2679998397827149e-05, 5.193359375) (1.223140525817871e-05, 5.1953125) (1.1819893836975098e-05, 5.197265625) (1.1436765670776366e-05, 5.19921875) (1.1099203109741211e-05, 5.201171875) (1.07763671875e-05, 5.203125) (1.0408251762390137e-05, 5.205078125) (9.828348159790038e-06, 5.20703125) (8.764201164245605e-06, 5.208984375) (7.071959495544433e-06, 5.2109375) (4.748339653015136e-06, 5.212890625) (1.8333884477615356e-06, 5.21484375) (-1.6068027019500732e-06, 5.216796875) (-5.49854564666748e-06, 5.21875) (-9.73390483856201e-06, 5.220703125) (-1.3940791130065918e-05, 5.22265625) (-1.744496536254883e-05, 5.224609375) (-1.9750183105468747e-05, 5.2265625) (-2.066652488708496e-05, 5.228515625) (-2.024068832397461e-05, 5.23046875) (-1.8693504333496093e-05, 5.232421875) (-1.6127962112426756e-05, 5.234375) (-1.2563804626464844e-05, 5.236328125) (-8.3489990234375e-06, 5.23828125) (-4.335208415985107e-06, 5.240234375) (-1.3336368799209593e-06, 5.2421875) (2.0391881465911864e-07, 5.244140625) (1.9400785863399504e-07, 5.24609375) (-1.0879638195037842e-06, 5.248046875) (-3.5680112838745115e-06, 5.25) (-7.4440956115722655e-06, 5.251953125) (-1.2536575317382811e-05, 5.25390625) (-1.7979074478149412e-05, 5.255859375) (-2.2719207763671875e-05, 5.2578125) (-2.5944988250732422e-05, 5.259765625) (-2.7097801208496092e-05, 5.26171875) (-2.5852510452270506e-05, 5.263671875) (-2.0766197204589844e-05, 5.265625) (-9.093999862670899e-06, 5.267578125) (1.1415595054626464e-05, 5.26953125) (4.12928237915039e-05, 5.271484375) (7.774357604980469e-05, 5.2734375) (0.00011637655639648437, 5.275390625) (0.00015410026550292968, 5.27734375) (0.00019118778991699217, 5.279296875) (0.00023337249755859375, 5.28125) (0.0002860050659179687, 5.283203125) (0.00035098394775390625, 5.28515625) (0.000425714599609375, 5.287109375) (0.0004989910278320312, 5.2890625) (0.0005600628662109375, 5.291015625) (0.000600885498046875, 5.29296875) (0.00061284228515625, 5.294921875) (0.00059281640625, 5.296875) (0.0005341935424804687, 5.298828125) (0.0004258296203613281, 5.30078125) (0.00026303521728515624, 5.302734375) (4.395918273925781e-05, 5.3046875) (-0.00021995004272460937, 5.306640625) (-0.0004985549011230469, 5.30859375) (-0.0007588082275390625, 5.310546875) (-0.0009647780761718749, 5.3125) (-0.0010899957275390625, 5.314453125) (-0.001132006103515625, 5.31640625) (-0.001099912353515625, 5.318359375) (-0.0010155895996093749, 5.3203125) (-0.0009071813964843749, 5.322265625) (-0.0007933179321289062, 5.32421875) (-0.0006891026611328125, 5.326171875) (-0.0006033157958984374, 5.328125) (-0.0005368711547851562, 5.330078125) (-0.0004896592407226563, 5.33203125) (-0.0004589802551269531, 5.333984375) (-0.00043982113647460935, 5.3359375) (-0.0004262463989257812, 5.337890625) (-0.00041243542480468747, 5.33984375) (-0.00039224960327148437, 5.341796875) (-0.0003619074096679687, 5.34375) (-0.0003229830322265625, 5.345703125) (-0.000279619140625, 5.34765625) (-0.00023880458068847656, 5.349609375) (-0.00020663287353515623, 5.3515625) (-0.00018445245361328123, 5.353515625) (-0.00017066482543945312, 5.35546875) (-0.00016100839233398437, 5.357421875) (-0.00015201823425292968, 5.359375) (-0.00014263943481445312, 5.361328125) (-0.00013309184265136717, 5.36328125) (-0.00012492762756347655, 5.365234375) (-0.00011873122406005859, 5.3671875) (-0.00011397433471679687, 5.369140625) (-0.00011001545715332031, 5.37109375) (-0.00010578163146972656, 5.373046875) (-0.00010069883728027344, 5.375) (-9.501295471191406e-05, 5.376953125) (-8.90601577758789e-05, 5.37890625) (-8.323388671875e-05, 5.380859375) (-7.812110900878906e-05, 5.3828125) (-7.401399993896484e-05, 5.384765625) (-7.110143280029297e-05, 5.38671875) (-6.977931213378905e-05, 5.388671875) (-7.017515563964844e-05, 5.390625) (-7.209854888916016e-05, 5.392578125) (-7.525262451171875e-05, 5.39453125) (-7.912617492675781e-05, 5.396484375) (-8.30970230102539e-05, 5.3984375) (-8.681053924560546e-05, 5.400390625) (-9.003984832763672e-05, 5.40234375) (-9.253172302246094e-05, 5.404296875) (-9.420082855224609e-05, 5.40625) (-9.505714416503906e-05, 5.408203125) (-9.514809417724608e-05, 5.41015625) (-9.46519317626953e-05, 5.412109375) (-9.379879760742187e-05, 5.4140625) (-9.270036315917968e-05, 5.416015625) (-9.139787292480468e-05, 5.41796875) (-8.993350219726562e-05, 5.419921875) (-8.830960845947265e-05, 5.421875) (-8.65412139892578e-05, 5.423828125) (-8.466761779785155e-05, 5.42578125) (-8.269583892822265e-05, 5.427734375) (-8.061554718017578e-05, 5.4296875) (-7.844973754882812e-05, 5.431640625) (-7.624469757080078e-05, 5.43359375) (-7.40386962890625e-05, 5.435546875) (-7.187191772460938e-05, 5.4375) (-6.977169799804687e-05, 5.439453125) (-6.774514770507812e-05, 5.44140625) (-6.582119750976563e-05, 5.443359375) (-6.404766845703124e-05, 5.4453125) (-6.246585083007812e-05, 5.447265625) (-6.112107849121094e-05, 5.44921875) (-6.004670333862304e-05, 5.451171875) (-5.925293350219726e-05, 5.453125) (-5.8748832702636716e-05, 5.455078125) (-5.853865814208984e-05, 5.45703125) (-5.860991287231445e-05, 5.458984375) (-5.8943012237548826e-05, 5.4609375) (-5.9506431579589844e-05, 5.462890625) (-6.0251388549804686e-05, 5.46484375) (-6.113885116577149e-05, 5.466796875) (-6.213992309570312e-05, 5.46875) (-6.322021865844726e-05, 5.470703125) (-6.43487091064453e-05, 5.47265625) (-6.548367309570313e-05, 5.474609375) (-6.656805419921875e-05, 5.4765625) (-6.755593109130859e-05, 5.478515625) (-6.840945434570312e-05, 5.48046875) (-6.909563446044921e-05, 5.482421875) (-6.959352111816407e-05, 5.484375) (-6.988497161865234e-05, 5.486328125) (-6.995351409912109e-05, 5.48828125) (-6.9795166015625e-05, 5.490234375) (-6.941588592529296e-05, 5.4921875) (-6.882526397705078e-05, 5.494140625) (-6.803958892822265e-05, 5.49609375) (-6.707215118408203e-05, 5.498046875) (-6.593087768554687e-05, 5.5) (-6.462918853759765e-05, 5.501953125) (-6.318247985839844e-05, 5.50390625) (-6.160996627807617e-05, 5.505859375) (-5.9936805725097654e-05, 5.5078125) (-5.8181983947753906e-05, 5.509765625) (-5.635861206054687e-05, 5.51171875) (-5.4479087829589845e-05, 5.513671875) (-5.2552978515625e-05, 5.515625) (-5.058846282958984e-05, 5.517578125) (-4.859383010864258e-05, 5.51953125) (-4.657245635986328e-05, 5.521484375) (-4.4523075103759766e-05, 5.5234375) (-4.2445907592773435e-05, 5.525390625) (-4.034158325195312e-05, 5.52734375) (-3.821164703369141e-05, 5.529296875) (-3.605978775024414e-05, 5.53125) (-3.388778686523437e-05, 5.533203125) (-3.16959285736084e-05, 5.53515625) (-2.9484474182128903e-05, 5.537109375) (-2.7253192901611325e-05, 5.5390625) (-2.500288963317871e-05, 5.541015625) (-2.2735710144042968e-05, 5.54296875) (-2.045350074768066e-05, 5.544921875) (-1.815790557861328e-05, 5.546875) (-1.5851128578186033e-05, 5.548828125) (-1.3535512924194336e-05, 5.55078125) (-1.1214267730712891e-05, 5.552734375) (-8.891519546508788e-06, 5.5546875) (-6.5703978538513185e-06, 5.556640625) (-4.25313138961792e-06, 5.55859375) (-1.94169807434082e-06, 5.560546875) (3.6234551668167115e-07, 5.5625) (2.6573362350463867e-06, 5.564453125) (4.9413099288940425e-06, 5.56640625) (7.212552547454834e-06, 5.568359375) (9.469536781311034e-06, 5.5703125) (1.1710229873657227e-05, 5.572265625) (1.3932160377502441e-05, 5.57421875) (1.6132591247558593e-05, 5.576171875) (1.830843734741211e-05, 5.578125) (2.0456621170043945e-05, 5.580078125) (2.2574142456054688e-05, 5.58203125) (2.4657943725585937e-05, 5.583984375) (2.6704900741577148e-05, 5.5859375) (2.871197509765625e-05, 5.587890625) (3.0676158905029294e-05, 5.58984375) (3.259442901611328e-05, 5.591796875) (3.446377563476562e-05, 5.59375) (3.628116989135742e-05, 5.595703125) (3.804351806640625e-05, 5.59765625) (3.974782180786133e-05, 5.599609375) (4.139118957519531e-05, 5.6015625) (4.297086715698242e-05, 5.603515625) (4.448434448242187e-05, 5.60546875) (4.5929298400878904e-05, 5.607421875) (4.730355834960937e-05, 5.609375) (4.860520935058593e-05, 5.611328125) (4.9832511901855465e-05, 5.61328125) (5.098391723632812e-05, 5.615234375) (5.205805969238281e-05, 5.6171875) (5.305360412597656e-05, 5.619140625) (5.3969238281249994e-05, 5.62109375) (5.4803764343261715e-05, 5.623046875) (5.5556098937988276e-05, 5.625) (5.6225265502929685e-05, 5.626953125) (5.681044006347656e-05, 5.62890625) (5.731098937988281e-05, 5.630859375) (5.7726417541503904e-05, 5.6328125) (5.805659484863281e-05, 5.634765625) (5.830168151855469e-05, 5.63671875) (5.846208953857422e-05, 5.638671875) (5.8538459777832026e-05, 5.640625) (5.853162002563476e-05, 5.642578125) (5.84425048828125e-05, 5.64453125) (5.827217102050781e-05, 5.646484375) (5.8021793365478516e-05, 5.6484375) (5.7692584991455074e-05, 5.650390625) (5.7285881042480465e-05, 5.65234375) (5.6803173065185546e-05, 5.654296875) (5.624611663818359e-05, 5.65625) (5.5616565704345703e-05, 5.658203125) (5.4916629791259766e-05, 5.66015625) (5.414857864379883e-05, 5.662109375) (5.3314880371093746e-05, 5.6640625) (5.241815567016601e-05, 5.666015625) (5.1461105346679684e-05, 5.66796875) (5.044647216796875e-05, 5.669921875) (4.93770751953125e-05, 5.671875) (4.8255729675292964e-05, 5.673828125) (4.708536529541015e-05, 5.67578125) (4.5868995666503904e-05, 5.677734375) (4.460974884033203e-05, 5.6796875) (4.331092453002929e-05, 5.681640625) (4.197596740722656e-05, 5.68359375) (4.060846710205078e-05, 5.685546875) (3.921215057373047e-05, 5.6875) (3.779084014892578e-05, 5.689453125) (3.634836959838867e-05, 5.69140625) (3.488853073120117e-05, 5.693359375) (3.341506576538086e-05, 5.6953125) (3.19316291809082e-05, 5.697265625) (3.0441795349121092e-05, 5.69921875) (2.8949121475219725e-05, 5.701171875) (2.7457109451293943e-05, 5.703125) (2.596925926208496e-05, 5.705078125) (2.4489078521728513e-05, 5.70703125) (2.302010154724121e-05, 5.708984375) (2.1565895080566405e-05, 5.7109375) (2.0130012512207032e-05, 5.712890625) (1.8715925216674802e-05, 5.71484375) (1.732697296142578e-05, 5.716796875) (1.5966322898864747e-05, 5.71875) (1.4636955261230468e-05, 5.720703125) (1.3341657638549804e-05, 5.72265625) (1.2083024024963379e-05, 5.724609375) (1.0863445281982421e-05, 5.7265625) (9.685125350952149e-06, 5.728515625) (8.550107955932616e-06, 5.73046875) (7.460312843322754e-06, 5.732421875) (6.417521953582763e-06, 5.734375) (5.42335844039917e-06, 5.736328125) (4.479226112365723e-06, 5.73828125) (3.586273193359375e-06, 5.740234375) (2.745372533798218e-06, 5.7421875) (1.9571268558502195e-06, 5.744140625) (1.2218722105026244e-06, 5.74609375) (5.396860241889953e-07, 5.748046875) (-8.95961970090866e-08, 5.75) (-6.663426756858826e-07, 5.751953125) (-1.1910660266876221e-06, 5.75390625) (-1.6643707752227782e-06, 5.755859375) (-2.0869376659393308e-06, 5.7578125) (-2.459536790847778e-06, 5.759765625) (-2.7830612659454345e-06, 5.76171875) (-3.0585556030273437e-06, 5.763671875) (-3.2872188091278075e-06, 5.765625) (-3.470402956008911e-06, 5.767578125) (-3.6096279621124264e-06, 5.76953125) (-3.7065846920013427e-06, 5.771484375) (-3.7631287574768063e-06, 5.7734375) (-3.781248569488525e-06, 5.775390625) (-3.763005495071411e-06, 5.77734375) (-3.7104763984680175e-06, 5.779296875) (-3.6257426738739012e-06, 5.78125) (-3.51088547706604e-06, 5.783203125) (-3.3679869174957274e-06, 5.78515625) (-3.199131965637207e-06, 5.787109375) (-3.006393432617187e-06, 5.7890625) (-2.7918114662170407e-06, 5.791015625) (-2.5574123859405515e-06, 5.79296875) (-2.305208444595337e-06, 5.794921875) (-2.0371699333190915e-06, 5.796875) (-1.7552109956741333e-06, 5.798828125) (-1.4611293077468872e-06, 5.80078125) (-1.1565682888031005e-06, 5.802734375) (-8.430460691452026e-07, 5.8046875) (-5.219424366950989e-07, 5.806640625) (-1.945081204175949e-07, 5.80859375) (1.381044089794159e-07, 5.810546875) (4.7486960887908936e-07, 5.8125) (8.148664832115172e-07, 5.814453125) (1.1571736335754393e-06, 5.81640625) (1.5008981227874756e-06, 5.818359375) (1.8452496528625487e-06, 5.8203125) (2.1894567012786865e-06, 5.822265625) (2.5328850746154785e-06, 5.82421875) (2.8750452995300293e-06, 5.826171875) (3.215369939804077e-06, 5.828125) (3.553403854370117e-06, 5.830078125) (3.888856887817383e-06, 5.83203125) (4.221509933471679e-06, 5.833984375) (4.551347255706787e-06, 5.8359375) (4.878484725952148e-06, 5.837890625) (5.202970027923583e-06, 5.83984375) (5.524898529052734e-06, 5.841796875) (5.844502449035644e-06, 5.84375) (6.161957740783691e-06, 5.845703125) (6.477706432342529e-06, 5.84765625) (6.792263507843017e-06, 5.849609375) (7.105617523193359e-06, 5.8515625) (7.41786241531372e-06, 5.853515625) (7.72891616821289e-06, 5.85546875) (8.038526535034179e-06, 5.857421875) (8.347332000732422e-06, 5.859375) (8.655951499938965e-06, 5.861328125) (8.964455604553222e-06, 5.86328125) (9.272966384887695e-06, 5.865234375) (9.581439971923828e-06, 5.8671875) (9.889541625976562e-06, 5.869140625) (1.0197562217712402e-05, 5.87109375) (1.0505764007568358e-05, 5.873046875) (1.0813272476196289e-05, 5.875) (1.1119482040405272e-05, 5.876953125) (1.1423185348510742e-05, 5.87890625) (1.172293758392334e-05, 5.880859375) (1.2019350051879882e-05, 5.8828125) (1.231262969970703e-05, 5.884765625) (1.2603178977966307e-05, 5.88671875) (1.2891786575317382e-05, 5.888671875) (1.317618465423584e-05, 5.890625) (1.3453926086425781e-05, 5.892578125) (1.3724016189575194e-05, 5.89453125) (1.3984938621520996e-05, 5.896484375) (1.4235336303710937e-05, 5.8984375) (1.4474472999572753e-05, 5.900390625) (1.4699731826782227e-05, 5.90234375) (1.4908578872680664e-05, 5.904296875) (1.5101749420166015e-05, 5.90625) (1.5279260635375977e-05, 5.908203125) (1.5442859649658203e-05, 5.91015625) (1.5594847679138183e-05, 5.912109375) (1.5732433319091798e-05, 5.9140625) (1.5854601860046387e-05, 5.916015625) (1.595746040344238e-05, 5.91796875) (1.6036266326904297e-05, 5.919921875) (1.6097879409790037e-05, 5.921875) (1.614731216430664e-05, 5.923828125) (1.6191436767578123e-05, 5.92578125) (1.6240488052368163e-05, 5.927734375) (1.6287328720092774e-05, 5.9296875) (1.632406997680664e-05, 5.931640625) (1.6354982376098633e-05, 5.93359375) (1.6378963470458984e-05, 5.935546875) (1.6398397445678712e-05, 5.9375) (1.6429401397705078e-05, 5.939453125) (1.6442399978637694e-05, 5.94140625) (1.6403432846069336e-05, 5.943359375) (1.6366151809692383e-05, 5.9453125) (1.636482238769531e-05, 5.947265625) (1.644178009033203e-05, 5.94921875) (1.666384506225586e-05, 5.951171875) (1.695646286010742e-05, 5.953125) (1.7216598510742187e-05, 5.955078125) (1.748038864135742e-05, 5.95703125) (1.7768741607666014e-05, 5.958984375) (1.7962219238281248e-05, 5.9609375) (1.8000869750976563e-05, 5.962890625) (1.7735828399658202e-05, 5.96484375) (1.6975204467773438e-05, 5.966796875) (1.5907108306884764e-05, 5.96875) (1.4747951507568359e-05, 5.970703125) (1.3496932983398437e-05, 5.97265625) (1.2209115028381347e-05, 5.974609375) (1.1021085739135742e-05, 5.9765625) (9.981481552124023e-06, 5.978515625) (9.328219413757324e-06, 5.98046875) (9.337526321411132e-06, 5.982421875) (9.770545959472657e-06, 5.984375) (1.0380043983459472e-05, 5.986328125) (1.1119453430175781e-05, 5.98828125) (1.1858996391296386e-05, 5.990234375) (1.2523736953735351e-05, 5.9921875) (1.3114572525024414e-05, 5.994140625) (1.3413803100585937e-05, 5.99609375) (1.3191768646240233e-05, 5.998046875) (1.2623784065246581e-05, 6.0) (1.1872695922851561e-05, 6.001953125) (1.0996971130371094e-05, 6.00390625) (1.0123773574829102e-05, 6.005859375) (9.250358581542968e-06, 6.0078125) (8.336721420288086e-06, 6.009765625) (7.494453430175781e-06, 6.01171875) (6.825537204742431e-06, 6.013671875) (6.259403228759766e-06, 6.015625) (5.741836547851562e-06, 6.017578125) (5.236402988433837e-06, 6.01953125) (4.676355838775635e-06, 6.021484375) (4.089158058166504e-06, 6.0234375) (3.5098333358764645e-06, 6.025390625) (2.914628505706787e-06, 6.02734375) (2.29142951965332e-06, 6.029296875) (1.6497154235839843e-06, 6.03125) (9.912052750587463e-07, 6.033203125) (3.284292221069336e-07, 6.03515625) (-3.2181909680366513e-07, 6.037109375) (-9.705668091773986e-07, 6.0390625) (-1.627343773841858e-06, 6.041015625) (-2.29348611831665e-06, 6.04296875) (-2.9741621017456053e-06, 6.044921875) (-3.664912223815918e-06, 6.046875) (-4.36020278930664e-06, 6.048828125) (-5.059451103210449e-06, 6.05078125) (-5.760373115539551e-06, 6.052734375) (-6.461455821990966e-06, 6.0546875) (-7.161515235900878e-06, 6.056640625) (-7.857844352722168e-06, 6.05859375) (-8.547938346862793e-06, 6.060546875) (-9.229153633117676e-06, 6.0625) (-9.898282051086426e-06, 6.064453125) (-1.0552885055541991e-05, 6.06640625) (-1.1190526962280272e-05, 6.068359375) (-1.1807707786560058e-05, 6.0703125) (-1.2401538848876952e-05, 6.072265625) (-1.2968729972839355e-05, 6.07421875) (-1.3505820274353026e-05, 6.076171875) (-1.401192283630371e-05, 6.078125) (-1.4486270904541014e-05, 6.080078125) (-1.4927665710449219e-05, 6.08203125) (-1.5335562705993653e-05, 6.083984375) (-1.5708485603332518e-05, 6.0859375) (-1.6044727325439453e-05, 6.087890625) (-1.634317970275879e-05, 6.08984375) (-1.660252571105957e-05, 6.091796875) (-1.6821353912353515e-05, 6.09375) (-1.699851417541504e-05, 6.095703125) (-1.7132539749145506e-05, 6.09765625) (-1.722171211242676e-05, 6.099609375) (-1.7264701843261716e-05, 6.1015625) (-1.7260318756103514e-05, 6.103515625) (-1.720752716064453e-05, 6.10546875) (-1.7105655670166015e-05, 6.107421875) (-1.6953639984130857e-05, 6.109375) (-1.6750150680541992e-05, 6.111328125) (-1.649433135986328e-05, 6.11328125) (-1.6185714721679686e-05, 6.115234375) (-1.5823877334594724e-05, 6.1171875) (-1.5408522605895996e-05, 6.119140625) (-1.4939424514770506e-05, 6.12109375) (-1.4416231155395507e-05, 6.123046875) (-1.383940315246582e-05, 6.125) (-1.3210373878479004e-05, 6.126953125) (-1.2530388832092284e-05, 6.12890625) (-1.1800537109374999e-05, 6.130859375) (-1.1022241592407227e-05, 6.1328125) (-1.0196757316589355e-05, 6.134765625) (-9.325439453124999e-06, 6.13671875) (-8.410141944885254e-06, 6.138671875) (-7.451624870300292e-06, 6.140625) (-6.449479579925537e-06, 6.142578125) (-5.403470993041992e-06, 6.14453125) (-4.31316328048706e-06, 6.146484375) (-3.1785786151885986e-06, 6.1484375) (-2.0009644031524656e-06, 6.150390625) (-7.814518213272095e-07, 6.15234375) (4.790521562099457e-07, 6.154296875) (1.778915762901306e-06, 6.15625) (3.116257667541504e-06, 6.158203125) (4.487644195556641e-06, 6.16015625) (5.887094020843506e-06, 6.162109375) (7.310596466064453e-06, 6.1640625) (8.75626277923584e-06, 6.166015625) (1.0222101211547852e-05, 6.16796875) (1.1707273483276366e-05, 6.169921875) (1.320583152770996e-05, 6.171875) (1.4705495834350585e-05, 6.173828125) (1.6196420669555663e-05, 6.17578125) (1.7671348571777342e-05, 6.177734375) (1.9121665954589843e-05, 6.1796875) (2.0538904190063475e-05, 6.181640625) (2.1911724090576172e-05, 6.18359375) (2.3224164962768553e-05, 6.185546875) (2.4468029022216796e-05, 6.1875) (2.5642974853515623e-05, 6.189453125) (2.6749042510986326e-05, 6.19140625) (2.778904342651367e-05, 6.193359375) (2.8758483886718747e-05, 6.1953125) (2.9644491195678708e-05, 6.197265625) (3.0436271667480468e-05, 6.19921875) (3.11236343383789e-05, 6.201171875) (3.170457649230957e-05, 6.203125) (3.218673706054687e-05, 6.205078125) (3.257107543945312e-05, 6.20703125) (3.285028839111328e-05, 6.208984375) (3.302311706542969e-05, 6.2109375) (3.309499359130859e-05, 6.212890625) (3.307967376708984e-05, 6.21484375) (3.300220489501953e-05, 6.216796875) (3.286899185180664e-05, 6.21875) (3.2667186737060545e-05, 6.220703125) (3.238958740234375e-05, 6.22265625) (3.203277969360351e-05, 6.224609375) (3.1608787536621094e-05, 6.2265625) (3.114262771606445e-05, 6.228515625) (3.0651847839355466e-05, 6.23046875) (3.0148294448852538e-05, 6.232421875) (2.963873291015625e-05, 6.234375) (2.9126205444335936e-05, 6.236328125) (2.8624340057373044e-05, 6.23828125) (2.815907287597656e-05, 6.240234375) (2.774597930908203e-05, 6.2421875) (2.7386404037475584e-05, 6.244140625) (2.7071266174316406e-05, 6.24609375) (2.67794132232666e-05, 6.248046875) (2.651499557495117e-05, 6.25) (2.630560874938965e-05, 6.251953125) (2.6166265487670896e-05, 6.25390625) (2.6098272323608396e-05, 6.255859375) (2.6081844329833984e-05, 6.2578125) (2.6087215423583983e-05, 6.259765625) (2.6097438812255857e-05, 6.26171875) (2.6101680755615232e-05, 6.263671875) (2.6081418991088867e-05, 6.265625) (2.6008872985839842e-05, 6.267578125) (2.5843137741088866e-05, 6.26953125) (2.5536075592041013e-05, 6.271484375) (2.5057804107666016e-05, 6.2734375) (2.4386053085327146e-05, 6.275390625) (2.3493616104125976e-05, 6.27734375) (2.23520450592041e-05, 6.279296875) (2.0904159545898437e-05, 6.28125) (1.9081567764282226e-05, 6.283203125) (1.6848123550415038e-05, 6.28515625) (1.4172075271606445e-05, 6.287109375) (1.1011167526245116e-05, 6.2890625) (7.363598346710205e-06, 6.291015625) (3.2754645347595214e-06, 6.29296875) (-1.1233419179916382e-06, 6.294921875) (-5.565122604370117e-06, 6.296875) (-9.754423141479492e-06, 6.298828125) (-1.3439455986022949e-05, 6.30078125) (-1.6321163177490232e-05, 6.302734375) (-1.804576301574707e-05, 6.3046875) (-1.832600212097168e-05, 6.306640625) (-1.698154830932617e-05, 6.30859375) (-1.408610725402832e-05, 6.310546875) (-1.006527328491211e-05, 6.3125) (-5.375529766082764e-06, 6.314453125) (-3.9363539218902587e-07, 6.31640625) (4.421374320983886e-06, 6.318359375) (8.558032989501952e-06, 6.3203125) (1.1510594367980956e-05, 6.322265625) (1.2924217224121093e-05, 6.32421875) (1.3019068717956542e-05, 6.326171875) (1.2472160339355468e-05, 6.328125) (1.1927505493164062e-05, 6.330078125) (1.2140385627746582e-05, 6.33203125) (1.403736400604248e-05, 6.333984375) (1.9633501052856445e-05, 6.3359375) (3.213444519042969e-05, 6.337890625) (5.390577697753906e-05, 6.33984375) (8.548165893554688e-05, 6.341796875) (0.00012366667175292968, 6.34375) (0.00016320428466796874, 6.345703125) (0.00020134893798828124, 6.34765625) (0.00023873031616210936, 6.349609375) (0.000281369873046875, 6.3515625) (0.0003355317993164062, 6.353515625) (0.00040150598144531247, 6.35546875) (0.00047434103393554684, 6.357421875) (0.0005417642822265625, 6.359375) (0.0005917448120117188, 6.361328125) (0.00061760791015625, 6.36328125) (0.0006142345581054687, 6.365234375) 