(-3.724465179443359e-05, 0.0) (-3.3743881225585936e-05, 0.001953125) (-3.031966209411621e-05, 0.00390625) (-2.7001449584960936e-05, 0.005859375) (-2.3815353393554686e-05, 0.0078125) (-2.0789091110229492e-05, 0.009765625) (-1.7946182250976562e-05, 0.01171875) (-1.5300177574157716e-05, 0.013671875) (-1.286655807495117e-05, 0.015625) (-1.0660304069519043e-05, 0.017578125) (-8.698115348815918e-06, 0.01953125) (-7.006875514984131e-06, 0.021484375) (-5.607906341552734e-06, 0.0234375) (-4.5107688903808596e-06, 0.025390625) (-3.7223060131072996e-06, 0.02734375) (-3.2429740428924557e-06, 0.029296875) (-3.0573182106018065e-06, 0.03125) (-3.146235704421997e-06, 0.033203125) (-3.4779107570648193e-06, 0.03515625) (-3.99471378326416e-06, 0.037109375) (-4.647066116333008e-06, 0.0390625) (-5.38790225982666e-06, 0.041015625) (-6.173241138458252e-06, 0.04296875) (-6.99387264251709e-06, 0.044921875) (-7.846651077270508e-06, 0.046875) (-8.71544075012207e-06, 0.048828125) (-9.580259323120116e-06, 0.05078125) (-1.0409005165100098e-05, 0.052734375) (-1.1168346405029297e-05, 0.0546875) (-1.186068344116211e-05, 0.056640625) (-1.2504119873046874e-05, 0.05859375) (-1.3094925880432128e-05, 0.060546875) (-1.3654184341430663e-05, 0.0625) (-1.4222421646118164e-05, 0.064453125) (-1.4862396240234374e-05, 0.06640625) (-1.5714765548706054e-05, 0.068359375) (-1.6910799026489256e-05, 0.0703125) (-1.853199577331543e-05, 0.072265625) (-2.0650712966918943e-05, 0.07421875) (-2.3285017013549804e-05, 0.076171875) (-2.642119789123535e-05, 0.078125) (-3.007646942138672e-05, 0.080078125) (-3.425837707519531e-05, 0.08203125) (-3.892745590209961e-05, 0.083984375) (-4.405963516235351e-05, 0.0859375) (-4.960209274291992e-05, 0.087890625) (-5.539842987060547e-05, 0.08984375) (-6.12995491027832e-05, 0.091796875) (-6.708594512939453e-05, 0.09375) (-7.241477966308594e-05, 0.095703125) (-7.692420959472655e-05, 0.09765625) (-8.01702423095703e-05, 0.099609375) (-8.171602630615234e-05, 0.1015625) (-8.12461929321289e-05, 0.103515625) (-7.867926025390625e-05, 0.10546875) (-7.419462585449219e-05, 0.107421875) (-6.813780212402344e-05, 0.109375) (-6.0907455444335936e-05, 0.111328125) (-5.301166534423828e-05, 0.11328125) (-4.52081298828125e-05, 0.115234375) (-3.811373901367187e-05, 0.1171875) (-3.2098312377929686e-05, 0.119140625) (-2.6554361343383787e-05, 0.12109375) (-1.965744972229004e-05, 0.123046875) (-9.671003341674804e-06, 0.125) (4.070451736450195e-06, 0.126953125) (2.0050823211669923e-05, 0.12890625) (3.5830360412597655e-05, 0.130859375) (4.9680946350097657e-05, 0.1328125) (6.26047019958496e-05, 0.134765625) (8.075015258789062e-05, 0.13671875) (0.00011067762756347655, 0.138671875) (0.00015759066772460937, 0.140625) (0.0002230951232910156, 0.142578125) (0.0002984141845703125, 0.14453125) (0.000371456787109375, 0.146484375) (0.00042893072509765624, 0.1484375) (0.0004569952392578125, 0.150390625) (0.00045266256713867185, 0.15234375) (0.00041828915405273435, 0.154296875) (0.0003596255187988281, 0.15625) (0.0002882442626953125, 0.158203125) (0.00021069699096679687, 0.16015625) (0.00013029086303710936, 0.162109375) (4.9449447631835936e-05, 0.1640625) (-3.318325042724609e-05, 0.166015625) (-0.00011652664947509765, 0.16796875) (-0.00019617967224121093, 0.169921875) (-0.00026731179809570313, 0.171875) (-0.00032472463989257814, 0.173828125) (-0.0003653223876953125, 0.17578125) (-0.0003888688354492187, 0.177734375) (-0.0003965304565429687, 0.1796875) (-0.00038979147338867186, 0.181640625) (-0.0003699009399414062, 0.18359375) (-0.0003389542236328125, 0.185546875) (-0.0002999132080078125, 0.1875) (-0.00025598704528808594, 0.189453125) (-0.00021042924499511717, 0.19140625) (-0.00016573876953125, 0.193359375) (-0.00012349476623535157, 0.1953125) (-8.541426086425781e-05, 0.197265625) (-5.3459072113037104e-05, 0.19921875) (-2.8508872985839842e-05, 0.201171875) (-1.0566753387451171e-05, 0.203125) (9.642422199249267e-07, 0.205078125) (7.363888263702392e-06, 0.20703125) (9.795873641967773e-06, 0.208984375) (9.151701927185058e-06, 0.2109375) (6.792596817016602e-06, 0.212890625) (4.483027458190917e-06, 0.21484375) (3.2230565547943113e-06, 0.216796875) (3.3780577182769773e-06, 0.21875) (4.960927963256836e-06, 0.220703125) (7.494004249572754e-06, 0.22265625) (1.058365249633789e-05, 0.224609375) (1.3992726325988768e-05, 0.2265625) (1.7128557205200196e-05, 0.228515625) (1.9120708465576172e-05, 0.23046875) (1.9575471878051758e-05, 0.232421875) (1.8540735244750976e-05, 0.234375) (1.6215721130371092e-05, 0.236328125) (1.3025431632995604e-05, 0.23828125) (9.277769088745117e-06, 0.240234375) (5.120673656463623e-06, 0.2421875) (9.015001058578491e-07, 0.244140625) (-2.873392343521118e-06, 0.24609375) (-5.841764450073242e-06, 0.248046875) (-7.816248893737793e-06, 0.25) (-8.744683265686034e-06, 0.251953125) (-8.73171615600586e-06, 0.25390625) (-7.849439144134521e-06, 0.255859375) (-6.09745454788208e-06, 0.2578125) (-3.5636961460113524e-06, 0.259765625) (-4.011590480804443e-07, 0.26171875) (3.1899633407592773e-06, 0.263671875) (6.965485572814941e-06, 0.265625) (1.0773690223693847e-05, 0.267578125) (1.4559057235717773e-05, 0.26953125) (1.8282649993896484e-05, 0.271484375) (2.191172981262207e-05, 0.2734375) (2.5401744842529295e-05, 0.275390625) (2.8681461334228515e-05, 0.27734375) (3.17012825012207e-05, 0.279296875) (3.446173858642578e-05, 0.28125) (3.6957679748535155e-05, 0.283203125) (3.917819595336914e-05, 0.28515625) (4.111079406738281e-05, 0.287109375) (4.272980117797852e-05, 0.2890625) (4.404104614257812e-05, 0.291015625) (4.5086212158203123e-05, 0.29296875) (4.593277740478515e-05, 0.294921875) (4.666025161743164e-05, 0.296875) (4.732220458984375e-05, 0.298828125) (4.7946056365966797e-05, 0.30078125) (4.854862976074219e-05, 0.302734375) (4.9141918182373045e-05, 0.3046875) (4.9734916687011714e-05, 0.306640625) (5.0334896087646484e-05, 0.30859375) (5.093486404418945e-05, 0.310546875) (5.151118469238281e-05, 0.3125) (5.2049247741699215e-05, 0.314453125) (5.254357147216797e-05, 0.31640625) (5.2993305206298825e-05, 0.318359375) (5.340338134765625e-05, 0.3203125) (5.3771583557128906e-05, 0.322265625) (5.4086830139160155e-05, 0.32421875) (5.433441162109375e-05, 0.326171875) (5.44998664855957e-05, 0.328125) (5.457146835327148e-05, 0.330078125) (5.454016494750976e-05, 0.33203125) (5.439831161499023e-05, 0.333984375) (5.413885498046875e-05, 0.3359375) (5.375769805908203e-05, 0.337890625) (5.325496673583984e-05, 0.33984375) (5.263613891601562e-05, 0.341796875) (5.191014862060547e-05, 0.34375) (5.1084281921386715e-05, 0.345703125) (5.0163864135742184e-05, 0.34765625) (4.915266036987304e-05, 0.349609375) (4.8053119659423824e-05, 0.3515625) (4.6867843627929684e-05, 0.353515625) (4.559936141967773e-05, 0.35546875) (4.424984741210937e-05, 0.357421875) (4.282155990600586e-05, 0.359375) (4.1317588806152345e-05, 0.361328125) (3.974220275878906e-05, 0.36328125) (3.8101100921630854e-05, 0.365234375) (3.640135192871094e-05, 0.3671875) (3.465119171142578e-05, 0.369140625) (3.2859500885009764e-05, 0.37109375) (3.103424835205078e-05, 0.373046875) (2.9182111740112303e-05, 0.375) (2.730975532531738e-05, 0.376953125) (2.542331886291504e-05, 0.37890625) (2.3527851104736327e-05, 0.380859375) (2.1627544403076172e-05, 0.3828125) (1.972418212890625e-05, 0.384765625) (1.781779670715332e-05, 0.38671875) (1.591009521484375e-05, 0.388671875) (1.4004387855529784e-05, 0.390625) (1.2103693962097167e-05, 0.392578125) (1.0211861610412597e-05, 0.39453125) (8.333245277404784e-06, 0.396484375) (6.471442699432373e-06, 0.3984375) (4.632213115692138e-06, 0.400390625) (2.821441411972046e-06, 0.40234375) (1.0400842428207398e-06, 0.404296875) (-7.129745483398437e-07, 0.40625) (-2.439880132675171e-06, 0.408203125) (-4.145548820495605e-06, 0.41015625) (-5.832465171813964e-06, 0.412109375) (-7.500319480895996e-06, 0.4140625) (-9.15103530883789e-06, 0.416015625) (-1.0783761978149414e-05, 0.41796875) (-1.2393869400024413e-05, 0.419921875) (-1.3978576660156249e-05, 0.421875) (-1.5529720306396482e-05, 0.423828125) (-1.7035831451416016e-05, 0.42578125) (-1.8497673034667968e-05, 0.427734375) (-1.9921874999999998e-05, 0.4296875) (-2.1321847915649414e-05, 0.431640625) (-2.2722003936767576e-05, 0.43359375) (-2.413279342651367e-05, 0.435546875) (-2.5554645538330076e-05, 0.4375) (-2.6995201110839843e-05, 0.439453125) (-2.8452213287353516e-05, 0.44140625) (-2.991116714477539e-05, 0.443359375) (-3.135129165649414e-05, 0.4453125) (-3.2724578857421876e-05, 0.447265625) (-3.3974967956542966e-05, 0.44921875) (-3.507958602905273e-05, 0.451171875) (-3.6026676177978515e-05, 0.453125) (-3.6814674377441406e-05, 0.455078125) (-3.7464679718017574e-05, 0.45703125) (-3.797113418579101e-05, 0.458984375) (-3.831853866577148e-05, 0.4609375) (-3.850468826293945e-05, 0.462890625) (-3.8505821228027345e-05, 0.46484375) (-3.830848693847656e-05, 0.466796875) (-3.7908676147460934e-05, 0.46875) (-3.728034210205078e-05, 0.470703125) (-3.640929412841797e-05, 0.47265625) (-3.532307052612305e-05, 0.474609375) (-3.409528350830078e-05, 0.4765625) (-3.286737060546875e-05, 0.478515625) (-3.18105239868164e-05, 0.48046875) (-3.1036724090576173e-05, 0.482421875) (-3.062264633178711e-05, 0.484375) (-3.060363388061523e-05, 0.486328125) (-3.100167465209961e-05, 0.48828125) (-3.191514205932617e-05, 0.490234375) (-3.334516906738281e-05, 0.4921875) (-3.516925048828125e-05, 0.494140625) (-3.7215759277343745e-05, 0.49609375) (-3.9171173095703124e-05, 0.498046875) (-4.0814094543457026e-05, 0.5) (-4.213444137573242e-05, 0.501953125) (-4.2961769104003904e-05, 0.50390625) (-4.295257568359375e-05, 0.505859375) (-4.200930786132812e-05, 0.5078125) (-4.0109798431396483e-05, 0.509765625) (-3.749931335449218e-05, 0.51171875) (-3.507274627685547e-05, 0.513671875) (-3.33784065246582e-05, 0.515625) (-3.245812225341797e-05, 0.517578125) (-3.285813903808594e-05, 0.51953125) (-3.517439270019531e-05, 0.521484375) (-3.9258117675781245e-05, 0.5234375) (-4.491781997680664e-05, 0.525390625) (-5.066468811035156e-05, 0.52734375) (-5.314295196533203e-05, 0.529296875) (-5.0840358734130855e-05, 0.53125) (-4.3410987854003906e-05, 0.533203125) (-3.080518341064453e-05, 0.53515625) (-1.4890771865844726e-05, 0.537109375) (4.7583327293395995e-06, 0.5390625) (3.059363937377929e-05, 0.541015625) (6.454196166992187e-05, 0.54296875) (0.00010930707550048828, 0.544921875) (0.0001647694091796875, 0.546875) (0.00022782060241699218, 0.548828125) (0.0002934381103515625, 0.55078125) (0.00035291162109374997, 0.552734375) (0.0003975152282714844, 0.5546875) (0.0004192139587402344, 0.556640625) (0.00041209838867187497, 0.55859375) (0.00037624356079101563, 0.560546875) (0.0003149496765136719, 0.5625) (0.0002339313507080078, 0.564453125) (0.00014027151489257812, 0.56640625) (3.9403106689453125e-05, 0.568359375) (-6.272858428955078e-05, 0.5703125) (-0.00015864506530761718, 0.572265625) (-0.00024127223205566405, 0.57421875) (-0.0003049103393554687, 0.576171875) (-0.0003479857788085937, 0.578125) (-0.00037421368408203123, 0.580078125) (-0.0003881669921875, 0.58203125) (-0.00039294317626953123, 0.583984375) (-0.0003887726135253906, 0.5859375) (-0.00037290631103515623, 0.587890625) (-0.0003446791381835937, 0.58984375) (-0.00030610934448242186, 0.591796875) (-0.00026072735595703125, 0.59375) (-0.00021367176818847656, 0.595703125) (-0.00016847158813476561, 0.59765625) (-0.00012712548828125, 0.599609375) (-9.185298156738281e-05, 0.6015625) (-6.388367462158202e-05, 0.603515625) (-4.345541381835937e-05, 0.60546875) (-3.053229713439941e-05, 0.607421875) (-2.413611602783203e-05, 0.609375) (-2.2445228576660156e-05, 0.611328125) (-2.4035865783691406e-05, 0.61328125) (-2.7299697875976562e-05, 0.615234375) (-3.005673027038574e-05, 0.6171875) (-3.097896003723144e-05, 0.619140625) (-2.9492685317993162e-05, 0.62109375) (-2.5299732208251953e-05, 0.623046875) (-1.8847076416015623e-05, 0.625) (-1.097883701324463e-05, 0.626953125) (-2.2805547714233396e-06, 0.62890625) (6.411966800689697e-06, 0.630859375) (1.3973114013671874e-05, 0.6328125) (1.9897193908691407e-05, 0.634765625) (2.4076259613037107e-05, 0.63671875) (2.65540714263916e-05, 0.638671875) (2.7729103088378906e-05, 0.640625) (2.7968917846679686e-05, 0.642578125) (2.747263526916504e-05, 0.64453125) (2.660152244567871e-05, 0.646484375) (2.5800060272216797e-05, 0.6484375) (2.5296043395996093e-05, 0.650390625) (2.5223293304443357e-05, 0.65234375) (2.562277603149414e-05, 0.654296875) (2.641911506652832e-05, 0.65625) (2.7647359848022458e-05, 0.658203125) (2.9376056671142576e-05, 0.66015625) (3.1575931549072264e-05, 0.662109375) (3.4172145843505855e-05, 0.6640625) (3.703583145141601e-05, 0.666015625) (3.9989379882812496e-05, 0.66796875) (4.291224670410156e-05, 0.669921875) (4.574076080322265e-05, 0.671875) (4.84068489074707e-05, 0.673828125) (5.0868656158447267e-05, 0.67578125) (5.309550857543945e-05, 0.677734375) (5.505963897705078e-05, 0.6796875) (5.677791976928711e-05, 0.681640625) (5.828463745117187e-05, 0.68359375) (5.960105895996094e-05, 0.685546875) (6.072516632080078e-05, 0.6875) (6.161542510986328e-05, 0.689453125) (6.222650527954101e-05, 0.69140625) (6.254391479492188e-05, 0.693359375) (6.257479095458984e-05, 0.6953125) (6.235548400878906e-05, 0.697265625) (6.194661712646485e-05, 0.69921875) (6.139203643798829e-05, 0.701171875) (6.072768020629883e-05, 0.703125) (5.999838638305664e-05, 0.705078125) (5.923437118530273e-05, 0.70703125) (5.845671081542969e-05, 0.708984375) (5.768096160888672e-05, 0.7109375) (5.689690780639648e-05, 0.712890625) (5.608125305175781e-05, 0.71484375) (5.522119903564453e-05, 0.716796875) (5.4312866210937496e-05, 0.71875) (5.336177444458007e-05, 0.720703125) (5.238002777099609e-05, 0.72265625) (5.137201309204101e-05, 0.724609375) (5.033638000488281e-05, 0.7265625) (4.927160263061523e-05, 0.728515625) (4.8173439025878905e-05, 0.73046875) (4.703861618041992e-05, 0.732421875) (4.5862350463867185e-05, 0.734375) (4.463405227661132e-05, 0.736328125) (4.334400939941406e-05, 0.73828125) (4.198668670654297e-05, 0.740234375) (4.055983352661133e-05, 0.7421875) (3.9067291259765625e-05, 0.744140625) (3.751727294921875e-05, 0.74609375) (3.5915981292724606e-05, 0.748046875) (3.426914978027344e-05, 0.75) (3.2584163665771486e-05, 0.751953125) (3.086770439147949e-05, 0.75390625) (2.9126924514770507e-05, 0.755859375) (2.7369541168212888e-05, 0.7578125) (2.5601024627685546e-05, 0.759765625) (2.3825222015380858e-05, 0.76171875) (2.2047399520874023e-05, 0.763671875) (2.0274120330810545e-05, 0.765625) (1.8512317657470703e-05, 0.767578125) (1.676992416381836e-05, 0.76953125) (1.5054997444152831e-05, 0.771484375) (1.3374862670898437e-05, 0.7734375) (1.17373628616333e-05, 0.775390625) (1.0151155471801757e-05, 0.77734375) (8.624134063720702e-06, 0.779296875) (7.163295745849609e-06, 0.78125) (5.775550842285156e-06, 0.783203125) (4.466398239135742e-06, 0.78515625) (3.23901891708374e-06, 0.787109375) (2.095655918121338e-06, 0.7890625) (1.0366981029510497e-06, 0.791015625) (6.003589928150176e-08, 0.79296875) (-8.363614082336425e-07, 0.794921875) (-1.6548254489898681e-06, 0.796875) (-2.3995048999786375e-06, 0.798828125) (-3.074361801147461e-06, 0.80078125) (-3.6821894645690918e-06, 0.802734375) (-4.226897239685058e-06, 0.8046875) (-4.711611747741699e-06, 0.806640625) (-5.138071060180664e-06, 0.80859375) (-5.511491775512695e-06, 0.810546875) (-5.83881664276123e-06, 0.8125) (-6.128444671630859e-06, 0.814453125) (-6.393895626068115e-06, 0.81640625) (-6.649744033813476e-06, 0.818359375) (-6.908859252929687e-06, 0.8203125) (-7.1851220130920405e-06, 0.822265625) (-7.491084098815918e-06, 0.82421875) (-7.836122512817383e-06, 0.826171875) (-8.231988906860352e-06, 0.828125) (-8.68616485595703e-06, 0.830078125) (-9.197686195373535e-06, 0.83203125) (-9.770199775695801e-06, 0.833984375) (-1.0409025192260741e-05, 0.8359375) (-1.1125310897827147e-05, 0.837890625) (-1.194560432434082e-05, 0.83984375) (-1.2891302108764648e-05, 0.841796875) (-1.3971691131591797e-05, 0.84375) (-1.5193876266479492e-05, 0.845703125) (-1.65555305480957e-05, 0.84765625) (-1.804340171813965e-05, 0.849609375) (-1.964834213256836e-05, 0.8515625) (-2.134786033630371e-05, 0.853515625) (-2.309470176696777e-05, 0.85546875) (-2.48486213684082e-05, 0.857421875) (-2.656795310974121e-05, 0.859375) (-2.8218425750732422e-05, 0.861328125) (-2.9805450439453125e-05, 0.86328125) (-3.1338386535644526e-05, 0.865234375) (-3.2813438415527344e-05, 0.8671875) (-3.4216972351074216e-05, 0.869140625) (-3.550980758666992e-05, 0.87109375) (-3.6656078338623047e-05, 0.873046875) (-3.7659515380859375e-05, 0.875) (-3.854218292236328e-05, 0.876953125) (-3.931997299194336e-05, 0.87890625) (-4.001461029052734e-05, 0.880859375) (-4.064453887939453e-05, 0.8828125) (-4.1250885009765627e-05, 0.884765625) (-4.194053649902344e-05, 0.88671875) (-4.2837982177734376e-05, 0.888671875) (-4.4062179565429684e-05, 0.890625) (-4.5706562042236325e-05, 0.892578125) (-4.779866790771484e-05, 0.89453125) (-5.0341705322265624e-05, 0.896484375) (-5.333774948120117e-05, 0.8984375) (-5.68421630859375e-05, 0.900390625) (-6.096282196044922e-05, 0.90234375) (-6.56910400390625e-05, 0.904296875) (-7.08719253540039e-05, 0.90625) (-7.621215057373047e-05, 0.908203125) (-8.130457305908203e-05, 0.91015625) (-8.582611083984375e-05, 0.912109375) (-8.9575927734375e-05, 0.9140625) (-9.219268035888672e-05, 0.916015625) (-9.317333221435547e-05, 0.91796875) (-9.229969787597656e-05, 0.919921875) (-8.95801010131836e-05, 0.921875) (-8.549471282958983e-05, 0.923828125) (-8.112384033203124e-05, 0.92578125) (-7.731689453124999e-05, 0.927734375) (-7.462559509277344e-05, 0.9296875) (-7.368849182128906e-05, 0.931640625) (-7.489900207519531e-05, 0.93359375) (-7.804871368408203e-05, 0.935546875) (-8.267548370361327e-05, 0.9375) (-8.749282073974609e-05, 0.939453125) (-9.008145904541016e-05, 0.94140625) (-8.821953582763671e-05, 0.943359375) (-7.981362915039062e-05, 0.9453125) (-6.263234329223632e-05, 0.947265625) (-3.592377471923828e-05, 0.94921875) (-6.011219024658203e-07, 0.951171875) (4.245035552978515e-05, 0.953125) (9.140093994140624e-05, 0.955078125) (0.00014541931152343748, 0.95703125) (0.00020606024169921873, 0.958984375) (0.00027161358642578123, 0.9609375) (0.00033729000854492184, 0.962890625) (0.0003940530700683594, 0.96484375) (0.0004285832824707031, 0.966796875) (0.00043295080566406246, 0.96875) (0.0004061685791015625, 0.970703125) (0.00035420883178710936, 0.97265625) (0.0002883723754882812, 0.974609375) (0.00021594757080078123, 0.9765625) (0.00013821485900878907, 0.978515625) (5.300151443481445e-05, 0.98046875) (-4.159822082519531e-05, 0.982421875) (-0.00014141445922851562, 0.984375) (-0.00023536991882324218, 0.986328125) (-0.00031111242675781246, 0.98828125) (-0.00036107794189453124, 0.990234375) (-0.00038556439208984374, 0.9921875) (-0.00039219464111328123, 0.994140625) (-0.00038964938354492184, 0.99609375) (-0.00038259356689453124, 0.998046875) (-0.00037109811401367187, 1.0) (-0.0003523385009765625, 1.001953125) (-0.00032491851806640623, 1.00390625) (-0.0002905308837890625, 1.005859375) (-0.0002524236145019531, 1.0078125) (-0.00021374218749999998, 1.009765625) (-0.00017625885009765624, 1.01171875) (-0.00014068798828124998, 1.013671875) (-0.00010789973449707031, 1.015625) (-7.910340118408203e-05, 1.017578125) (-5.5138427734375e-05, 1.01953125) (-3.6069820404052733e-05, 1.021484375) (-2.1438980102539062e-05, 1.0234375) (-1.0911869049072266e-05, 1.025390625) (-4.1724305152893065e-06, 1.02734375) (-8.292328715324401e-07, 1.029296875) (-4.887941479682922e-08, 1.03125) (-2.780399918556213e-07, 1.033203125) (-4.3541803956031796e-07, 1.03515625) (-1.9067442417144773e-07, 1.037109375) (5.603536367416381e-07, 1.0390625) (1.7704482078552245e-06, 1.041015625) (3.346128225326538e-06, 1.04296875) (5.292320251464843e-06, 1.044921875) (7.261652469635009e-06, 1.046875) (8.416887283325194e-06, 1.048828125) (8.366903305053711e-06, 1.05078125) (7.156426429748535e-06, 1.052734375) (4.893781661987304e-06, 1.0546875) (1.8915648460388182e-06, 1.056640625) (-1.5976078510284423e-06, 1.05859375) (-5.468434333801269e-06, 1.060546875) (-9.37157917022705e-06, 1.0625) (-1.2747459411621093e-05, 1.064453125) (-1.5264193534851073e-05, 1.06640625) (-1.675882339477539e-05, 1.068359375) (-1.7179693222045898e-05, 1.0703125) (-1.6658662796020506e-05, 1.072265625) (-1.5266239166259763e-05, 1.07421875) (-1.301621913909912e-05, 1.076171875) (-1.0041282653808593e-05, 1.078125) (-6.5358591079711914e-06, 1.080078125) (-2.7146980762481686e-06, 1.08203125) (1.1968960762023925e-06, 1.083984375) (5.0766134262084955e-06, 1.0859375) (8.889814376831054e-06, 1.087890625) (1.2589296340942382e-05, 1.08984375) (1.613030433654785e-05, 1.091796875) (1.9453205108642576e-05, 1.09375) (2.2476276397705077e-05, 1.095703125) (2.517227554321289e-05, 1.09765625) (2.754716873168945e-05, 1.099609375) (2.9591732025146485e-05, 1.1015625) (3.1303398132324216e-05, 1.103515625) (3.2672538757324216e-05, 1.10546875) (3.368544006347656e-05, 1.107421875) (3.437150955200195e-05, 1.109375) (3.4789093017578125e-05, 1.111328125) (3.500276947021484e-05, 1.11328125) (3.50839614868164e-05, 1.115234375) (3.507815551757812e-05, 1.1171875) (3.500507354736328e-05, 1.119140625) (3.488552856445312e-05, 1.12109375) (3.473427581787109e-05, 1.123046875) (3.4560302734375e-05, 1.125) (3.4371818542480467e-05, 1.126953125) (3.415958023071289e-05, 1.12890625) (3.390370559692383e-05, 1.130859375) (3.359641647338867e-05, 1.1328125) (3.323569869995117e-05, 1.134765625) (3.282233810424805e-05, 1.13671875) (3.236167907714843e-05, 1.138671875) (3.184958457946777e-05, 1.140625) (3.127500534057617e-05, 1.142578125) (3.06296329498291e-05, 1.14453125) (2.990390586853027e-05, 1.146484375) (2.908981132507324e-05, 1.1484375) (2.8183572769165038e-05, 1.150390625) (2.7181142807006833e-05, 1.15234375) (2.607988166809082e-05, 1.154296875) (2.4882638931274414e-05, 1.15625) (2.3595558166503906e-05, 1.158203125) (2.2227462768554687e-05, 1.16015625) (2.0790645599365233e-05, 1.162109375) (1.9295833587646484e-05, 1.1640625) (1.7752079010009766e-05, 1.166015625) (1.616869354248047e-05, 1.16796875) (1.4553794860839843e-05, 1.169921875) (1.2914543151855468e-05, 1.171875) (1.1257585525512694e-05, 1.173828125) (9.58908462524414e-06, 1.17578125) (7.915418148040771e-06, 1.177734375) (6.244375705718994e-06, 1.1796875) (4.5843729972839355e-06, 1.181640625) (2.9439859390258786e-06, 1.18359375) (1.3325462341308593e-06, 1.185546875) (-2.4018388986587524e-07, 1.1875) (-1.7635197639465332e-06, 1.189453125) (-3.22678279876709e-06, 1.19140625) (-4.621248722076416e-06, 1.193359375) (-5.939979076385498e-06, 1.1953125) (-7.1770401000976555e-06, 1.197265625) (-8.327857971191405e-06, 1.19921875) (-9.389331817626953e-06, 1.201171875) (-1.0360051155090332e-05, 1.203125) (-1.1241477966308593e-05, 1.205078125) (-1.2036415100097656e-05, 1.20703125) (-1.2746611595153808e-05, 1.208984375) (-1.33732852935791e-05, 1.2109375) (-1.3917707443237304e-05, 1.212890625) (-1.4381223678588867e-05, 1.21484375) (-1.476608657836914e-05, 1.216796875) (-1.5074991226196289e-05, 1.21875) (-1.5310220718383787e-05, 1.220703125) (-1.5475811958312987e-05, 1.22265625) (-1.5578569412231446e-05, 1.224609375) (-1.5628261566162108e-05, 1.2265625) (-1.5637771606445312e-05, 1.228515625) (-1.561965465545654e-05, 1.23046875) (-1.5584988594055175e-05, 1.232421875) (-1.5543707847595215e-05, 1.234375) (-1.5503867149353026e-05, 1.236328125) (-1.547355651855469e-05, 1.23828125) (-1.5462299346923828e-05, 1.240234375) (-1.5475284576416014e-05, 1.2421875) (-1.5512337684631346e-05, 1.244140625) (-1.55783634185791e-05, 1.24609375) (-1.5682263374328612e-05, 1.248046875) (-1.5842354774475095e-05, 1.25) (-1.6089096069335936e-05, 1.251953125) (-1.644268798828125e-05, 1.25390625) (-1.691129493713379e-05, 1.255859375) (-1.750008201599121e-05, 1.2578125) (-1.8211669921875e-05, 1.259765625) (-1.904543685913086e-05, 1.26171875) (-1.9994606018066406e-05, 1.263671875) (-2.1032279968261717e-05, 1.265625) (-2.210612106323242e-05, 1.267578125) (-2.3166820526123044e-05, 1.26953125) (-2.4179168701171874e-05, 1.271484375) (-2.5132682800292966e-05, 1.2734375) (-2.6039794921874998e-05, 1.275390625) (-2.689809226989746e-05, 1.27734375) (-2.769659614562988e-05, 1.279296875) (-2.8408954620361326e-05, 1.28125) (-2.9000255584716796e-05, 1.283203125) (-2.9474098205566406e-05, 1.28515625) (-2.984489059448242e-05, 1.287109375) (-3.010825729370117e-05, 1.2890625) (-3.0238883972167967e-05, 1.291015625) (-3.0211395263671873e-05, 1.29296875) (-3.003969955444336e-05, 1.294921875) (-2.982023239135742e-05, 1.296875) (-2.972763442993164e-05, 1.298828125) (-2.9921329498291014e-05, 1.30078125) (-3.0515678405761717e-05, 1.302734375) (-3.15562515258789e-05, 1.3046875) (-3.30836181640625e-05, 1.306640625) (-3.52073974609375e-05, 1.30859375) (-3.7949638366699215e-05, 1.310546875) (-4.124467086791992e-05, 1.3125) (-4.492635345458984e-05, 1.314453125) (-4.864571380615234e-05, 1.31640625) (-5.2116550445556635e-05, 1.318359375) (-5.52446403503418e-05, 1.3203125) (-5.787308502197266e-05, 1.322265625) (-5.9732421875e-05, 1.32421875) (-6.077276992797851e-05, 1.326171875) (-6.104109191894532e-05, 1.328125) (-6.07504653930664e-05, 1.330078125) (-6.0542617797851557e-05, 1.33203125) (-6.086799621582031e-05, 1.333984375) (-6.182846069335937e-05, 1.3359375) (-6.374535369873047e-05, 1.337890625) (-6.700232696533203e-05, 1.33984375) (-7.146918487548828e-05, 1.341796875) (-7.666934204101562e-05, 1.34375) (-8.154635620117187e-05, 1.345703125) (-8.434484863281249e-05, 1.34765625) (-8.372932434082031e-05, 1.349609375) (-7.880821228027343e-05, 1.3515625) (-6.82322998046875e-05, 1.353515625) (-5.0535236358642575e-05, 1.35546875) (-2.4918674468994138e-05, 1.357421875) (8.790496826171875e-06, 1.359375) (4.9489990234375e-05, 1.361328125) (9.490998840332031e-05, 1.36328125) (0.00014319647216796873, 1.365234375) (0.00019259814453125, 1.3671875) (0.00024030035400390623, 1.369140625) (0.00028283480834960935, 1.37109375) (0.00031672653198242185, 1.373046875) (0.00033864157104492184, 1.375) (0.00034672180175781246, 1.376953125) (0.0003404461975097656, 1.37890625) (0.0003188872680664062, 1.380859375) (0.00028151797485351563, 1.3828125) (0.00022944305419921873, 1.384765625) (0.0001650296630859375, 1.38671875) (9.188977813720703e-05, 1.388671875) (1.4622501373291015e-05, 1.390625) (-6.307929992675781e-05, 1.392578125) (-0.00013822914123535156, 1.39453125) (-0.00020696134948730468, 1.396484375) (-0.00026563571166992185, 1.3984375) (-0.00031170675659179684, 1.400390625) (-0.00034354089355468747, 1.40234375) (-0.00036112518310546873, 1.404296875) (-0.00036580026245117185, 1.40625) (-0.0003584272766113281, 1.408203125) (-0.00033974835205078123, 1.41015625) (-0.0003117648010253906, 1.412109375) (-0.00027687689208984374, 1.4140625) (-0.00023762806701660156, 1.416015625) (-0.00019669726562499999, 1.41796875) (-0.0001559175109863281, 1.419921875) (-0.00011648049163818358, 1.421875) (-8.015979766845703e-05, 1.423828125) (-4.8975513458251954e-05, 1.42578125) (-2.3924911499023435e-05, 1.427734375) (-5.297956943511963e-06, 1.4296875) (7.275056838989258e-06, 1.431640625) (1.4803778648376464e-05, 1.43359375) (1.8171005249023437e-05, 1.435546875) (1.8185752868652342e-05, 1.4375) (1.6249095916748048e-05, 1.439453125) (1.4214566230773925e-05, 1.44140625) (1.3252798080444336e-05, 1.443359375) (1.3851684570312499e-05, 1.4453125) (1.6112096786499023e-05, 1.447265625) (1.9670509338378904e-05, 1.44921875) (2.417649459838867e-05, 1.451171875) (2.9390899658203124e-05, 1.453125) (3.4696525573730466e-05, 1.455078125) (3.914055633544922e-05, 1.45703125) (4.223031234741211e-05, 1.458984375) (4.39249382019043e-05, 1.4609375) (4.432856750488281e-05, 1.462890625) (4.380213928222656e-05, 1.46484375) (4.262738418579101e-05, 1.466796875) (4.090848922729492e-05, 1.46875) (3.896960067749023e-05, 1.470703125) (3.728949737548828e-05, 1.47265625) (3.6184135437011715e-05, 1.474609375) (3.586779022216797e-05, 1.4765625) (3.6428466796874996e-05, 1.478515625) (3.777506256103515e-05, 1.48046875) (3.986473083496094e-05, 1.482421875) (4.270661926269531e-05, 1.484375) (4.621460723876953e-05, 1.486328125) (5.026876068115234e-05, 1.48828125) (5.4709220886230463e-05, 1.490234375) (5.930942153930664e-05, 1.4921875) (6.393523406982421e-05, 1.494140625) (6.85357437133789e-05, 1.49609375) (7.306413269042968e-05, 1.498046875) (7.750700378417969e-05, 1.5) (8.183539581298828e-05, 1.501953125) (8.599224090576171e-05, 1.50390625) (8.994766235351562e-05, 1.505859375) (9.368707275390625e-05, 1.5078125) (9.718736267089843e-05, 1.509765625) (0.00010043331909179687, 1.51171875) (0.00010340177917480468, 1.513671875) (0.00010605933380126953, 1.515625) (0.0001084056625366211, 1.517578125) (0.00011046061706542969, 1.51953125) (0.00011226662445068358, 1.521484375) (0.00011389691162109374, 1.5234375) (0.00011539939880371093, 1.525390625) (0.00011679689025878906, 1.52734375) (0.00011810722351074218, 1.529296875) (0.00011933271026611327, 1.53125) (0.00012047361755371094, 1.533203125) (0.00012153421020507812, 1.53515625) (0.00012250341033935547, 1.537109375) (0.00012335777282714843, 1.5390625) (0.00012408360290527343, 1.541015625) (0.0001246721649169922, 1.54296875) (0.0001251200714111328, 1.544921875) (0.0001254325408935547, 1.546875) (0.00012560697174072264, 1.548828125) (0.00012563483428955078, 1.55078125) (0.00012550635528564452, 1.552734375) (0.00012520764923095704, 1.5546875) (0.0001247285385131836, 1.556640625) (0.00012406402587890623, 1.55859375) (0.00012320968627929687, 1.560546875) (0.00012216331481933594, 1.5625) (0.00012092666625976562, 1.564453125) (0.00011950371551513671, 1.56640625) (0.0001179038848876953, 1.568359375) (0.0001161423110961914, 1.5703125) (0.00011423256683349609, 1.572265625) (0.00011218692016601562, 1.57421875) (0.00011001752471923827, 1.576171875) (0.00010773534393310546, 1.578125) (0.00010535258483886718, 1.580078125) (0.00010288292694091797, 1.58203125) (0.00010033934020996093, 1.583984375) (9.773405456542969e-05, 1.5859375) (9.507997894287109e-05, 1.587890625) (9.239041137695312e-05, 1.58984375) (8.967950439453125e-05, 1.591796875) (8.696231842041015e-05, 1.59375) (8.425364685058593e-05, 1.595703125) (8.156813049316406e-05, 1.59765625) (7.892021179199218e-05, 1.599609375) (7.632392883300782e-05, 1.6015625) (7.379312133789063e-05, 1.603515625) (7.1341064453125e-05, 1.60546875) (6.897991943359375e-05, 1.607421875) (6.672074127197265e-05, 1.609375) (6.457318115234374e-05, 1.611328125) (6.254444122314453e-05, 1.61328125) (6.063991546630859e-05, 1.615234375) (5.886269378662109e-05, 1.6171875) (5.721310424804687e-05, 1.619140625) (5.56904182434082e-05, 1.62109375) (5.429278182983398e-05, 1.623046875) (5.301669311523437e-05, 1.625) (5.185813522338867e-05, 1.626953125) (5.081311416625976e-05, 1.62890625) (4.987600708007812e-05, 1.630859375) (4.9042079925537104e-05, 1.6328125) (4.8307723999023436e-05, 1.634765625) (4.766641998291015e-05, 1.63671875) (4.7110370635986327e-05, 1.638671875) (4.662891387939453e-05, 1.640625) (4.6206317901611324e-05, 1.642578125) (4.582688903808594e-05, 1.64453125) (4.5476417541503905e-05, 1.646484375) (4.513926696777344e-05, 1.6484375) (4.480155944824219e-05, 1.650390625) (4.4451164245605464e-05, 1.65234375) (4.407344055175781e-05, 1.654296875) (4.366035079956055e-05, 1.65625) (4.321100997924804e-05, 1.658203125) (4.27204360961914e-05, 1.66015625) (4.2182792663574214e-05, 1.662109375) (4.158421325683594e-05, 1.6640625) (4.0896476745605466e-05, 1.666015625) (4.0097862243652345e-05, 1.66796875) (3.9177658081054684e-05, 1.669921875) (3.812876510620117e-05, 1.671875) (3.695515441894531e-05, 1.673828125) (3.566505050659179e-05, 1.67578125) (3.42645149230957e-05, 1.677734375) (3.2781532287597656e-05, 1.6796875) (3.126406669616699e-05, 1.681640625) (2.9760747909545896e-05, 1.68359375) (2.832277488708496e-05, 1.685546875) (2.6974979400634764e-05, 1.6875) (2.5707237243652342e-05, 1.689453125) (2.451410675048828e-05, 1.69140625) (2.339720916748047e-05, 1.693359375) (2.2368343353271484e-05, 1.6953125) (2.1466651916503904e-05, 1.697265625) (2.0710262298583983e-05, 1.69921875) (2.0080078125e-05, 1.701171875) (1.9561962127685547e-05, 1.703125) (1.9140233993530274e-05, 1.705078125) (1.880238914489746e-05, 1.70703125) (1.8537771224975584e-05, 1.708984375) (1.8280935287475585e-05, 1.7109375) (1.7908143997192383e-05, 1.712890625) (1.7273677825927733e-05, 1.71484375) (1.6239080429077147e-05, 1.716796875) (1.4729192733764648e-05, 1.71875) (1.2726483345031738e-05, 1.720703125) (1.0215385437011719e-05, 1.72265625) (7.188981056213379e-06, 1.724609375) (3.6048908233642575e-06, 1.7265625) (-6.098215579986572e-07, 1.728515625) (-5.37971305847168e-06, 1.73046875) (-1.0514190673828124e-05, 1.732421875) (-1.577251625061035e-05, 1.734375) (-2.0832340240478515e-05, 1.736328125) (-2.5474029541015623e-05, 1.73828125) (-2.953122329711914e-05, 1.740234375) (-3.263185882568359e-05, 1.7421875) (-3.436528778076172e-05, 1.744140625) (-3.453244781494141e-05, 1.74609375) (-3.3109020233154295e-05, 1.748046875) (-3.0504243850708006e-05, 1.75) (-2.7442655563354492e-05, 1.751953125) (-2.4382511138916015e-05, 1.75390625) (-2.1744346618652343e-05, 1.755859375) (-2.003739547729492e-05, 1.7578125) (-1.9416385650634763e-05, 1.759765625) (-1.9720674514770506e-05, 1.76171875) (-2.0518375396728516e-05, 1.763671875) (-2.0666204452514646e-05, 1.765625) (-1.8624322891235352e-05, 1.767578125) (-1.2930560111999511e-05, 1.76953125) (-1.8563137054443359e-06, 1.771484375) (1.634741973876953e-05, 1.7734375) (4.197433471679687e-05, 1.775390625) (7.374703979492187e-05, 1.77734375) (0.00011011918640136718, 1.779296875) (0.00014905986022949218, 1.78125) (0.00019086749267578125, 1.783203125) (0.00023827969360351562, 1.78515625) (0.00029056018066406247, 1.787109375) (0.00034404736328124997, 1.7890625) (0.00039005871582031246, 1.791015625) (0.0004156578674316406, 1.79296875) (0.0004142862548828125, 1.794921875) (0.00038472448730468746, 1.796875) (0.0003311354675292969, 1.798828125) (0.00026328961181640623, 1.80078125) (0.00018652783203125, 1.802734375) (0.00010402200317382812, 1.8046875) (1.9909276962280274e-05, 1.806640625) (-6.232300949096679e-05, 1.80859375) (-0.00013625451660156249, 1.810546875) (-0.00019552706909179687, 1.8125) (-0.00023862924194335936, 1.814453125) (-0.0002684005126953125, 1.81640625) (-0.00028915966796874996, 1.818359375) (-0.00030434716796874997, 1.8203125) (-0.0003146756591796875, 1.822265625) (-0.0003172291259765625, 1.82421875) (-0.00030988311767578123, 1.826171875) (-0.0002932601318359375, 1.828125) (-0.00026911944580078123, 1.830078125) (-0.00024066619873046874, 1.83203125) (-0.00021071195983886717, 1.833984375) (-0.00018023455810546875, 1.8359375) (-0.00014965257263183592, 1.837890625) (-0.00011977143859863281, 1.83984375) (-9.154495239257812e-05, 1.841796875) (-6.581063842773437e-05, 1.84375) (-4.353649139404297e-05, 1.845703125) (-2.505635643005371e-05, 1.84765625) (-1.0066529273986815e-05, 1.849609375) (1.5305159091949461e-06, 1.8515625) (9.919572830200194e-06, 1.853515625) (1.5761094093322754e-05, 1.85546875) (1.986915588378906e-05, 1.857421875) (2.2945535659790038e-05, 1.859375) (2.572089958190918e-05, 1.861328125) (2.8556970596313474e-05, 1.86328125) (3.1431549072265625e-05, 1.865234375) (3.438409805297851e-05, 1.8671875) (3.737053680419922e-05, 1.869140625) (4.005824279785156e-05, 1.87109375) (4.198141860961914e-05, 1.873046875) (4.282550811767578e-05, 1.875) (4.2433887481689455e-05, 1.876953125) (4.089337921142578e-05, 1.87890625) (3.8465751647949216e-05, 1.880859375) (3.5344696044921874e-05, 1.8828125) (3.169347763061523e-05, 1.884765625) (2.7792261123657227e-05, 1.88671875) (2.403058624267578e-05, 1.888671875) (2.074601936340332e-05, 1.890625) (1.8204114913940428e-05, 1.892578125) (1.653023910522461e-05, 1.89453125) (1.5704336166381835e-05, 1.896484375) (1.5701717376708985e-05, 1.8984375) (1.650488471984863e-05, 1.900390625) (1.805858612060547e-05, 1.90234375) (2.0249271392822266e-05, 1.904296875) (2.2922313690185547e-05, 1.90625) (2.587165069580078e-05, 1.908203125) (2.890078353881836e-05, 1.91015625) (3.1902023315429686e-05, 1.912109375) (3.48092041015625e-05, 1.9140625) (3.7579696655273434e-05, 1.916015625) (4.0178939819335935e-05, 1.91796875) (4.255391311645508e-05, 1.919921875) (4.4652923583984375e-05, 1.921875) (4.644682312011719e-05, 1.923828125) (4.7930843353271485e-05, 1.92578125) (4.90999641418457e-05, 1.927734375) (4.994643783569336e-05, 1.9296875) (5.045873260498047e-05, 1.931640625) (5.0628158569335936e-05, 1.93359375) (5.047614288330078e-05, 1.935546875) (5.0051628112792964e-05, 1.9375) (4.942745971679687e-05, 1.939453125) (4.868172836303711e-05, 1.94140625) (4.7866725921630856e-05, 1.943359375) (4.701487350463867e-05, 1.9453125) (4.614857482910156e-05, 1.947265625) (4.5284263610839844e-05, 1.94921875) (4.443699264526367e-05, 1.951171875) (4.361655807495117e-05, 1.953125) (4.28188362121582e-05, 1.955078125) (4.2030147552490235e-05, 1.95703125) (4.124454498291015e-05, 1.958984375) (4.046315765380859e-05, 1.9609375) (3.969166564941406e-05, 1.962890625) (3.893848037719726e-05, 1.96484375) (3.8203914642333985e-05, 1.966796875) (3.748138427734375e-05, 1.96875) (3.676136779785156e-05, 1.970703125) (3.603287887573242e-05, 1.97265625) (3.528778076171875e-05, 1.974609375) (3.452065277099609e-05, 1.9765625) (3.372662353515625e-05, 1.978515625) (3.290218353271484e-05, 1.98046875) (3.2046546936035156e-05, 1.982421875) (3.1161556243896486e-05, 1.984375) (3.0253204345703122e-05, 1.986328125) (2.9330192565917966e-05, 1.98828125) (2.8399066925048826e-05, 1.990234375) (2.746447944641113e-05, 1.9921875) (2.653011894226074e-05, 1.994140625) (2.559840393066406e-05, 1.99609375) (2.46722354888916e-05, 1.998046875) (2.3754880905151365e-05, 2.0) (2.2848575592041016e-05, 2.001953125) (2.1955053329467774e-05, 2.00390625) (2.1076576232910156e-05, 2.005859375) (2.0215702056884763e-05, 2.0078125) (1.937527084350586e-05, 2.009765625) (1.8558399200439453e-05, 2.01171875) (1.7767757415771484e-05, 2.013671875) (1.7005733489990233e-05, 2.015625) (1.6274812698364257e-05, 2.017578125) (1.5577013969421387e-05, 2.01953125) (1.4913735389709473e-05, 2.021484375) (1.428617477416992e-05, 2.0234375) (1.369525146484375e-05, 2.025390625) (1.3141521453857421e-05, 2.02734375) (1.2625024795532225e-05, 2.029296875) (1.2144678115844726e-05, 2.03125) (1.1698118209838867e-05, 2.033203125) (1.1282524108886719e-05, 2.03515625) (1.0894975662231444e-05, 2.037109375) (1.0531665802001952e-05, 2.0390625) (1.0187610626220702e-05, 2.041015625) (9.856462478637696e-06, 2.04296875) (9.53159523010254e-06, 2.044921875) (9.207071304321288e-06, 2.046875) (8.877836227416991e-06, 2.048828125) (8.53926944732666e-06, 2.05078125) (8.185099601745605e-06, 2.052734375) (7.808149814605712e-06, 2.0546875) (7.4019579887390135e-06, 2.056640625) (6.960484027862548e-06, 2.05859375) (6.477357864379883e-06, 2.060546875) (5.945817947387695e-06, 2.0625) (5.35752010345459e-06, 2.064453125) (4.703398704528809e-06, 2.06640625) (3.978716135025024e-06, 2.068359375) (3.182032823562622e-06, 2.0703125) (2.3137340545654297e-06, 2.072265625) (1.3771637678146361e-06, 2.07421875) (3.751174509525299e-07, 2.076171875) (-6.910001635551453e-07, 2.078125) (-1.8187254667282104e-06, 2.080078125) (-3.0052130222320553e-06, 2.08203125) (-4.249762058258057e-06, 2.083984375) (-5.555152416229248e-06, 2.0859375) (-6.9304599761962885e-06, 2.087890625) (-8.391528129577636e-06, 2.08984375) (-9.950065612792968e-06, 2.091796875) (-1.1607221603393555e-05, 2.09375) (-1.3350463867187499e-05, 2.095703125) (-1.515668773651123e-05, 2.09765625) (-1.700921630859375e-05, 2.099609375) (-1.889409637451172e-05, 2.1015625) (-2.0792961120605466e-05, 2.103515625) (-2.2683938980102537e-05, 2.10546875) (-2.454040718078613e-05, 2.107421875) (-2.634046173095703e-05, 2.109375) (-2.8079647064208983e-05, 2.111328125) (-2.9764196395874022e-05, 2.11328125) (-3.138582611083984e-05, 2.115234375) (-3.2919460296630856e-05, 2.1171875) (-3.432051849365234e-05, 2.119140625) (-3.552533721923828e-05, 2.12109375) (-3.648238754272461e-05, 2.123046875) (-3.716457748413086e-05, 2.125) (-3.7577327728271485e-05, 2.126953125) (-3.7743492126464845e-05, 2.12890625) (-3.767025375366211e-05, 2.130859375) (-3.7381168365478514e-05, 2.1328125) (-3.692426300048828e-05, 2.134765625) (-3.6369972229003905e-05, 2.13671875) (-3.583010864257812e-05, 2.138671875) (-3.538709259033203e-05, 2.140625) (-3.503269577026367e-05, 2.142578125) (-3.476864242553711e-05, 2.14453125) (-3.464125823974609e-05, 2.146484375) (-3.4632598876953125e-05, 2.1484375) (-3.472453308105468e-05, 2.150390625) (-3.48431167602539e-05, 2.15234375) (-3.473317337036133e-05, 2.154296875) (-3.418626403808594e-05, 2.15625) (-3.307840347290039e-05, 2.158203125) (-3.116313362121582e-05, 2.16015625) (-2.8283081054687498e-05, 2.162109375) (-2.4529546737670896e-05, 2.1640625) (-2.0051618576049803e-05, 2.166015625) (-1.5296464920043945e-05, 2.16796875) (-1.1034589767456054e-05, 2.169921875) (-7.846708297729492e-06, 2.171875) (-6.161342620849609e-06, 2.173828125) (-6.469156265258789e-06, 2.17578125) (-8.988702774047852e-06, 2.177734375) (-1.334729766845703e-05, 2.1796875) (-1.8819843292236328e-05, 2.181640625) (-2.423013114929199e-05, 2.18359375) (-2.7048107147216795e-05, 2.185546875) (-2.4954696655273435e-05, 2.1875) (-1.7124303817749022e-05, 2.189453125) (-1.9649009704589842e-06, 2.19140625) (1.950082778930664e-05, 2.193359375) (4.431190490722656e-05, 2.1953125) (7.346150207519531e-05, 2.197265625) (0.00010653048706054687, 2.19921875) (0.00014472929382324217, 2.201171875) (0.00019263438415527344, 2.203125) (0.0002473851318359375, 2.205078125) (0.0003030380859375, 2.20703125) (0.00035116110229492184, 2.208984375) (0.00037838742065429687, 2.2109375) (0.0003776222534179687, 2.212890625) (0.0003482232971191406, 2.21484375) (0.0002934710998535156, 2.216796875) (0.00022147088623046874, 2.21875) (0.00013835604858398437, 2.220703125) (4.801249694824219e-05, 2.22265625) (-4.560503387451172e-05, 2.224609375) (-0.00013702810668945312, 2.2265625) (-0.00021675563049316406, 2.228515625) (-0.000276552734375, 2.23046875) (-0.00031214205932617186, 2.232421875) (-0.00032547824096679684, 2.234375) (-0.0003252467346191406, 2.236328125) (-0.00031837078857421873, 2.23828125) (-0.00030807125854492184, 2.240234375) (-0.0002937543640136719, 2.2421875) (-0.0002717055358886719, 2.244140625) (-0.00024137950134277343, 2.24609375) (-0.00020507785034179686, 2.248046875) (-0.00016588250732421875, 2.25) (-0.00012761528015136717, 2.251953125) (-9.226785278320312e-05, 2.25390625) (-6.074424743652343e-05, 2.255859375) (-3.4576908111572263e-05, 2.2578125) (-1.4323987007141113e-05, 2.259765625) (2.2019869089126587e-07, 2.26171875) (9.338400840759278e-06, 2.263671875) (1.3947682380676269e-05, 2.265625) (1.4984575271606445e-05, 2.267578125) (1.2989225387573241e-05, 2.26953125) (9.01406192779541e-06, 2.271484375) (4.665722846984863e-06, 2.2734375) (8.883396387100219e-07, 2.275390625) (-1.8888319730758667e-06, 2.27734375) (-3.4715218544006347e-06, 2.279296875) (-4.15087604522705e-06, 2.28125) (-4.129159927368164e-06, 2.283203125) (-3.4012093544006347e-06, 2.28515625) (-2.3707115650177e-06, 2.287109375) (-1.7349590063095093e-06, 2.2890625) (-1.860343813896179e-06, 2.291015625) (-2.897865056991577e-06, 2.29296875) (-4.8172130584716796e-06, 2.294921875) (-7.341939926147461e-06, 2.296875) (-1.0292152404785156e-05, 2.298828125) (-1.3553010940551757e-05, 2.30078125) (-1.6829565048217774e-05, 2.302734375) (-1.9700992584228515e-05, 2.3046875) (-2.1839452743530273e-05, 2.306640625) (-2.3055379867553708e-05, 2.30859375) (-2.3298900604248044e-05, 2.310546875) (-2.2643510818481444e-05, 2.3125) (-2.1175062179565428e-05, 2.314453125) (-1.897657203674316e-05, 2.31640625) (-1.6193246841430663e-05, 2.318359375) (-1.304971694946289e-05, 2.3203125) (-9.748418807983397e-06, 2.322265625) (-6.41666030883789e-06, 2.32421875) (-3.1266398429870604e-06, 2.326171875) (1.1324071884155273e-07, 2.328125) (3.308553695678711e-06, 2.330078125) (6.4327974319458005e-06, 2.33203125) (9.461092948913573e-06, 2.333984375) (1.2377935409545898e-05, 2.3359375) (1.5150251388549804e-05, 2.337890625) (1.7750150680541992e-05, 2.33984375) (2.015472412109375e-05, 2.341796875) (2.2327594757080077e-05, 2.34375) (2.42548770904541e-05, 2.345703125) (2.5950540542602538e-05, 2.34765625) (2.7446411132812498e-05, 2.349609375) (2.8803842544555664e-05, 2.3515625) (3.0083438873291014e-05, 2.353515625) (3.131809043884277e-05, 2.35546875) (3.2526386260986324e-05, 2.357421875) (3.3714965820312496e-05, 2.359375) (3.487779998779297e-05, 2.361328125) (3.600980758666992e-05, 2.36328125) (3.709893798828125e-05, 2.365234375) (3.8119586944580075e-05, 2.3671875) (3.905298233032226e-05, 2.369140625) (3.988853454589844e-05, 2.37109375) (4.061957550048828e-05, 2.373046875) (4.124722290039062e-05, 2.375) (4.176956558227539e-05, 2.376953125) (4.217732620239258e-05, 2.37890625) (4.245889663696289e-05, 2.380859375) (4.259992980957031e-05, 2.3828125) (4.258533859252929e-05, 2.384765625) (4.240375518798828e-05, 2.38671875) (4.2045600891113276e-05, 2.388671875) (4.150214385986328e-05, 2.390625) (4.076871871948242e-05, 2.392578125) (3.984405899047851e-05, 2.39453125) (3.873145294189453e-05, 2.396484375) (3.7439743041992185e-05, 2.3984375) (3.5978206634521485e-05, 2.400390625) (3.435464859008789e-05, 2.40234375) (3.257668685913086e-05, 2.404296875) (3.065184593200683e-05, 2.40625) (2.8588405609130858e-05, 2.408203125) (2.6396049499511717e-05, 2.41015625) (2.4083860397338865e-05, 2.412109375) (2.1659740447998045e-05, 2.4140625) (1.9132720947265624e-05, 2.416015625) (1.6513229370117188e-05, 2.41796875) (1.3813000679016113e-05, 2.419921875) (1.1044726371765136e-05, 2.421875) (8.221346855163574e-06, 2.423828125) (5.355811595916747e-06, 2.42578125) (2.461094379425049e-06, 2.427734375) (-4.492417573928833e-07, 2.4296875) (-3.3622350692749022e-06, 2.431640625) (-6.266253471374511e-06, 2.43359375) (-9.150171279907226e-06, 2.435546875) (-1.2003643989562987e-05, 2.4375) (-1.4818397521972655e-05, 2.439453125) (-1.7587673187255858e-05, 2.44140625) (-2.0305999755859373e-05, 2.443359375) (-2.297054672241211e-05, 2.4453125) (-2.5578664779663085e-05, 2.447265625) (-2.812729263305664e-05, 2.44921875) (-3.061549377441406e-05, 2.451171875) (-3.304302215576172e-05, 2.453125) (-3.540890502929687e-05, 2.455078125) (-3.771302032470703e-05, 2.45703125) (-3.9955204010009765e-05, 2.458984375) (-4.213385772705078e-05, 2.4609375) (-4.425032806396484e-05, 2.462890625) (-4.630820083618164e-05, 2.46484375) (-4.831117248535156e-05, 2.466796875) (-5.026675796508789e-05, 2.46875) (-5.218452453613281e-05, 2.470703125) (-5.407423400878906e-05, 2.47265625) (-5.594769287109375e-05, 2.474609375) (-5.7817283630371094e-05, 2.4765625) (-5.9693229675292964e-05, 2.478515625) (-6.158540725708007e-05, 2.48046875) (-6.350092315673828e-05, 2.482421875) (-6.5439697265625e-05, 2.484375) (-6.740370941162109e-05, 2.486328125) (-6.939688873291015e-05, 2.48828125) (-7.142607879638671e-05, 2.490234375) (-7.350714111328124e-05, 2.4921875) (-7.565099334716797e-05, 2.494140625) (-7.786102294921874e-05, 2.49609375) (-8.01405792236328e-05, 2.498046875) (-8.248858642578124e-05, 2.5) (-8.489322662353515e-05, 2.501953125) (-8.733659362792968e-05, 2.50390625) (-8.978717803955078e-05, 2.505859375) (-9.219169616699219e-05, 2.5078125) (-9.450263214111328e-05, 2.509765625) (-9.667715454101561e-05, 2.51171875) (-9.867671966552734e-05, 2.513671875) (-0.00010049066162109375, 2.515625) (-0.0001021183853149414, 2.517578125) (-0.00010355955505371094, 2.51953125) (-0.00010480978393554687, 2.521484375) (-0.00010585746002197265, 2.5234375) (-0.00010669662475585937, 2.525390625) (-0.00010733543395996093, 2.52734375) (-0.00010779420471191405, 2.529296875) (-0.00010808629608154296, 2.53125) (-0.00010823252868652344, 2.533203125) (-0.00010826773071289063, 2.53515625) (-0.00010826191711425781, 2.537109375) (-0.00010834023284912108, 2.5390625) (-0.00010863096618652343, 2.541015625) (-0.0001092486572265625, 2.54296875) (-0.00011027471923828125, 2.544921875) (-0.00011174311065673828, 2.546875) (-0.00011366239929199218, 2.548828125) (-0.00011602837371826171, 2.55078125) (-0.00011884870910644531, 2.552734375) (-0.00012211260986328125, 2.5546875) (-0.00012576644897460936, 2.556640625) (-0.00012974876403808592, 2.55859375) (-0.00013399954223632812, 2.560546875) (-0.00013840359497070313, 2.5625) (-0.00014279132080078125, 2.564453125) (-0.00014693426513671875, 2.56640625) (-0.0001504140625, 2.568359375) (-0.00015272164916992187, 2.5703125) (-0.00015344570922851562, 2.572265625) (-0.000152217529296875, 2.57421875) (-0.00014871588134765624, 2.576171875) (-0.00014295404052734376, 2.578125) (-0.00013521604919433593, 2.580078125) (-0.00012586759948730468, 2.58203125) (-0.00011567247772216796, 2.583984375) (-0.00010567843627929687, 2.5859375) (-9.657449340820312e-05, 2.587890625) (-8.871138000488281e-05, 2.58984375) (-8.23973388671875e-05, 2.591796875) (-7.66031265258789e-05, 2.59375) (-6.994991302490234e-05, 2.595703125) (-6.214358520507813e-05, 2.59765625) (-5.1477294921874996e-05, 2.599609375) (-3.7297874450683595e-05, 2.6015625) (-1.972566223144531e-05, 2.603515625) (3.6570682525634765e-06, 2.60546875) (3.307286071777343e-05, 2.607421875) (6.91610336303711e-05, 2.609375) (0.00011376742553710937, 2.611328125) (0.00016522880554199217, 2.61328125) (0.00022217678833007812, 2.615234375) (0.0002805543212890625, 2.6171875) (0.00033199960327148434, 2.619140625) (0.0003684931335449219, 2.62109375) (0.00038236358642578124, 2.623046875) (0.00037003558349609373, 2.625) (0.00033394946289062497, 2.626953125) (0.00027998919677734373, 2.62890625) (0.00021547491455078125, 2.630859375) (0.00014595347595214842, 2.6328125) (7.383367919921874e-05, 2.634765625) (-3.7940311431884765e-07, 2.63671875) (-7.614036560058594e-05, 2.638671875) (-0.00015138827514648437, 2.640625) (-0.00022191647338867186, 2.642578125) (-0.00028269580078125, 2.64453125) (-0.00033039141845703126, 2.646484375) (-0.0003635525817871094, 2.6484375) (-0.00038227487182617185, 2.650390625) (-0.00038793688964843746, 2.65234375) (-0.0003813171081542969, 2.654296875) (-0.000362879150390625, 2.65625) (-0.00033446923828125, 2.658203125) (-0.00029859146118164063, 2.66015625) (-0.00025793017578125, 2.662109375) (-0.00021530102539062498, 2.6640625) (-0.00017271990966796874, 2.666015625) (-0.00013147344970703125, 2.66796875) (-9.334667968749999e-05, 2.669921875) (-6.0389282226562494e-05, 2.671875) (-3.3561344146728516e-05, 2.673828125) (-1.307943820953369e-05, 2.67578125) (1.4419529438018797e-06, 2.677734375) (1.1070572853088378e-05, 2.6796875) (1.6708026885986327e-05, 2.681640625) (1.9060007095336912e-05, 2.68359375) (1.9411211013793943e-05, 2.685546875) (1.9438228607177733e-05, 2.6875) (2.0117177963256837e-05, 2.689453125) (2.186491584777832e-05, 2.69140625) (2.471502685546875e-05, 2.693359375) (2.8235271453857422e-05, 2.6953125) (3.210968780517578e-05, 2.697265625) (3.61415786743164e-05, 2.69921875) (3.975649642944336e-05, 2.701171875) (4.2120712280273435e-05, 2.703125) (4.281471633911133e-05, 2.705078125) (4.183494567871094e-05, 2.70703125) (3.941460418701172e-05, 2.708984375) (3.5992252349853514e-05, 2.7109375) (3.187788963317871e-05, 2.712890625) (2.7251564025878906e-05, 2.71484375) (2.24483642578125e-05, 2.716796875) (1.7963167190551758e-05, 2.71875) (1.4185426712036132e-05, 2.720703125) (1.1322500228881835e-05, 2.72265625) (9.438532829284668e-06, 2.724609375) (8.452974319458008e-06, 2.7265625) (8.291618347167968e-06, 2.728515625) (8.947179794311523e-06, 2.73046875) (1.0367288589477538e-05, 2.732421875) (1.2418771743774413e-05, 2.734375) (1.4932348251342772e-05, 2.736328125) (1.7706214904785156e-05, 2.73828125) (2.055330276489258e-05, 2.740234375) (2.3382953643798828e-05, 2.7421875) (2.6147216796875e-05, 2.744140625) (2.8789745330810547e-05, 2.74609375) (3.1264781951904294e-05, 2.748046875) (3.35074234008789e-05, 2.75) (3.544620132446289e-05, 2.751953125) (3.706308746337891e-05, 2.75390625) (3.836425399780273e-05, 2.755859375) (3.9345146179199215e-05, 2.7578125) (4.000672149658203e-05, 2.759765625) (4.03437385559082e-05, 2.76171875) (4.035056686401367e-05, 2.763671875) (4.006212997436523e-05, 2.765625) (3.954264068603515e-05, 2.767578125) (3.8861999511718745e-05, 2.76953125) (3.809632110595703e-05, 2.771484375) (3.729705047607422e-05, 2.7734375) (3.6490070343017575e-05, 2.775390625) (3.570167541503906e-05, 2.77734375) (3.49524917602539e-05, 2.779296875) (3.425809097290039e-05, 2.78125) (3.363197326660156e-05, 2.783203125) (3.307096481323242e-05, 2.78515625) (3.256058502197265e-05, 2.787109375) (3.209678649902344e-05, 2.7890625) (3.168210792541504e-05, 2.791015625) (3.132124328613281e-05, 2.79296875) (3.102282905578613e-05, 2.794921875) (3.078517150878906e-05, 2.796875) (3.0597137451171876e-05, 2.798828125) (3.0449298858642575e-05, 2.80078125) (3.0331443786621094e-05, 2.802734375) (3.0235099792480466e-05, 2.8046875) (3.01561107635498e-05, 2.806640625) (3.0089632034301756e-05, 2.80859375) (3.003062057495117e-05, 2.810546875) (2.997846221923828e-05, 2.8125) (2.9935886383056638e-05, 2.814453125) (2.9907970428466795e-05, 2.81640625) (2.9902275085449217e-05, 2.818359375) (2.9923027038574218e-05, 2.8203125) (2.9970157623291016e-05, 2.822265625) (3.0041957855224607e-05, 2.82421875) (3.0135217666625974e-05, 2.826171875) (3.0246482849121093e-05, 2.828125) (3.037256622314453e-05, 2.830078125) (3.050907516479492e-05, 2.83203125) (3.06503791809082e-05, 2.833984375) (3.079191207885742e-05, 2.8359375) (3.093062400817871e-05, 2.837890625) (3.106475830078125e-05, 2.83984375) (3.119343566894531e-05, 2.841796875) (3.1314533233642577e-05, 2.84375) (3.142443656921387e-05, 2.845703125) (3.1519168853759765e-05, 2.84765625) (3.159406089782715e-05, 2.849609375) (3.1643375396728515e-05, 2.8515625) (3.166006278991699e-05, 2.853515625) (3.163530158996582e-05, 2.85546875) (3.1559745788574215e-05, 2.857421875) (3.142561340332031e-05, 2.859375) (3.1226905822753904e-05, 2.861328125) (3.0958135604858394e-05, 2.86328125) (3.061470603942871e-05, 2.865234375) (3.019313621520996e-05, 2.8671875) (2.9690872192382813e-05, 2.869140625) (2.910700988769531e-05, 2.87109375) (2.8440093994140625e-05, 2.873046875) (2.7685653686523436e-05, 2.875) (2.6836332321166992e-05, 2.876953125) (2.5883306503295898e-05, 2.87890625) (2.4818950653076172e-05, 2.880859375) (2.363722229003906e-05, 2.8828125) (2.233431816101074e-05, 2.884765625) (2.0908418655395508e-05, 2.88671875) (1.9358173370361327e-05, 2.888671875) (1.7684017181396485e-05, 2.890625) (1.5891918182373046e-05, 2.892578125) (1.3993646621704101e-05, 2.89453125) (1.1997234344482422e-05, 2.896484375) (9.906008720397949e-06, 2.8984375) (7.714443206787108e-06, 2.900390625) (5.405462741851806e-06, 2.90234375) (2.971261978149414e-06, 2.904296875) (4.1716808080673217e-07, 2.90625) (-2.248039722442627e-06, 2.908203125) (-5.0144176483154294e-06, 2.91015625) (-7.869359970092773e-06, 2.912109375) (-1.0792922973632812e-05, 2.9140625) (-1.3746891975402831e-05, 2.916015625) (-1.6668949127197264e-05, 2.91796875) (-1.949960708618164e-05, 2.919921875) (-2.2198898315429686e-05, 2.921875) (-2.475262641906738e-05, 2.923828125) (-2.7168508529663086e-05, 2.92578125) (-2.9440780639648436e-05, 2.927734375) (-3.155559539794922e-05, 2.9296875) (-3.348785400390625e-05, 2.931640625) (-3.520061874389648e-05, 2.93359375) (-3.669436264038086e-05, 2.935546875) (-3.7988677978515623e-05, 2.9375) (-3.908175659179687e-05, 2.939453125) (-3.995915222167969e-05, 2.94140625) (-4.061231231689453e-05, 2.943359375) (-4.105176544189453e-05, 2.9453125) (-4.136383056640625e-05, 2.947265625) (-4.1721405029296874e-05, 2.94921875) (-4.2274391174316404e-05, 2.951171875) (-4.312751770019531e-05, 2.953125) (-4.4342147827148434e-05, 2.955078125) (-4.5918090820312496e-05, 2.95703125) (-4.7911685943603515e-05, 2.958984375) (-5.041794204711914e-05, 2.9609375) (-5.3427787780761714e-05, 2.962890625) (-5.683666229248046e-05, 2.96484375) (-6.041321563720703e-05, 2.966796875) (-6.382830047607421e-05, 2.96875) (-6.687369537353516e-05, 2.970703125) (-6.950537872314453e-05, 2.97265625) (-7.155817413330078e-05, 2.974609375) (-7.27332534790039e-05, 2.9765625) (-7.289452362060546e-05, 2.978515625) (-7.198596191406249e-05, 2.98046875) (-7.023271179199218e-05, 2.982421875) (-6.824665832519531e-05, 2.984375) (-6.64082794189453e-05, 2.986328125) (-6.476141357421875e-05, 2.98828125) (-6.350392913818359e-05, 2.990234375) (-6.29485626220703e-05, 2.9921875) (-6.299186706542969e-05, 2.994140625) (-6.330192565917969e-05, 2.99609375) (-6.311924362182617e-05, 2.998046875) (-6.100061798095703e-05, 3.0) (-5.583108139038086e-05, 3.001953125) (-4.6986972808837886e-05, 3.00390625) (-3.357070541381836e-05, 3.005859375) (-1.4512386322021484e-05, 3.0078125) (1.0723665237426757e-05, 3.009765625) (4.228683090209961e-05, 3.01171875) (7.979513549804687e-05, 3.013671875) (0.00012119960021972656, 3.015625) (0.00016384628295898436, 3.017578125) (0.00020582818603515624, 3.01953125) (0.00024449200439453125, 3.021484375) (0.0002788908386230469, 3.0234375) (0.0003105540771484375, 3.025390625) (0.0003382394104003906, 3.02734375) (0.0003593138427734375, 3.029296875) (0.000368324462890625, 3.03125) (0.0003557920532226562, 3.033203125) (0.0003170724182128906, 3.03515625) (0.000253167724609375, 3.037109375) (0.000168684814453125, 3.0390625) (7.252796173095703e-05, 3.041015625) (-2.724276351928711e-05, 3.04296875) (-0.00012515853118896483, 3.044921875) (-0.00021384899902343748, 3.046875) (-0.0002846744689941406, 3.048828125) (-0.0003323154907226562, 3.05078125) (-0.0003545505676269531, 3.052734375) (-0.0003548695068359375, 3.0546875) (-0.00034261459350585935, 3.056640625) (-0.0003239143981933594, 3.05859375) (-0.00030112927246093746, 3.060546875) (-0.00027461474609375, 3.0625) (-0.00024197177124023436, 3.064453125) (-0.0002035030822753906, 3.06640625) (-0.00016201300048828123, 3.068359375) (-0.00011993609619140624, 3.0703125) (-8.005029296875e-05, 3.072265625) (-4.421393585205078e-05, 3.07421875) (-1.3602242469787596e-05, 3.076171875) (1.078804588317871e-05, 3.078125) (2.889084243774414e-05, 3.080078125) (4.130105972290039e-05, 3.08203125) (4.885086441040039e-05, 3.083984375) (5.2287071228027345e-05, 3.0859375) (5.2251571655273436e-05, 3.087890625) (4.958998870849609e-05, 3.08984375) (4.5707263946533204e-05, 3.091796875) (4.2051784515380855e-05, 3.09375) (3.937958526611328e-05, 3.095703125) (3.78853530883789e-05, 3.09765625) (3.740975189208984e-05, 3.099609375) (3.775806045532227e-05, 3.1015625) (3.889335632324219e-05, 3.103515625) (4.0661117553710936e-05, 3.10546875) (4.253516006469726e-05, 3.107421875) (4.387250518798828e-05, 3.109375) (4.432494735717773e-05, 3.111328125) (4.3830612182617186e-05, 3.11328125) (4.253861618041992e-05, 3.115234375) (4.064899444580078e-05, 3.1171875) (3.8267356872558595e-05, 3.119140625) (3.552574157714843e-05, 3.12109375) (3.2705230712890625e-05, 3.123046875) (3.0200002670288085e-05, 3.125) (2.8324277877807616e-05, 3.126953125) (2.721762466430664e-05, 3.12890625) (2.6896171569824216e-05, 3.130859375) (2.7297143936157226e-05, 3.1328125) (2.832903480529785e-05, 3.134765625) (2.991150665283203e-05, 3.13671875) (3.1902769088745116e-05, 3.138671875) (3.407180404663086e-05, 3.140625) (3.624270248413086e-05, 3.142578125) (3.831977844238281e-05, 3.14453125) (4.0250003814697265e-05, 3.146484375) (4.2047679901123045e-05, 3.1484375) (4.373317718505859e-05, 3.150390625) (4.528616333007812e-05, 3.15234375) (4.670134735107422e-05, 3.154296875) (4.798204803466797e-05, 3.15625) (4.9096305847167964e-05, 3.158203125) (5.002139282226562e-05, 3.16015625) (5.073809814453125e-05, 3.162109375) (5.1212005615234376e-05, 3.1640625) (5.144425964355469e-05, 3.166015625) (5.146173858642578e-05, 3.16796875) (5.130314254760742e-05, 3.169921875) (5.1037868499755857e-05, 3.171875) (5.07289924621582e-05, 3.173828125) (5.04111328125e-05, 3.17578125) (5.01107063293457e-05, 3.177734375) (4.98402214050293e-05, 3.1796875) (4.959692764282226e-05, 3.181640625) (4.9380737304687496e-05, 3.18359375) (4.918167877197265e-05, 3.185546875) (4.897709655761718e-05, 3.1875) (4.8757736206054684e-05, 3.189453125) (4.852053070068359e-05, 3.19140625) (4.8263275146484374e-05, 3.193359375) (4.79919319152832e-05, 3.1953125) (4.770638275146484e-05, 3.197265625) (4.7398429870605464e-05, 3.19921875) (4.7060298919677734e-05, 3.201171875) (4.6679553985595704e-05, 3.203125) (4.624025726318359e-05, 3.205078125) (4.573091125488281e-05, 3.20703125) (4.5140926361083984e-05, 3.208984375) (4.446012878417969e-05, 3.2109375) (4.368423461914062e-05, 3.212890625) (4.281190490722656e-05, 3.21484375) (4.184491729736328e-05, 3.216796875) (4.07908706665039e-05, 3.21875) (3.9657081604003906e-05, 3.220703125) (3.844881439208984e-05, 3.22265625) (3.717208862304687e-05, 3.224609375) (3.5832252502441406e-05, 3.2265625) (3.443441009521484e-05, 3.228515625) (3.2984680175781246e-05, 3.23046875) (3.1487743377685545e-05, 3.232421875) (2.9947000503540036e-05, 3.234375) (2.8367671966552732e-05, 3.236328125) (2.6756042480468747e-05, 3.23828125) (2.511906051635742e-05, 3.240234375) (2.3465343475341796e-05, 3.2421875) (2.1803106307983397e-05, 3.244140625) (2.0140253067016602e-05, 3.24609375) (1.848602294921875e-05, 3.248046875) (1.684947967529297e-05, 3.25) (1.5238929748535155e-05, 3.251953125) (1.3662721633911133e-05, 3.25390625) (1.2127819061279296e-05, 3.255859375) (1.0638526916503906e-05, 3.2578125) (9.198375701904297e-06, 3.259765625) (7.809570312499999e-06, 3.26171875) (6.471878051757812e-06, 3.263671875) (5.185418605804443e-06, 3.265625) (3.950095176696777e-06, 3.267578125) (2.7640042304992675e-06, 3.26953125) (1.6258399486541748e-06, 3.271484375) (5.360775589942932e-07, 3.2734375) (-5.054949522018433e-07, 3.275390625) (-1.4990118741989135e-06, 3.27734375) (-2.4436264038085937e-06, 3.279296875) (-3.3426642417907713e-06, 3.28125) (-4.201722621917724e-06, 3.283203125) (-5.026075363159179e-06, 3.28515625) (-5.824980735778808e-06, 3.287109375) (-6.609256744384765e-06, 3.2890625) (-7.388396263122558e-06, 3.291015625) (-8.17331314086914e-06, 3.29296875) (-8.974284172058105e-06, 3.294921875) (-9.797441482543944e-06, 3.296875) (-1.0650555610656738e-05, 3.298828125) (-1.1539941787719726e-05, 3.30078125) (-1.2465094566345214e-05, 3.302734375) (-1.3431546211242676e-05, 3.3046875) (-1.4448272705078125e-05, 3.306640625) (-1.552627944946289e-05, 3.30859375) (-1.668897247314453e-05, 3.310546875) (-1.7954154968261718e-05, 3.3125) (-1.932539939880371e-05, 3.314453125) (-2.0807241439819335e-05, 3.31640625) (-2.240021324157715e-05, 3.318359375) (-2.4091854095458983e-05, 3.3203125) (-2.5872037887573242e-05, 3.322265625) (-2.7719635009765623e-05, 3.32421875) (-2.9586425781249997e-05, 3.326171875) (-3.143264007568359e-05, 3.328125) (-3.322066879272461e-05, 3.330078125) (-3.491136169433594e-05, 3.33203125) (-3.6500095367431637e-05, 3.333984375) (-3.798567199707031e-05, 3.3359375) (-3.9349769592285155e-05, 3.337890625) (-4.057477951049804e-05, 3.33984375) (-4.1627922058105466e-05, 3.341796875) (-4.248347854614258e-05, 3.34375) (-4.316650772094726e-05, 3.345703125) (-4.371147155761719e-05, 3.34765625) (-4.412833023071289e-05, 3.349609375) (-4.443312072753906e-05, 3.3515625) (-4.463154602050781e-05, 3.353515625) (-4.476308441162109e-05, 3.35546875) (-4.496740341186523e-05, 3.357421875) (-4.5392738342285154e-05, 3.359375) (-4.616468811035156e-05, 3.361328125) (-4.739905166625976e-05, 3.36328125) (-4.912514495849609e-05, 3.365234375) (-5.13776626586914e-05, 3.3671875) (-5.4276309967041014e-05, 3.369140625) (-5.7861541748046875e-05, 3.37109375) (-6.207309341430663e-05, 3.373046875) (-6.674112701416015e-05, 3.375) (-7.149371337890624e-05, 3.376953125) (-7.59831314086914e-05, 3.37890625) (-8.006771850585937e-05, 3.380859375) (-8.35909423828125e-05, 3.3828125) (-8.629916381835937e-05, 3.384765625) (-8.804462432861328e-05, 3.38671875) (-8.874768829345703e-05, 3.388671875) (-8.860581970214844e-05, 3.390625) (-8.823683166503906e-05, 3.392578125) (-8.810702514648437e-05, 3.39453125) (-8.837915802001953e-05, 3.396484375) (-8.910416412353515e-05, 3.3984375) (-9.0310791015625e-05, 3.400390625) (-9.195712280273437e-05, 3.40234375) (-9.370360565185547e-05, 3.404296875) (-9.468047332763671e-05, 3.40625) (-9.352178192138672e-05, 3.408203125) (-8.899472045898438e-05, 3.41015625) (-8.021633911132812e-05, 3.412109375) (-6.664633941650391e-05, 3.4140625) (-4.778144836425781e-05, 3.416015625) (-2.284315299987793e-05, 3.41796875) (8.402684211730957e-06, 3.419921875) (4.552762222290039e-05, 3.421875) (8.77425537109375e-05, 3.423828125) (0.00013296896362304688, 3.42578125) (0.00017847209167480468, 3.427734375) (0.0002225488586425781, 3.4296875) (0.0002630535888671875, 3.431640625) (0.00029959991455078125, 3.43359375) (0.00033471063232421875, 3.435546875) (0.00036750424194335933, 3.4375) (0.00039503512573242183, 3.439453125) (0.00041122921752929686, 3.44140625) (0.0004051533203125, 3.443359375) (0.0003712325439453125, 3.4453125) (0.0003094096984863281, 3.447265625) (0.00022347570800781248, 3.44921875) (0.0001229377670288086, 3.451171875) (1.597812271118164e-05, 3.453125) (-9.026852416992187e-05, 3.455078125) (-0.00018685821533203124, 3.45703125) (-0.0002667983703613281, 3.458984375) (-0.0003252522277832031, 3.4609375) (-0.00036169586181640626, 3.462890625) (-0.000381660888671875, 3.46484375) (-0.0003909449768066406, 3.466796875) (-0.000392917724609375, 3.46875) (-0.0003873923645019531, 3.470703125) (-0.0003707701416015625, 3.47265625) (-0.00034181201171875, 3.474609375) (-0.00030241671752929684, 3.4765625) (-0.0002561044921875, 3.478515625) (-0.0002078103332519531, 3.48046875) (-0.00016084375, 3.482421875) (-0.00011690843963623047, 3.484375) (-7.802648162841796e-05, 3.486328125) (-4.5725093841552733e-05, 3.48828125) (-2.06047306060791e-05, 3.490234375) (-2.873743772506714e-06, 3.4921875) (8.114969253540039e-06, 3.494140625) (1.3700393676757811e-05, 3.49609375) (1.499196434020996e-05, 3.498046875) (1.3227782249450683e-05, 3.5) (1.0232939720153808e-05, 3.501953125) (7.674615859985352e-06, 3.50390625) (6.460144519805908e-06, 3.505859375) (6.9764084815979e-06, 3.5078125) (9.099409103393554e-06, 3.509765625) (1.2370298385620117e-05, 3.51171875) (1.644621658325195e-05, 3.513671875) (2.0882007598876953e-05, 3.515625) (2.4854488372802732e-05, 3.517578125) (2.7505733489990234e-05, 3.51953125) (2.8451496124267576e-05, 3.521484375) (2.7746212005615234e-05, 3.5234375) (2.5662321090698242e-05, 3.525390625) (2.2575950622558593e-05, 3.52734375) (1.874553871154785e-05, 3.529296875) (1.436712646484375e-05, 3.53125) (9.826436042785645e-06, 3.533203125) (5.634646415710449e-06, 3.53515625) (2.1569705009460447e-06, 3.537109375) (-4.418756067752838e-07, 3.5390625) (-2.1422152519226073e-06, 3.541015625) (-3.0404770374298095e-06, 3.54296875) (-3.198399782180786e-06, 3.544921875) (-2.6145710945129393e-06, 3.546875) (-1.3671905994415283e-06, 3.548828125) (3.9063620567321777e-07, 3.55078125) (2.463338851928711e-06, 3.552734375) (4.624947547912598e-06, 3.5546875) (6.738913536071777e-06, 3.556640625) (8.763447761535644e-06, 3.55859375) (1.0671390533447266e-05, 3.560546875) (1.2436946868896484e-05, 3.5625) (1.4023042678833006e-05, 3.564453125) (1.5367315292358398e-05, 3.56640625) (1.6428272247314454e-05, 3.568359375) (1.7214761734008787e-05, 3.5703125) (1.7730712890625e-05, 3.572265625) (1.7972824096679687e-05, 3.57421875) (1.7936920166015624e-05, 3.576171875) (1.7605796813964844e-05, 3.578125) (1.6991710662841797e-05, 3.580078125) (1.6144502639770507e-05, 3.58203125) (1.5138596534729003e-05, 3.583984375) (1.4057765960693358e-05, 3.5859375) (1.2960780143737793e-05, 3.587890625) (1.1880045890808104e-05, 3.58984375) (1.0837386131286621e-05, 3.591796875) (9.850916862487793e-06, 3.59375) (8.935983657836914e-06, 3.595703125) (8.10562801361084e-06, 3.59765625) (7.358468532562256e-06, 3.599609375) (6.676676750183105e-06, 3.6015625) (6.0508375167846675e-06, 3.603515625) (5.479993820190429e-06, 3.60546875) (4.967106342315674e-06, 3.607421875) (4.520065784454346e-06, 3.609375) (4.138448715209961e-06, 3.611328125) (3.812091588973999e-06, 3.61328125) (3.5274415016174315e-06, 3.615234375) (3.270589828491211e-06, 3.6171875) (3.0294797420501706e-06, 3.619140625) (2.794608116149902e-06, 3.62109375) (2.557013750076294e-06, 3.623046875) (2.307650327682495e-06, 3.625) (2.0406420230865478e-06, 3.626953125) (1.7533552646636962e-06, 3.62890625) (1.4473863840103148e-06, 3.630859375) (1.1276856660842894e-06, 3.6328125) (7.970355749130249e-07, 3.634765625) (4.5607718825340267e-07, 3.63671875) (1.0444410145282745e-07, 3.638671875) (-2.5990796089172364e-07, 3.640625) (-6.391640901565551e-07, 3.642578125) (-1.0349903106689452e-06, 3.64453125) (-1.4500343799591064e-06, 3.646484375) (-1.8871314525604248e-06, 3.6484375) (-2.3471765518188474e-06, 3.650390625) (-2.830249786376953e-06, 3.65234375) (-3.3355782032012937e-06, 3.654296875) (-3.860577344894409e-06, 3.65625) (-4.4025850296020505e-06, 3.658203125) (-4.958903789520263e-06, 3.66015625) (-5.525685310363769e-06, 3.662109375) (-6.0998420715332024e-06, 3.6640625) (-6.680431365966796e-06, 3.666015625) (-7.2668642997741695e-06, 3.66796875) (-7.859580039978028e-06, 3.669921875) (-8.460699081420899e-06, 3.671875) (-9.071476936340332e-06, 3.673828125) (-9.693140029907225e-06, 3.67578125) (-1.0328290939331054e-05, 3.677734375) (-1.0978293418884276e-05, 3.6796875) (-1.1641985893249511e-05, 3.681640625) (-1.2317849159240722e-05, 3.68359375) (-1.3002752304077148e-05, 3.685546875) (-1.3691996574401855e-05, 3.6875) (-1.4383722305297851e-05, 3.689453125) (-1.5077359199523925e-05, 3.69140625) (-1.5773115158081055e-05, 3.693359375) (-1.6474889755249023e-05, 3.6953125) (-1.7187904357910156e-05, 3.697265625) (-1.7916763305664063e-05, 3.69921875) (-1.8667179107666015e-05, 3.701171875) (-1.9443885803222656e-05, 3.703125) (-2.0248777389526365e-05, 3.705078125) (-2.1085350036621093e-05, 3.70703125) (-2.195413589477539e-05, 3.708984375) (-2.2849782943725583e-05, 3.7109375) (-2.377127456665039e-05, 3.712890625) (-2.4720064163208008e-05, 3.71484375) (-2.5702865600585935e-05, 3.716796875) (-2.673892593383789e-05, 3.71875) (-2.7844255447387696e-05, 3.720703125) (-2.9023563385009763e-05, 3.72265625) (-3.02791633605957e-05, 3.724609375) (-3.1608547210693356e-05, 3.7265625) (-3.299890899658203e-05, 3.728515625) (-3.443967056274414e-05, 3.73046875) (-3.591001892089844e-05, 3.732421875) (-3.7365119934082026e-05, 3.734375) (-3.8764358520507814e-05, 3.736328125) (-4.006745529174804e-05, 3.73828125) (-4.123754119873047e-05, 3.740234375) (-4.227042770385742e-05, 3.7421875) (-4.31705322265625e-05, 3.744140625) (-4.3930202484130857e-05, 3.74609375) (-4.4536792755126954e-05, 3.748046875) (-4.4964408874511714e-05, 3.75) (-4.518927001953125e-05, 3.751953125) (-4.523305130004882e-05, 3.75390625) (-4.51409683227539e-05, 3.755859375) (-4.49371337890625e-05, 3.7578125) (-4.465331268310547e-05, 3.759765625) (-4.431498718261718e-05, 3.76171875) (-4.395962905883789e-05, 3.763671875) (-4.3713127136230464e-05, 3.765625) (-4.372542953491211e-05, 3.767578125) (-4.412483215332031e-05, 3.76953125) (-4.5032253265380854e-05, 3.771484375) (-4.650591659545898e-05, 3.7734375) (-4.8550720214843745e-05, 3.775390625) (-5.1235580444335933e-05, 3.77734375) (-5.466877746582031e-05, 3.779296875) (-5.8852905273437496e-05, 3.78125) (-6.370019912719726e-05, 3.783203125) (-6.896672058105468e-05, 3.78515625) (-7.425135803222656e-05, 3.787109375) (-7.927922058105468e-05, 3.7890625) (-8.391958618164062e-05, 3.791015625) (-8.792279815673828e-05, 3.79296875) (-9.091277313232422e-05, 3.794921875) (-9.264639282226562e-05, 3.796875) (-9.305192565917968e-05, 3.798828125) (-9.240182495117187e-05, 3.80078125) (-9.134286499023437e-05, 3.802734375) (-9.031272888183594e-05, 3.8046875) (-8.941859436035156e-05, 3.806640625) (-8.892410278320312e-05, 3.80859375) (-8.924995422363281e-05, 3.810546875) (-9.043051147460937e-05, 3.8125) (-9.210682678222656e-05, 3.814453125) (-9.3319091796875e-05, 3.81640625) (-9.250344848632812e-05, 3.818359375) (-8.851042938232422e-05, 3.8203125) (-8.056343078613281e-05, 3.822265625) (-6.740356445312499e-05, 3.82421875) (-4.749864196777343e-05, 3.826171875) (-1.981303787231445e-05, 3.828125) (1.541342258453369e-05, 3.830078125) (5.620476913452148e-05, 3.83203125) (0.00010006124877929688, 3.833984375) (0.00014563192749023437, 3.8359375) (0.00019370256042480468, 3.837890625) (0.0002451782836914062, 3.83984375) (0.00029801806640625, 3.841796875) (0.00034664465332031246, 3.84375) (0.0003816293640136719, 3.845703125) (0.0003940207824707031, 3.84765625) (0.00037969323730468747, 3.849609375) (0.00033966369628906246, 3.8515625) (0.0002805332336425781, 3.853515625) (0.00021021783447265624, 3.85546875) (0.00013436344909667969, 3.857421875) (5.6234149932861324e-05, 3.859375) (-2.3594482421874998e-05, 3.861328125) (-0.00010413890075683594, 3.86328125) (-0.00018194224548339843, 3.865234375) (-0.0002522361145019531, 3.8671875) (-0.0003099432373046875, 3.869140625) (-0.000351523681640625, 3.87109375) (-0.00037596725463867186, 3.873046875) (-0.00038385064697265625, 3.875) (-0.00037632696533203123, 3.876953125) (-0.00035504504394531246, 3.87890625) (-0.0003226734924316406, 3.880859375) (-0.00028237567138671876, 3.8828125) (-0.00023753704833984375, 3.884765625) (-0.00019178541564941406, 3.88671875) (-0.00014780038452148436, 3.888671875) (-0.0001076877212524414, 3.890625) (-7.377967834472655e-05, 3.892578125) (-4.739506912231445e-05, 3.89453125) (-2.8606685638427734e-05, 3.896484375) (-1.7063756942749023e-05, 3.8984375) (-1.1620815277099609e-05, 3.900390625) (-1.0473015785217285e-05, 3.90234375) (-1.2257736206054688e-05, 3.904296875) (-1.5392528533935545e-05, 3.90625) (-1.776089859008789e-05, 3.908203125) (-1.813210105895996e-05, 3.91015625) (-1.604606819152832e-05, 3.912109375) (-1.135596466064453e-05, 3.9140625) (-4.621471405029296e-06, 3.916015625) (3.316145896911621e-06, 3.91796875) (1.190148639678955e-05, 3.919921875) (2.0309608459472654e-05, 3.921875) (2.7464332580566406e-05, 3.923828125) (3.286069869995117e-05, 3.92578125) (3.6373649597167966e-05, 3.927734375) (3.813861846923828e-05, 3.9296875) (3.862488174438476e-05, 3.931640625) (3.8228607177734374e-05, 3.93359375) (3.718569564819336e-05, 3.935546875) (3.583202362060547e-05, 3.9375) (3.457441711425781e-05, 3.939453125) (3.3653202056884765e-05, 3.94140625) (3.321813201904297e-05, 3.943359375) (3.3316741943359375e-05, 3.9453125) (3.389513778686523e-05, 3.947265625) (3.4982921600341795e-05, 3.94921875) (3.66383056640625e-05, 3.951171875) (3.8874511718749996e-05, 3.953125) (4.164694976806641e-05, 3.955078125) (4.486334991455078e-05, 3.95703125) (4.838764953613281e-05, 3.958984375) (5.205717468261719e-05, 3.9609375) (5.576348495483398e-05, 3.962890625) (5.9421180725097653e-05, 3.96484375) (6.295838928222656e-05, 3.966796875) (6.633606719970703e-05, 3.96875) (6.952472686767578e-05, 3.970703125) (7.251022338867187e-05, 3.97265625) (7.52979278564453e-05, 3.974609375) (7.790916442871094e-05, 3.9765625) (8.033624267578124e-05, 3.978515625) (8.253889465332031e-05, 3.98046875) (8.447843933105469e-05, 3.982421875) (8.611422729492187e-05, 3.984375) (8.743202209472656e-05, 3.986328125) (8.845008850097656e-05, 3.98828125) (8.920630645751953e-05, 3.990234375) (8.975631713867188e-05, 3.9921875) (9.01501007080078e-05, 3.994140625) (9.043185424804687e-05, 3.99609375) (9.063702392578124e-05, 3.998046875) (9.078898620605469e-05, 4.0) (9.09020004272461e-05, 4.001953125) (9.097782135009766e-05, 4.00390625) (9.100535583496093e-05, 4.005859375) (9.096359252929687e-05, 4.0078125) (9.084273529052734e-05, 4.009765625) (9.064494323730468e-05, 4.01171875) (9.037596130371094e-05, 4.013671875) (9.004657745361327e-05, 4.015625) (8.966212463378906e-05, 4.017578125) (8.922245025634765e-05, 4.01953125) (8.872688293457031e-05, 4.021484375) (8.817285919189453e-05, 4.0234375) (8.75553970336914e-05, 4.025390625) (8.68675079345703e-05, 4.02734375) (8.610255432128906e-05, 4.029296875) (8.525521087646485e-05, 4.03125) (8.432436370849609e-05, 4.033203125) (8.331333923339843e-05, 4.03515625) (8.222899627685546e-05, 4.037109375) (8.1081787109375e-05, 4.0390625) (7.988134765625e-05, 4.041015625) (7.86365966796875e-05, 4.04296875) (7.735644531249999e-05, 4.044921875) (7.604875183105469e-05, 4.046875) (7.47210693359375e-05, 4.048828125) (7.338050842285155e-05, 4.05078125) (7.203211975097655e-05, 4.052734375) (7.067932891845702e-05, 4.0546875) (6.932662200927734e-05, 4.056640625) (6.797914123535156e-05, 4.05859375) (6.664224243164062e-05, 4.060546875) (6.532202911376952e-05, 4.0625) (6.402374267578125e-05, 4.064453125) (6.275203704833984e-05, 4.06640625) (6.151240539550782e-05, 4.068359375) (6.031070709228515e-05, 4.0703125) (5.915198898315429e-05, 4.072265625) (5.804054260253906e-05, 4.07421875) (5.697916030883789e-05, 4.076171875) (5.59688720703125e-05, 4.078125) (5.5009616851806635e-05, 4.080078125) (5.4100036621093745e-05, 4.08203125) (5.323651123046875e-05, 4.083984375) (5.24134521484375e-05, 4.0859375) (5.162464904785156e-05, 4.087890625) (5.0863456726074215e-05, 4.08984375) (5.012376022338867e-05, 4.091796875) (4.9400192260742186e-05, 4.09375) (4.868732452392578e-05, 4.095703125) (4.7979793548583983e-05, 4.09765625) (4.727308654785156e-05, 4.099609375) (4.656326293945312e-05, 4.1015625) (4.5845062255859375e-05, 4.103515625) (4.5111694335937496e-05, 4.10546875) (4.435369491577148e-05, 4.107421875) (4.3558807373046876e-05, 4.109375) (4.2715709686279294e-05, 4.111328125) (4.181447601318359e-05, 4.11328125) (4.08461799621582e-05, 4.115234375) (3.980403137207031e-05, 4.1171875) (3.8681251525878905e-05, 4.119140625) (3.747020721435547e-05, 4.12109375) (3.6168685913085936e-05, 4.123046875) (3.4780502319335936e-05, 4.125) (3.3305686950683593e-05, 4.126953125) (3.174089813232422e-05, 4.12890625) (3.0074291229248044e-05, 4.130859375) (2.8281747817993164e-05, 4.1328125) (2.6349296569824218e-05, 4.134765625) (2.4276618957519532e-05, 4.13671875) (2.2065473556518553e-05, 4.138671875) (1.9723400115966795e-05, 4.140625) (1.72603645324707e-05, 4.142578125) (1.4685905456542967e-05, 4.14453125) (1.2032294273376464e-05, 4.146484375) (9.355905532836914e-06, 4.1484375) (6.711317062377929e-06, 4.150390625) (4.151503562927246e-06, 4.15234375) (1.7045331001281738e-06, 4.154296875) (-6.367971897125244e-07, 4.15625) (-2.8643298149108884e-06, 4.158203125) (-4.9558277130126954e-06, 4.16015625) (-6.882748603820801e-06, 4.162109375) (-8.593135833740234e-06, 4.1640625) (-1.0074968338012696e-05, 4.166015625) (-1.136744499206543e-05, 4.16796875) (-1.2483670234680175e-05, 4.169921875) (-1.342042064666748e-05, 4.171875) (-1.4177465438842773e-05, 4.173828125) (-1.4741647720336913e-05, 4.17578125) (-1.5184502601623534e-05, 4.177734375) (-1.5681745529174803e-05, 4.1796875) (-1.6389488220214844e-05, 4.181640625) (-1.7445718765258788e-05, 4.18359375) (-1.8940992355346678e-05, 4.185546875) (-2.085861778259277e-05, 4.1875) (-2.324971580505371e-05, 4.189453125) (-2.625322341918945e-05, 4.19140625) (-2.9884164810180664e-05, 4.193359375) (-3.407918167114258e-05, 4.1953125) (-3.862319946289062e-05, 4.197265625) (-4.306805419921875e-05, 4.19921875) (-4.711061096191406e-05, 4.201171875) (-5.0686248779296875e-05, 4.203125) (-5.360588455200195e-05, 4.205078125) (-5.5595008850097655e-05, 4.20703125) (-5.6557922363281246e-05, 4.208984375) (-5.640398025512695e-05, 4.2109375) (-5.5381774902343746e-05, 4.212890625) (-5.428728485107422e-05, 4.21484375) (-5.364753723144531e-05, 4.216796875) (-5.3648754119873046e-05, 4.21875) (-5.4609619140625e-05, 4.220703125) (-5.6710144042968746e-05, 4.22265625) (-5.963597106933593e-05, 4.224609375) (-6.288926696777344e-05, 4.2265625) (-6.537753295898437e-05, 4.228515625) (-6.522139739990234e-05, 4.23046875) (-6.10571174621582e-05, 4.232421875) (-5.1805419921875e-05, 4.234375) (-3.599353408813477e-05, 4.236328125) (-1.251989459991455e-05, 4.23828125) (1.9075550079345704e-05, 4.240234375) (5.8111457824707026e-05, 4.2421875) (0.00010198423767089843, 4.244140625) (0.0001474652862548828, 4.24609375) (0.00019217141723632813, 4.248046875) (0.00023598516845703123, 4.25) (0.0002804479064941406, 4.251953125) (0.0003249607543945312, 4.25390625) (0.00036668740844726563, 4.255859375) (0.00039839141845703123, 4.2578125) (0.0004095268859863281, 4.259765625) (0.0003948407592773437, 4.26171875) (0.000353693359375, 4.263671875) (0.0002913477783203125, 4.265625) (0.00021972747802734375, 4.267578125) (0.00014711328125, 4.26953125) (7.758303070068359e-05, 4.271484375) (1.2551052093505859e-05, 4.2734375) (-5.078874588012695e-05, 4.275390625) (-0.00011325062561035156, 4.27734375) (-0.00017234309387207031, 4.279296875) (-0.00022519451904296875, 4.28125) (-0.0002687485961914062, 4.283203125) (-0.0003012442321777344, 4.28515625) (-0.0003227427368164062, 4.287109375) (-0.00033393414306640625, 4.2890625) (-0.0003352386169433594, 4.291015625) (-0.0003269063720703125, 4.29296875) (-0.00030952697753906246, 4.294921875) (-0.0002841297912597656, 4.296875) (-0.00025217965698242186, 4.298828125) (-0.00021549212646484374, 4.30078125) (-0.0001759736328125, 4.302734375) (-0.00013534933471679686, 4.3046875) (-9.548075103759765e-05, 4.306640625) (-5.8538166046142576e-05, 4.30859375) (-2.6433454513549802e-05, 4.310546875) (-3.8169288635253904e-07, 4.3125) (1.9066532135009766e-05, 4.314453125) (3.207363128662109e-05, 4.31640625) (3.9506828308105466e-05, 4.318359375) (4.239845275878906e-05, 4.3203125) (4.202556610107422e-05, 4.322265625) (4.019857788085937e-05, 4.32421875) (3.8480175018310545e-05, 4.326171875) (3.775831604003906e-05, 4.328125) (3.857305145263672e-05, 4.330078125) (4.099124526977539e-05, 4.33203125) (4.4621063232421874e-05, 4.333984375) (4.908366012573242e-05, 4.3359375) (5.377412796020508e-05, 4.337890625) (5.771632385253906e-05, 4.33984375) (6.0270866394042966e-05, 4.341796875) (6.126993942260743e-05, 4.34375) (6.073360443115234e-05, 4.345703125) (5.892797470092773e-05, 4.34765625) (5.619691467285156e-05, 4.349609375) (5.27449951171875e-05, 4.3515625) (4.8918552398681635e-05, 4.353515625) (4.5245758056640624e-05, 4.35546875) (4.210000991821289e-05, 4.357421875) (3.972817993164062e-05, 4.359375) (3.8257438659667966e-05, 4.361328125) (3.763732147216797e-05, 4.36328125) (3.781805419921875e-05, 4.365234375) (3.8799163818359376e-05, 4.3671875) (4.052125549316406e-05, 4.369140625) (4.286412048339843e-05, 4.37109375) (4.5686973571777344e-05, 4.373046875) (4.87879638671875e-05, 4.375) (5.1979537963867184e-05, 4.376953125) (5.5168869018554685e-05, 4.37890625) (5.8292808532714844e-05, 4.380859375) (6.130992889404296e-05, 4.3828125) (6.418852233886719e-05, 4.384765625) (6.687516784667968e-05, 4.38671875) (6.932109069824218e-05, 4.388671875) (7.149993896484374e-05, 4.390625) (7.340420532226562e-05, 4.392578125) (7.502659606933594e-05, 4.39453125) (7.635536193847655e-05, 4.396484375) (7.737225341796874e-05, 4.3984375) (7.806315612792968e-05, 4.400390625) (7.844268798828125e-05, 4.40234375) (7.855136108398437e-05, 4.404296875) (7.84573745727539e-05, 4.40625) (7.823677062988281e-05, 4.408203125) (7.793946075439453e-05, 4.41015625) (7.75969009399414e-05, 4.412109375) (7.723011779785156e-05, 4.4140625) (7.685317993164062e-05, 4.416015625) (7.647970581054687e-05, 4.41796875) (7.61180419921875e-05, 4.419921875) (7.576187896728515e-05, 4.421875) (7.539427185058594e-05, 4.423828125) (7.50057373046875e-05, 4.42578125) (7.459420013427734e-05, 4.427734375) (7.416261291503906e-05, 4.4296875) (7.371753692626953e-05, 4.431640625) (7.325765228271484e-05, 4.43359375) (7.277471923828124e-05, 4.435546875) (7.225729370117187e-05, 4.4375) (7.169284057617188e-05, 4.439453125) (7.107223510742187e-05, 4.44140625) (7.038927459716797e-05, 4.443359375) (6.963877868652344e-05, 4.4453125) (6.881703186035156e-05, 4.447265625) (6.79231948852539e-05, 4.44921875) (6.695944213867187e-05, 4.451171875) (6.593262481689453e-05, 4.453125) (6.485298156738282e-05, 4.455078125) (6.372874069213867e-05, 4.45703125) (6.256668853759765e-05, 4.458984375) (6.137274169921875e-05, 4.4609375) (6.015150833129883e-05, 4.462890625) (5.890822601318359e-05, 4.46484375) (5.764877700805664e-05, 4.466796875) (5.63779296875e-05, 4.46875) (5.509956359863281e-05, 4.470703125) (5.381795501708984e-05, 4.47265625) (5.25370864868164e-05, 4.474609375) (5.12610855102539e-05, 4.4765625) (4.999461364746093e-05, 4.478515625) (4.8741748809814454e-05, 4.48046875) (4.750634002685547e-05, 4.482421875) (4.6292266845703123e-05, 4.484375) (4.510281372070312e-05, 4.486328125) (4.3940708160400386e-05, 4.48828125) (4.280836486816406e-05, 4.490234375) (4.170782852172851e-05, 4.4921875) (4.064081573486328e-05, 4.494140625) (3.960822296142578e-05, 4.49609375) (3.860933303833008e-05, 4.498046875) (3.764210510253906e-05, 4.5) (3.67038345336914e-05, 4.501953125) (3.5791339874267575e-05, 4.50390625) (3.490087890625e-05, 4.505859375) (3.4027099609375e-05, 4.5078125) (3.316229248046875e-05, 4.509765625) (3.229838943481445e-05, 4.51171875) (3.1428129196166994e-05, 4.513671875) (3.054488754272461e-05, 4.515625) (2.9642208099365233e-05, 4.517578125) (2.8711755752563477e-05, 4.51953125) (2.774361228942871e-05, 4.521484375) (2.672829246520996e-05, 4.5234375) (2.5658145904541013e-05, 4.525390625) (2.452547264099121e-05, 4.52734375) (2.332017707824707e-05, 4.529296875) (2.20306282043457e-05, 4.53125) (2.064417266845703e-05, 4.533203125) (1.915205383300781e-05, 4.53515625) (1.75516242980957e-05, 4.537109375) (1.5843134880065918e-05, 4.5390625) (1.4027923583984375e-05, 4.541015625) (1.210733127593994e-05, 4.54296875) (1.008336067199707e-05, 4.544921875) (7.958679676055908e-06, 4.546875) (5.740058898925781e-06, 4.548828125) (3.4336853027343747e-06, 4.55078125) (1.0363898277282715e-06, 4.552734375) (-1.4609152078628539e-06, 4.5546875) (-4.075477600097656e-06, 4.556640625) (-6.822370529174804e-06, 4.55859375) (-9.698638916015625e-06, 4.560546875) (-1.2686002731323241e-05, 4.5625) (-1.575862121582031e-05, 4.564453125) (-1.889483070373535e-05, 4.56640625) (-2.20753173828125e-05, 4.568359375) (-2.5278594970703124e-05, 4.5703125) (-2.8470615386962888e-05, 4.572265625) (-3.161104583740234e-05, 4.57421875) (-3.467837905883789e-05, 4.576171875) (-3.7665863037109374e-05, 4.578125) (-4.0585174560546877e-05, 4.580078125) (-4.343955230712891e-05, 4.58203125) (-4.619128799438476e-05, 4.583984375) (-4.878275299072265e-05, 4.5859375) (-5.114032745361328e-05, 4.587890625) (-5.319727325439453e-05, 4.58984375) (-5.4926506042480464e-05, 4.591796875) (-5.633786392211914e-05, 4.59375) (-5.745298385620117e-05, 4.595703125) (-5.8284294128417964e-05, 4.59765625) (-5.8860004425048824e-05, 4.599609375) (-5.9226573944091796e-05, 4.6015625) (-5.947559356689453e-05, 4.603515625) (-5.9728576660156246e-05, 4.60546875) (-6.0045776367187496e-05, 4.607421875) (-6.042926788330078e-05, 4.609375) (-6.0825477600097655e-05, 4.611328125) (-6.120597076416016e-05, 4.61328125) (-6.165473937988282e-05, 4.615234375) (-6.223721313476562e-05, 4.6171875) (-6.29484748840332e-05, 4.619140625) (-6.370882034301758e-05, 4.62109375) (-6.433971405029297e-05, 4.623046875) (-6.46298599243164e-05, 4.625) (-6.442631530761718e-05, 4.626953125) (-6.361071395874023e-05, 4.62890625) (-6.194552993774414e-05, 4.630859375) (-5.935986328125e-05, 4.6328125) (-5.6014335632324216e-05, 4.634765625) (-5.210922241210937e-05, 4.63671875) (-4.805762100219726e-05, 4.638671875) (-4.443947982788086e-05, 4.640625) (-4.184693908691406e-05, 4.642578125) (-4.0705081939697266e-05, 4.64453125) (-4.128426361083984e-05, 4.646484375) (-4.2691337585449214e-05, 4.6484375) (-4.2841590881347654e-05, 4.650390625) (-4.007314300537109e-05, 4.65234375) (-3.338554763793945e-05, 4.654296875) (-2.4114168167114257e-05, 4.65625) (-1.487646198272705e-05, 4.658203125) (-6.519100666046143e-06, 4.66015625) (2.4044022560119626e-06, 4.662109375) (1.7582237243652345e-05, 4.6640625) (4.5312248229980464e-05, 4.666015625) (8.853256225585937e-05, 4.66796875) (0.00014678936767578124, 4.669921875) (0.0002128181915283203, 4.671875) (0.00027603546142578126, 4.673828125) (0.00032649877929687496, 4.67578125) (0.00035423486328124996, 4.677734375) (0.0003542171630859375, 4.6796875) (0.0003264385986328125, 4.681640625) (0.0002737496643066406, 4.68359375) (0.0002024893798828125, 4.685546875) (0.00011859329223632812, 4.6875) (2.758161735534668e-05, 4.689453125) (-6.48002471923828e-05, 4.69140625) (-0.00015212130737304687, 4.693359375) (-0.00022558575439453124, 4.6953125) (-0.0002791988525390625, 4.697265625) (-0.00031096435546875, 4.69921875) (-0.00032372296142578125, 4.701171875) (-0.0003257837829589844, 4.703125) (-0.00032314846801757813, 4.705078125) (-0.0003179370727539062, 4.70703125) (-0.00030926239013671876, 4.708984375) (-0.0002935931701660156, 4.7109375) (-0.00026994171142578124, 4.712890625) (-0.00024032189941406248, 4.71484375) (-0.0002076716613769531, 4.716796875) (-0.00017504798889160156, 4.71875) (-0.0001437628173828125, 4.720703125) (-0.00011414422607421875, 4.72265625) (-8.683537292480469e-05, 4.724609375) (-6.238301849365234e-05, 4.7265625) (-4.158026885986328e-05, 4.728515625) (-2.4861087799072264e-05, 4.73046875) (-1.1857101440429687e-05, 4.732421875) (-2.2180371284484864e-06, 4.734375) (4.3413667678833e-06, 4.736328125) (8.4287052154541e-06, 4.73828125) (1.0864786148071288e-05, 4.740234375) (1.2381462097167968e-05, 4.7421875) (1.3738711357116698e-05, 4.744140625) (1.539609909057617e-05, 4.74609375) (1.7375059127807616e-05, 4.748046875) (1.96728515625e-05, 4.75) (2.2226369857788083e-05, 4.751953125) (2.4707256317138672e-05, 4.75390625) (2.6632949829101562e-05, 4.755859375) (2.770899200439453e-05, 4.7578125) (2.778641891479492e-05, 4.759765625) (2.6860145568847656e-05, 4.76171875) (2.512326622009277e-05, 4.763671875) (2.273046112060547e-05, 4.765625) (1.980305480957031e-05, 4.767578125) (1.6634082794189453e-05, 4.76953125) (1.3624694824218749e-05, 4.771484375) (1.1089975357055664e-05, 4.7734375) (9.282859802246094e-06, 4.775390625) (8.3248872756958e-06, 4.77734375) (8.182929039001465e-06, 4.779296875) (8.843109130859375e-06, 4.78125) (1.0297473907470703e-05, 4.783203125) (1.2455402374267577e-05, 4.78515625) (1.5185071945190429e-05, 4.787109375) (1.8305015563964842e-05, 4.7890625) (2.1577869415283202e-05, 4.791015625) (2.48548583984375e-05, 4.79296875) (2.807224655151367e-05, 4.794921875) (3.1179893493652344e-05, 4.796875) (3.4162986755371094e-05, 4.798828125) (3.6990722656249996e-05, 4.80078125) (3.960575103759766e-05, 4.802734375) (4.197856521606445e-05, 4.8046875) (4.4097221374511714e-05, 4.806640625) (4.594520568847656e-05, 4.80859375) (4.751309585571289e-05, 4.810546875) (4.878298950195312e-05, 4.8125) (4.972792816162109e-05, 4.814453125) (5.0355731964111326e-05, 4.81640625) (5.0698944091796874e-05, 4.818359375) (5.081454086303711e-05, 4.8203125) (5.078942108154296e-05, 4.822265625) (5.068306732177734e-05, 4.82421875) (5.052730941772461e-05, 4.826171875) (5.0348945617675776e-05, 4.828125) (5.01595344543457e-05, 4.830078125) (4.996840667724609e-05, 4.83203125) (4.9788715362548825e-05, 4.833984375) (4.9616142272949214e-05, 4.8359375) (4.943192672729492e-05, 4.837890625) (4.922744750976562e-05, 4.83984375) (4.8999698638916016e-05, 4.841796875) (4.8750579833984374e-05, 4.84375) (4.849067687988281e-05, 4.845703125) (4.822130966186523e-05, 4.84765625) (4.793530654907226e-05, 4.849609375) (4.762384033203125e-05, 4.8515625) (4.7273742675781245e-05, 4.853515625) (4.687453460693359e-05, 4.85546875) (4.642045974731445e-05, 4.857421875) (4.590518951416015e-05, 4.859375) (4.532271957397461e-05, 4.861328125) (4.467029571533203e-05, 4.86328125) (4.394728088378906e-05, 4.865234375) (4.315781021118164e-05, 4.8671875) (4.231132125854492e-05, 4.869140625) (4.1414821624755855e-05, 4.87109375) (4.047240447998047e-05, 4.873046875) (3.9487480163574215e-05, 4.875) (3.8462211608886716e-05, 4.876953125) (3.7399459838867185e-05, 4.87890625) (3.630308532714844e-05, 4.880859375) (3.517555236816406e-05, 4.8828125) (3.401746368408203e-05, 4.884765625) (3.282996368408203e-05, 4.88671875) (3.1615222930908205e-05, 4.888671875) (3.0376123428344726e-05, 4.890625) (2.9116439819335937e-05, 4.892578125) (2.7839786529541013e-05, 4.89453125) (2.6549110412597653e-05, 4.896484375) (2.524737548828125e-05, 4.8984375) (2.393827438354492e-05, 4.900390625) (2.262580108642578e-05, 4.90234375) (2.131363487243652e-05, 4.904296875) (2.000506019592285e-05, 4.90625) (1.8702274322509764e-05, 4.908203125) (1.7406042098999023e-05, 4.91015625) (1.611636161804199e-05, 4.912109375) (1.4832383155822753e-05, 4.9140625) (1.3551279067993164e-05, 4.916015625) (1.2268609046936035e-05, 4.91796875) (1.0979344367980957e-05, 4.919921875) (9.677986145019531e-06, 4.921875) (8.359825134277344e-06, 4.923828125) (7.021405220031738e-06, 4.92578125) (5.659113883972168e-06, 4.927734375) (4.269007205963135e-06, 4.9296875) (2.8486504554748533e-06, 4.931640625) (1.3963333368301392e-06, 4.93359375) (-9.024608135223389e-08, 4.935546875) (-1.613976716995239e-06, 4.9375) (-3.1816492080688476e-06, 4.939453125) (-4.8031215667724605e-06, 4.94140625) (-6.4867844581604e-06, 4.943359375) (-8.239568710327148e-06, 4.9453125) (-1.0066974639892577e-05, 4.947265625) (-1.1971664428710936e-05, 4.94921875) (-1.3956677436828613e-05, 4.951171875) (-1.6026535034179686e-05, 4.953125) (-1.817888641357422e-05, 4.955078125) (-2.0406103134155273e-05, 4.95703125) (-2.270395278930664e-05, 4.958984375) (-2.5069673538208005e-05, 4.9609375) (-2.7511941909790037e-05, 4.962890625) (-3.0052303314208984e-05, 4.96484375) (-3.270301055908203e-05, 4.966796875) (-3.546435928344726e-05, 4.96875) (-3.8330257415771486e-05, 4.970703125) (-4.128620529174804e-05, 4.97265625) (-4.431626510620117e-05, 4.974609375) (-4.740628814697265e-05, 4.9765625) (-5.052028656005859e-05, 4.978515625) (-5.360134887695312e-05, 4.98046875) (-5.6594631195068354e-05, 4.982421875) (-5.944465637207031e-05, 4.984375) (-6.212569427490234e-05, 4.986328125) (-6.464688110351562e-05, 4.98828125) (-6.700367736816406e-05, 4.990234375) (-6.918185424804687e-05, 4.9921875) (-7.115390014648437e-05, 4.994140625) (-7.286824035644531e-05, 4.99609375) (-7.430587768554687e-05, 4.998046875) (-7.549530792236327e-05, 5.0) (-7.645536804199219e-05, 5.001953125) (-7.719022369384765e-05, 5.00390625) (-7.771609497070312e-05, 5.005859375) (-7.804023742675781e-05, 5.0078125) (-7.822634887695312e-05, 5.009765625) (-7.843243408203125e-05, 5.01171875) (-7.880539703369141e-05, 5.013671875) (-7.947120666503906e-05, 5.015625) (-8.051971435546875e-05, 5.017578125) (-8.196764373779297e-05, 5.01953125) (-8.383238220214844e-05, 5.021484375) (-8.618975067138672e-05, 5.0234375) (-8.912687683105468e-05, 5.025390625) (-9.263296508789062e-05, 5.02734375) (-9.657377624511719e-05, 5.029296875) (-0.0001006573486328125, 5.03125) (-0.0001045089340209961, 5.033203125) (-0.00010789080810546874, 5.03515625) (-0.00011063270568847656, 5.037109375) (-0.00011245707702636719, 5.0390625) (-0.000113032958984375, 5.041015625) (-0.00011218568420410156, 5.04296875) (-0.00010995135498046874, 5.044921875) (-0.00010670655822753905, 5.046875) (-0.00010318730163574218, 5.048828125) (-9.989437103271484e-05, 5.05078125) (-9.711288452148436e-05, 5.052734375) (-9.527834320068359e-05, 5.0546875) (-9.453544616699219e-05, 5.056640625) (-9.454598999023437e-05, 5.05859375) (-9.47278823852539e-05, 5.060546875) (-9.393374633789062e-05, 5.0625) (-9.049822998046875e-05, 5.064453125) (-8.312165069580078e-05, 5.06640625) (-7.063346862792969e-05, 5.068359375) (-5.163761138916015e-05, 5.0703125) (-2.5352188110351562e-05, 5.072265625) (8.374318122863769e-06, 5.07421875) (4.9079772949218745e-05, 5.076171875) (9.536036682128906e-05, 5.078125) (0.00014471530151367187, 5.080078125) (0.000194023193359375, 5.08203125) (0.00024090733337402343, 5.083984375) (0.0002827969360351562, 5.0859375) (0.0003180352783203125, 5.087890625) (0.0003468443908691406, 5.08984375) (0.000366201171875, 5.091796875) (0.0003716565246582031, 5.09375) (0.0003597546081542969, 5.095703125) (0.00032464843749999996, 5.09765625) (0.00026594451904296876, 5.099609375) (0.0001890791473388672, 5.1015625) (9.774076080322265e-05, 5.103515625) (4.747095108032226e-07, 5.10546875) (-9.406542205810547e-05, 5.107421875) (-0.00018196258544921873, 5.109375) (-0.00025574246215820314, 5.111328125) (-0.00031207400512695314, 5.11328125) (-0.00035329608154296873, 5.115234375) (-0.0003798372802734375, 5.1171875) (-0.00039466598510742184, 5.119140625) (-0.00039966864013671875, 5.12109375) (-0.00039220114135742187, 5.123046875) (-0.00037164129638671874, 5.125) (-0.00033935546875, 5.126953125) (-0.0002977438049316406, 5.12890625) (-0.00025128564453125, 5.130859375) (-0.00020383074951171875, 5.1328125) (-0.00015759521484374998, 5.134765625) (-0.00011447460937499999, 5.13671875) (-7.650889587402344e-05, 5.138671875) (-4.5485767364501954e-05, 5.140625) (-2.2216495513916014e-05, 5.142578125) (-6.654126167297363e-06, 5.14453125) (1.988196492195129e-06, 5.146484375) (5.016482353210449e-06, 5.1484375) (3.5228519439697265e-06, 5.150390625) (-1.3094279766082763e-06, 5.15234375) (-7.619935989379882e-06, 5.154296875) (-1.3574331283569336e-05, 5.15625) (-1.8120534896850584e-05, 5.158203125) (-2.0754846572875974e-05, 5.16015625) (-2.1480384826660156e-05, 5.162109375) (-2.066766357421875e-05, 5.1640625) (-1.8546852111816405e-05, 5.166015625) (-1.5407470703125e-05, 5.16796875) (-1.1994064331054687e-05, 5.169921875) (-9.131681442260743e-06, 5.171875) (-7.249467849731445e-06, 5.173828125) (-6.488089561462402e-06, 5.17578125) (-6.737429618835449e-06, 5.177734375) (-7.730731964111327e-06, 5.1796875) (-9.30393123626709e-06, 5.181640625) (-1.1288709640502929e-05, 5.18359375) (-1.3319628715515136e-05, 5.185546875) (-1.4927197456359863e-05, 5.1875) (-1.5772565841674803e-05, 5.189453125) (-1.5697134017944334e-05, 5.19140625) (-1.4687591552734374e-05, 5.193359375) (-1.2830327987670898e-05, 5.1953125) (-1.0213831901550292e-05, 5.197265625) (-6.920960903167724e-06, 5.19921875) (-3.107980489730835e-06, 5.201171875) (9.793976545333862e-07, 5.203125) (5.126678466796875e-06, 5.205078125) (9.202762603759766e-06, 5.20703125) (1.3140407562255859e-05, 5.208984375) (1.694165229797363e-05, 5.2109375) (2.0615653991699217e-05, 5.212890625) (2.413625335693359e-05, 5.21484375) (2.7482337951660155e-05, 5.216796875) (3.064153480529785e-05, 5.21875) (3.3587738037109375e-05, 5.220703125) (3.630374145507812e-05, 5.22265625) (3.8770572662353515e-05, 5.224609375) (4.095366287231445e-05, 5.2265625) (4.2843349456787105e-05, 5.228515625) (4.445621490478515e-05, 5.23046875) (4.5828117370605465e-05, 5.232421875) (4.7028312683105466e-05, 5.234375) (4.8122856140136715e-05, 5.236328125) (4.91484260559082e-05, 5.23828125) (5.013019180297851e-05, 5.240234375) (5.108047866821289e-05, 5.2421875) (5.1999267578124996e-05, 5.244140625) (5.288946914672851e-05, 5.24609375) (5.374525451660156e-05, 5.248046875) (5.454642486572266e-05, 5.25) (5.528023147583007e-05, 5.251953125) (5.594157028198242e-05, 5.25390625) (5.652922439575195e-05, 5.255859375) (5.7050472259521485e-05, 5.2578125) (5.750850677490234e-05, 5.259765625) (5.789826965332031e-05, 5.26171875) (5.8213047027587885e-05, 5.263671875) (5.8442359924316405e-05, 5.265625) (5.8574802398681636e-05, 5.267578125) (5.860324096679687e-05, 5.26953125) (5.852094268798828e-05, 5.271484375) (5.832110595703125e-05, 5.2734375) (5.800111007690429e-05, 5.275390625) (5.7560897827148434e-05, 5.27734375) (5.7004177093505853e-05, 5.279296875) (5.634075164794922e-05, 5.28125) (5.5580116271972654e-05, 5.283203125) (5.472928237915039e-05, 5.28515625) (5.379550552368164e-05, 5.287109375) (5.2785133361816406e-05, 5.2890625) (5.170439910888672e-05, 5.291015625) (5.056082153320312e-05, 5.29296875) (4.93603401184082e-05, 5.294921875) (4.810665893554687e-05, 5.296875) (4.680455017089844e-05, 5.298828125) (4.5459907531738276e-05, 5.30078125) (4.4079338073730465e-05, 5.302734375) (4.267095184326172e-05, 5.3046875) (4.124234390258789e-05, 5.306640625) (3.980030059814453e-05, 5.30859375) (3.835257339477539e-05, 5.310546875) (3.690724182128906e-05, 5.3125) (3.547214889526367e-05, 5.314453125) (3.405498504638672e-05, 5.31640625) (3.266173553466797e-05, 5.318359375) (3.1296321868896485e-05, 5.3203125) (2.99622802734375e-05, 5.322265625) (2.866253662109375e-05, 5.32421875) (2.739812088012695e-05, 5.326171875) (2.616926574707031e-05, 5.328125) (2.4974561691284178e-05, 5.330078125) (2.381016159057617e-05, 5.33203125) (2.267325210571289e-05, 5.333984375) (2.1562969207763672e-05, 5.3359375) (2.047772979736328e-05, 5.337890625) (1.9415672302246094e-05, 5.33984375) (1.8375383377075196e-05, 5.341796875) (1.7352746963500977e-05, 5.34375) (1.6343240737915038e-05, 5.345703125) (1.5344615936279296e-05, 5.34765625) (1.4351104736328124e-05, 5.349609375) (1.3352840423583984e-05, 5.3515625) (1.2339716911315918e-05, 5.353515625) (1.1299261093139648e-05, 5.35546875) (1.0220778465270995e-05, 5.357421875) (9.101035118103027e-06, 5.359375) (7.938252449035644e-06, 5.361328125) (6.730523109436035e-06, 5.36328125) (5.478696346282959e-06, 5.365234375) (4.182032585144043e-06, 5.3671875) (2.842161178588867e-06, 5.369140625) (1.467206358909607e-06, 5.37109375) (5.6175947189331054e-08, 5.373046875) (-1.4016461372375487e-06, 5.375) (-2.9212942123413086e-06, 5.376953125) (-4.529500484466553e-06, 5.37890625) (-6.24305248260498e-06, 5.380859375) (-8.05509853363037e-06, 5.3828125) (-9.956052780151366e-06, 5.384765625) (-1.1929092407226562e-05, 5.38671875) (-1.3943076133728027e-05, 5.388671875) (-1.5975467681884765e-05, 5.390625) (-1.7998764038085938e-05, 5.392578125) (-1.9966474533081054e-05, 5.39453125) (-2.185103225708008e-05, 5.396484375) (-2.364399528503418e-05, 5.3984375) (-2.5343626022338864e-05, 5.400390625) (-2.697706413269043e-05, 5.40234375) (-2.8558841705322266e-05, 5.404296875) (-3.005962562561035e-05, 5.40625) (-3.143949890136719e-05, 5.408203125) (-3.263718032836914e-05, 5.41015625) (-3.3597354888916015e-05, 5.412109375) (-3.431600952148437e-05, 5.4140625) (-3.4796363830566406e-05, 5.416015625) (-3.504831695556641e-05, 5.41796875) (-3.512107467651367e-05, 5.419921875) (-3.506145858764648e-05, 5.421875) (-3.493875885009765e-05, 5.423828125) (-3.488324737548828e-05, 5.42578125) (-3.4995113372802736e-05, 5.427734375) (-3.5325187683105465e-05, 5.4296875) (-3.590669631958008e-05, 5.431640625) (-3.668289184570312e-05, 5.43359375) (-3.7606796264648434e-05, 5.435546875) (-3.873771286010742e-05, 5.4375) (-4.006987762451172e-05, 5.439453125) (-4.155425262451172e-05, 5.44140625) (-4.3081977844238276e-05, 5.443359375) (-4.437135314941406e-05, 5.4453125) (-4.514932250976562e-05, 5.447265625) (-4.5240653991699216e-05, 5.44921875) (-4.443335723876953e-05, 5.451171875) (-4.2513183593749996e-05, 5.453125) (-3.9487289428710934e-05, 5.455078125) (-3.546525192260742e-05, 5.45703125) (-3.076653861999512e-05, 5.458984375) (-2.6055614471435547e-05, 5.4609375) (-2.1965402603149414e-05, 5.462890625) (-1.9074626922607422e-05, 5.46484375) (-1.778739929199219e-05, 5.466796875) (-1.8132373809814454e-05, 5.46875) (-1.9630287170410156e-05, 5.470703125) (-2.1354846954345703e-05, 5.47265625) (-2.213313293457031e-05, 5.474609375) (-2.0582626342773437e-05, 5.4765625) (-1.515629768371582e-05, 5.478515625) (-4.1858229637145995e-06, 5.48046875) (1.3643240928649902e-05, 5.482421875) (3.911079406738281e-05, 5.484375) (7.140594482421875e-05, 5.486328125) (0.00010816259765625, 5.48828125) (0.00014729518127441405, 5.490234375) (0.00018715232849121093, 5.4921875) (0.00022787652587890624, 5.494140625) (0.00027026214599609375, 5.49609375) (0.0003119450988769531, 5.498046875) (0.0003473581848144531, 5.5) (0.00036740866088867186, 5.501953125) (0.00036358441162109373, 5.50390625) (0.0003335914916992187, 5.505859375) (0.000280580810546875, 5.5078125) (0.00021262088012695312, 5.509765625) (0.0001366009521484375, 5.51171875) (5.4568107604980465e-05, 5.513671875) (-3.185988044738769e-05, 5.515625) (-0.00012034368896484375, 5.517578125) (-0.00020325613403320312, 5.51953125) (-0.0002693201904296875, 5.521484375) (-0.0003119962768554687, 5.5234375) (-0.0003310242919921875, 5.525390625) (-0.00033296725463867184, 5.52734375) (-0.0003267142639160156, 5.529296875) (-0.00031668197631835935, 5.53125) (-0.00030244378662109373, 5.533203125) (-0.0002813014221191406, 5.53515625) (-0.00025192970275878906, 5.537109375) (-0.00021589779663085937, 5.5390625) (-0.00017655619812011718, 5.541015625) (-0.00013743255615234374, 5.54296875) (-0.0001004832763671875, 5.544921875) (-6.693502044677734e-05, 5.546875) (-3.833243179321289e-05, 5.548828125) (-1.541333866119385e-05, 5.55078125) (1.6469836235046386e-06, 5.552734375) (1.3004498481750487e-05, 5.5546875) (1.9534360885620117e-05, 5.556640625) (2.212514877319336e-05, 5.55859375) (2.139405822753906e-05, 5.560546875) (1.847888946533203e-05, 5.5625) (1.5033402442932129e-05, 5.564453125) (1.2089456558227538e-05, 5.56640625) (1.0151308059692383e-05, 5.568359375) (9.430555343627929e-06, 5.5703125) (9.647409439086914e-06, 5.572265625) (1.0540925025939941e-05, 5.57421875) (1.199952507019043e-05, 5.576171875) (1.3520010948181151e-05, 5.578125) (1.4285676956176756e-05, 5.580078125) (1.3915054321289062e-05, 5.58203125) (1.2355814933776856e-05, 5.583984375) (9.688224792480468e-06, 5.5859375) (6.237834930419922e-06, 5.587890625) (2.2284104824066163e-06, 5.58984375) (-2.226483345031738e-06, 5.591796875) (-6.793785095214843e-06, 5.59375) (-1.098777961730957e-05, 5.595703125) (-1.4458233833312987e-05, 5.59765625) (-1.7000076293945313e-05, 5.599609375) (-1.854352569580078e-05, 5.6015625) (-1.9169044494628904e-05, 5.603515625) (-1.892154312133789e-05, 5.60546875) (-1.7808198928833007e-05, 5.607421875) (-1.592074394226074e-05, 5.609375) (-1.3416790962219238e-05, 5.611328125) (-1.0503585815429687e-05, 5.61328125) (-7.394886493682861e-06, 5.615234375) (-4.214828968048095e-06, 5.6171875) (-1.0088748931884766e-06, 5.619140625) (2.1961808204650877e-06, 5.62109375) (5.3719487190246575e-06, 5.623046875) (8.472570419311523e-06, 5.625) (1.1437562942504882e-05, 5.626953125) (1.4226860046386717e-05, 5.62890625) (1.682803726196289e-05, 5.630859375) (1.9225650787353514e-05, 5.6328125) (2.1400646209716795e-05, 5.634765625) (2.3327957153320312e-05, 5.63671875) (2.4982398986816404e-05, 5.638671875) (2.636897277832031e-05, 5.640625) (2.752190399169922e-05, 5.642578125) (2.850277328491211e-05, 5.64453125) (2.9381237030029297e-05, 5.646484375) (3.0200305938720703e-05, 5.6484375) (3.0981569290161135e-05, 5.650390625) (3.173672866821289e-05, 5.65234375) (3.247074890136719e-05, 5.654296875) (3.318815231323242e-05, 5.65625) (3.389135360717773e-05, 5.658203125) (3.4567619323730466e-05, 5.66015625) (3.5193668365478515e-05, 5.662109375) (3.5755432128906245e-05, 5.6640625) (3.624604797363281e-05, 5.666015625) (3.666474151611328e-05, 5.66796875) (3.701542282104492e-05, 5.669921875) (3.72939453125e-05, 5.671875) (3.7489086151123046e-05, 5.673828125) (3.7587375640869136e-05, 5.67578125) (3.7574508666992184e-05, 5.677734375) (3.743952178955078e-05, 5.6796875) (3.717495727539062e-05, 5.681640625) (3.677434158325195e-05, 5.68359375) (3.623303604125976e-05, 5.685546875) (3.555054092407226e-05, 5.6875) (3.473047637939453e-05, 5.689453125) (3.37817268371582e-05, 5.69140625) (3.2716979980468746e-05, 5.693359375) (3.1547531127929684e-05, 5.6953125) (3.028324508666992e-05, 5.697265625) (2.893372344970703e-05, 5.69921875) (2.7507892608642578e-05, 5.701171875) (2.6014556884765625e-05, 5.703125) (2.4462554931640625e-05, 5.705078125) (2.2859933853149414e-05, 5.70703125) (2.121408462524414e-05, 5.708984375) (1.95338020324707e-05, 5.7109375) (1.782961845397949e-05, 5.712890625) (1.6112340927124023e-05, 5.71484375) (1.4393300056457519e-05, 5.716796875) (1.268437099456787e-05, 5.71875) (1.09968204498291e-05, 5.720703125) (9.341860771179199e-06, 5.72265625) (7.73102569580078e-06, 5.724609375) (6.174093723297119e-06, 5.7265625) (4.678081512451171e-06, 5.728515625) (3.2489399909973143e-06, 5.73046875) (1.8907339572906494e-06, 5.732421875) (6.052197217941284e-07, 5.734375) (-6.055719852447509e-07, 5.736328125) (-1.7406744956970213e-06, 5.73828125) (-2.801197290420532e-06, 5.740234375) (-3.7875742912292477e-06, 5.7421875) (-4.69911527633667e-06, 5.744140625) (-5.5358180999755856e-06, 5.74609375) (-6.296922206878662e-06, 5.748046875) (-6.981245994567871e-06, 5.75) (-7.591447830200195e-06, 5.751953125) (-8.132075309753418e-06, 5.75390625) (-8.608974456787108e-06, 5.755859375) (-9.032066345214844e-06, 5.7578125) (-9.41224193572998e-06, 5.759765625) (-9.759963989257813e-06, 5.76171875) (-1.0087388038635253e-05, 5.763671875) (-1.0405668258666991e-05, 5.765625) (-1.072309970855713e-05, 5.767578125) (-1.1049470901489257e-05, 5.76953125) (-1.139124298095703e-05, 5.771484375) (-1.1749173164367676e-05, 5.7734375) (-1.2129029273986816e-05, 5.775390625) (-1.253886318206787e-05, 5.77734375) (-1.2991332054138183e-05, 5.779296875) (-1.3510704040527344e-05, 5.78125) (-1.411672019958496e-05, 5.783203125) (-1.4817081451416015e-05, 5.78515625) (-1.561687469482422e-05, 5.787109375) (-1.6516387939453123e-05, 5.7890625) (-1.7505321502685547e-05, 5.791015625) (-1.8575254440307617e-05, 5.79296875) (-1.970678901672363e-05, 5.794921875) (-2.085578727722168e-05, 5.796875) (-2.1982589721679686e-05, 5.798828125) (-2.3047592163085936e-05, 5.80078125) (-2.401424789428711e-05, 5.802734375) (-2.4878000259399413e-05, 5.8046875) (-2.5640655517578124e-05, 5.806640625) (-2.6289901733398436e-05, 5.80859375) (-2.680775451660156e-05, 5.810546875) (-2.7163352966308593e-05, 5.8125) (-2.7328094482421873e-05, 5.814453125) (-2.7320638656616208e-05, 5.81640625) (-2.7183551788330075e-05, 5.818359375) (-2.693567657470703e-05, 5.8203125) (-2.6604267120361327e-05, 5.822265625) (-2.62098331451416e-05, 5.82421875) (-2.5783615112304686e-05, 5.826171875) (-2.5450139999389647e-05, 5.828125) (-2.5360820770263672e-05, 5.830078125) (-2.564369964599609e-05, 5.83203125) (-2.6420814514160154e-05, 5.833984375) (-2.7749523162841795e-05, 5.8359375) (-2.9626998901367187e-05, 5.837890625) (-3.212147521972656e-05, 5.83984375) (-3.534909439086914e-05, 5.841796875) (-3.9309162139892576e-05, 5.84375) (-4.390894317626953e-05, 5.845703125) (-4.889422225952148e-05, 5.84765625) (-5.383692169189453e-05, 5.849609375) (-5.845951461791992e-05, 5.8515625) (-6.266468811035156e-05, 5.853515625) (-6.623636627197265e-05, 5.85546875) (-6.882447814941406e-05, 5.857421875) (-7.021279907226562e-05, 5.859375) (-7.031755065917968e-05, 5.861328125) (-6.939572143554688e-05, 5.86328125) (-6.813419342041015e-05, 5.865234375) (-6.6966552734375e-05, 5.8671875) (-6.591506195068359e-05, 5.869140625) (-6.511917877197266e-05, 5.87109375) (-6.485518646240234e-05, 5.873046875) (-6.504195404052734e-05, 5.875) (-6.535200500488281e-05, 5.876953125) (-6.49356689453125e-05, 5.87890625) (-6.218598175048828e-05, 5.880859375) (-5.5911605834960934e-05, 5.8828125) (-4.5566261291503906e-05, 5.884765625) (-3.0221595764160154e-05, 5.88671875) (-8.647796630859375e-06, 5.888671875) (1.9905662536621092e-05, 5.890625) (5.586354064941406e-05, 5.892578125) (9.790956878662109e-05, 5.89453125) (0.00014276535034179688, 5.896484375) (0.00018808403015136717, 5.8984375) (0.00023281443786621092, 5.900390625) (0.000277635009765625, 5.90234375) (0.0003237693176269531, 5.904296875) (0.000369119873046875, 5.90625) (0.00040776782226562496, 5.908203125) (0.00043008810424804685, 5.91015625) (0.00042715548706054687, 5.912109375) (0.0003961016845703125, 5.9140625) (0.00033913616943359376, 5.916015625) (0.00026424423217773435, 5.91796875) (0.00018017727661132811, 5.919921875) (9.067918395996093e-05, 5.921875) (-4.895362854003906e-07, 5.923828125) (-8.989030456542969e-05, 5.92578125) (-0.00017351623535156248, 5.927734375) (-0.00024305014038085936, 5.9296875) (-0.0002939246826171875, 5.931640625) (-0.00032706112670898436, 5.93359375) (-0.0003448250122070312, 5.935546875) (-0.0003527869873046875, 5.9375) (-0.00035393231201171876, 5.939453125) (-0.00034651849365234375, 5.94140625) (-0.000330193603515625, 5.943359375) (-0.00030518429565429685, 5.9453125) (-0.00027330944824218746, 5.947265625) (-0.00023887870788574217, 5.94921875) (-0.00020425152587890625, 5.951171875) (-0.00017012007141113282, 5.953125) (-0.00013713043212890624, 5.955078125) (-0.0001055906753540039, 5.95703125) (-7.62840347290039e-05, 5.958984375) (-5.042152786254883e-05, 5.9609375) (-2.8272920608520507e-05, 5.962890625) (-9.399147033691406e-06, 5.96484375) (6.209240436553955e-06, 5.966796875) (1.8573131561279296e-05, 5.96875) (2.7872291564941404e-05, 5.970703125) (3.443850708007812e-05, 5.97265625) (3.931555557250976e-05, 5.974609375) (4.358271789550781e-05, 5.9765625) (4.760630416870117e-05, 5.978515625) (5.1423152923583985e-05, 5.98046875) (5.508823776245117e-05, 5.982421875) (5.856111907958984e-05, 5.984375) (6.185884857177734e-05, 5.986328125) (6.482662963867187e-05, 5.98828125) (6.677695465087891e-05, 5.990234375) (6.720034790039062e-05, 5.9921875) (6.606668853759765e-05, 5.994140625) (6.352304840087891e-05, 5.99609375) (5.9916320800781244e-05, 5.998046875) (5.558111190795898e-05, 6.0) (5.0685024261474604e-05, 6.001953125) (4.551491546630859e-05, 6.00390625) (4.057426452636719e-05, 6.005859375) (3.628814697265625e-05, 6.0078125) (3.291182708740234e-05, 6.009765625) (3.057266998291015e-05, 6.01171875) (2.9222581863403318e-05, 6.013671875) (2.87952880859375e-05, 6.015625) (2.9282863616943358e-05, 6.017578125) (3.062824630737304e-05, 6.01953125) (3.2724246978759764e-05, 6.021484375) (3.5418083190917966e-05, 6.0234375) (3.85251235961914e-05, 6.025390625) (4.187754440307617e-05, 6.02734375) (4.533534240722656e-05, 6.029296875) (4.880319595336914e-05, 6.03125) (5.220540237426758e-05, 6.033203125) (5.546608352661133e-05, 6.03515625) (5.850834655761719e-05, 6.037109375) (6.125791549682618e-05, 6.0390625) (6.366961669921875e-05, 6.041015625) (6.572476196289062e-05, 6.04296875) (6.742525482177734e-05, 6.044921875) (6.877262878417968e-05, 6.046875) (6.976470947265625e-05, 6.048828125) (7.040564727783203e-05, 6.05078125) (7.070930480957031e-05, 6.052734375) (7.072181701660157e-05, 6.0546875) (7.050074005126953e-05, 6.056640625) (7.010643005371094e-05, 6.05859375) (6.960519409179687e-05, 6.060546875) (6.903947448730469e-05, 6.0625) (6.843714904785156e-05, 6.064453125) (6.782391357421875e-05, 6.06640625) (6.721703338623047e-05, 6.068359375) (6.662748718261719e-05, 6.0703125) (6.606057739257813e-05, 6.072265625) (6.5509765625e-05, 6.07421875) (6.495922088623046e-05, 6.076171875) (6.440177917480468e-05, 6.078125) (6.383532714843749e-05, 6.080078125) (6.325942993164062e-05, 6.08203125) (6.267603302001953e-05, 6.083984375) (6.20780029296875e-05, 6.0859375) (6.145454025268555e-05, 6.087890625) (6.079519653320312e-05, 6.08984375) (6.0088058471679685e-05, 6.091796875) (5.932482147216797e-05, 6.09375) (5.850054168701172e-05, 6.095703125) (5.761038208007812e-05, 6.09765625) (5.665165710449219e-05, 6.099609375) (5.562609100341797e-05, 6.1015625) (5.4536952972412104e-05, 6.103515625) (5.33910903930664e-05, 6.10546875) (5.219857025146484e-05, 6.107421875) (5.0965946197509766e-05, 6.109375) (4.969705963134765e-05, 6.111328125) (4.8394279479980463e-05, 6.11328125) (4.7058109283447264e-05, 6.115234375) (4.568996047973633e-05, 6.1171875) (4.429258728027344e-05, 6.119140625) (4.2867450714111325e-05, 6.12109375) (4.141520309448242e-05, 6.123046875) (3.993792724609375e-05, 6.125) (3.843878936767578e-05, 6.126953125) (3.692303466796875e-05, 6.12890625) (3.539717864990234e-05, 6.130859375) (3.386620712280273e-05, 6.1328125) (3.233383560180664e-05, 6.134765625) (3.080340576171875e-05, 6.13671875) (2.9277162551879883e-05, 6.138671875) (2.775648307800293e-05, 6.140625) (2.6241703033447266e-05, 6.142578125) (2.473055076599121e-05, 6.14453125) (2.3220172882080076e-05, 6.146484375) (2.1708938598632813e-05, 6.1484375) (2.019553756713867e-05, 6.150390625) (1.8679443359375e-05, 6.15234375) (1.7160806655883788e-05, 6.154296875) (1.5640023231506348e-05, 6.15625) (1.411861801147461e-05, 6.158203125) (1.2599383354187012e-05, 6.16015625) (1.1083816528320312e-05, 6.162109375) (9.570240020751953e-06, 6.1640625) (8.05337619781494e-06, 6.166015625) (6.5250782966613765e-06, 6.16796875) (4.977949142456054e-06, 6.169921875) (3.4054114818572995e-06, 6.171875) (1.8018568754196165e-06, 6.173828125) (1.6381114721298216e-07, 6.17578125) (-1.5125977993011474e-06, 6.177734375) (-3.2299706935882566e-06, 6.1796875) (-4.98395824432373e-06, 6.181640625) (-6.765165328979492e-06, 6.18359375) (-8.567676544189453e-06, 6.185546875) (-1.0390007972717285e-05, 6.1875) (-1.2242855072021483e-05, 6.189453125) (-1.4149623870849608e-05, 6.19140625) (-1.6125957489013672e-05, 6.193359375) (-1.817643356323242e-05, 6.1953125) (-2.0299259185791014e-05, 6.197265625) (-2.249010467529297e-05, 6.19921875) (-2.4744119644165037e-05, 6.201171875) (-2.7048297882080076e-05, 6.203125) (-2.9370250701904296e-05, 6.205078125) (-3.165548324584961e-05, 6.20703125) (-3.384894561767578e-05, 6.208984375) (-3.591500091552734e-05, 6.2109375) (-3.7851486206054686e-05, 6.212890625) (-3.967702865600586e-05, 6.21484375) (-4.1399261474609374e-05, 6.216796875) (-4.3020111083984376e-05, 6.21875) (-4.4519958496093745e-05, 6.220703125) (-4.5866298675537106e-05, 6.22265625) (-4.70596923828125e-05, 6.224609375) (-4.8115295410156246e-05, 6.2265625) (-4.9041900634765626e-05, 6.228515625) (-4.983579254150391e-05, 6.23046875) (-5.0495765686035155e-05, 6.232421875) (-5.104311370849609e-05, 6.234375) (-5.155644607543945e-05, 6.236328125) (-5.219483184814453e-05, 6.23828125) (-5.3113029479980466e-05, 6.240234375) (-5.440309906005859e-05, 6.2421875) (-5.6092769622802734e-05, 6.244140625) (-5.8180908203125e-05, 6.24609375) (-6.0671470642089844e-05, 6.248046875) (-6.360937881469727e-05, 6.25) (-6.709117126464843e-05, 6.251953125) (-7.108001708984374e-05, 6.25390625) (-7.541171264648437e-05, 6.255859375) (-7.991024780273437e-05, 6.2578125) (-8.43270263671875e-05, 6.259765625) (-8.846499633789062e-05, 6.26171875) (-9.22071533203125e-05, 6.263671875) (-9.520751953125e-05, 6.265625) (-9.695186614990234e-05, 6.267578125) (-9.723951721191405e-05, 6.26953125) (-9.602821350097656e-05, 6.271484375) (-9.344609069824218e-05, 6.2734375) (-9.021379089355468e-05, 6.275390625) (-8.699076843261719e-05, 6.27734375) (-8.422219085693359e-05, 6.279296875) (-8.284387969970703e-05, 6.28125) (-8.305120849609375e-05, 6.283203125) (-8.364372253417969e-05, 6.28515625) (-8.379063415527343e-05, 6.287109375) (-8.308881378173827e-05, 6.2890625) (-8.243302154541015e-05, 6.291015625) (-8.421540069580078e-05, 6.29296875) (-8.851702880859374e-05, 6.294921875) (-9.124456787109375e-05, 6.296875) (-8.434381103515625e-05, 6.298828125) (-6.063349533081054e-05, 6.30078125) (-1.8407957077026367e-05, 6.302734375) (3.844933319091797e-05, 6.3046875) (0.00010011328125, 6.306640625) (0.00015921571350097655, 6.30859375) (0.0002145989532470703, 6.310546875) (0.0002649762268066406, 6.3125) (0.0003099179077148437, 6.314453125) (0.00034481735229492183, 6.31640625) (0.0003585145568847656, 6.318359375) (0.0003448043823242187, 6.3203125) (0.00030324114990234373, 6.322265625) (0.0002378587188720703, 6.32421875) (0.0001590301513671875, 6.326171875) (7.381016540527343e-05, 6.328125) (-1.6107967376708984e-05, 6.330078125) (-0.00010779863739013671, 6.33203125) (-0.00019822552490234374, 6.333984375) (-0.0002817529907226562, 6.3359375) (-0.00034901513671875, 6.337890625) (-0.00039573992919921875, 6.33984375) (-0.00042309930419921873, 6.341796875) (-0.00043374533081054685, 6.34375) (-0.00043282223510742184, 6.345703125) (-0.0004224452209472656, 6.34765625) (-0.000400929443359375, 6.349609375) (-0.00036897259521484374, 6.3515625) (-0.00032812744140625, 6.353515625) (-0.00028112231445312497, 6.35546875) (-0.0002329781036376953, 6.357421875) (-0.00018693266296386719, 6.359375) (-0.00014493717956542968, 6.361328125) (-0.00010929154205322265, 6.36328125) (-8.09537124633789e-05, 6.365234375) (-5.9875282287597654e-05, 6.3671875) (-4.596458053588867e-05, 6.369140625) 