(-0.00110535595703125, 0.0) (-0.001495361328125, 0.001953125) (-0.0017428499755859374, 0.00390625) (-0.001821579345703125, 0.005859375) (-0.0017577973632812499, 0.0078125) (-0.0016198656005859374, 0.009765625) (-0.0014750755615234375, 0.01171875) (-0.0013611875, 0.013671875) (-0.0012936070556640623, 0.015625) (-0.001257953125, 0.017578125) (-0.0012302142333984374, 0.01953125) (-0.001196540771484375, 0.021484375) (-0.001144039794921875, 0.0234375) (-0.001074020751953125, 0.025390625) (-0.0009970414428710937, 0.02734375) (-0.0009203023681640625, 0.029296875) (-0.0008531182861328125, 0.03125) (-0.0007982634887695313, 0.033203125) (-0.0007515262451171875, 0.03515625) (-0.00070911572265625, 0.037109375) (-0.000666650634765625, 0.0390625) (-0.0006212288818359374, 0.041015625) (-0.0005725047607421875, 0.04296875) (-0.0005203045043945312, 0.044921875) (-0.00046440109252929686, 0.046875) (-0.0004052881774902344, 0.048828125) (-0.0003439404602050781, 0.05078125) (-0.00028147052001953126, 0.052734375) (-0.00021898590087890624, 0.0546875) (-0.00015753094482421875, 0.056640625) (-9.781321716308593e-05, 0.05859375) (-4.046818161010742e-05, 0.060546875) (1.3699167251586914e-05, 0.0625) (6.445631408691406e-05, 0.064453125) (0.00011203459167480468, 0.06640625) (0.00015675750732421873, 0.068359375) (0.00019915414428710936, 0.0703125) (0.00023971945190429686, 0.072265625) (0.00027879739379882814, 0.07421875) (0.000316857421875, 0.076171875) (0.0003544761352539062, 0.078125) (0.0003920240478515625, 0.080078125) (0.0004297361755371094, 0.08203125) (0.0004677689819335937, 0.083984375) (0.0005061363525390625, 0.0859375) (0.0005448704223632812, 0.087890625) (0.0005840439453125, 0.08984375) (0.0006236708984375, 0.091796875) (0.000663744140625, 0.09375) (0.000704287109375, 0.095703125) (0.0007453218383789062, 0.09765625) (0.000786857666015625, 0.099609375) (0.0008288753662109374, 0.1015625) (0.0008712974853515625, 0.103515625) (0.0009140458374023437, 0.10546875) (0.0009570640258789062, 0.107421875) (0.0010003223876953124, 0.109375) (0.0010438330078124999, 0.111328125) (0.001087583984375, 0.11328125) (0.0011315151367187499, 0.115234375) (0.001175616943359375, 0.1171875) (0.0012199425048828125, 0.119140625) (0.0012644656982421874, 0.12109375) (0.00130910498046875, 0.123046875) (0.0013536358642578124, 0.125) (0.001397616943359375, 0.126953125) (0.0014407818603515625, 0.12890625) (0.001483112060546875, 0.130859375) (0.0015245996093749999, 0.1328125) (0.0015652938232421875, 0.134765625) (0.001605305908203125, 0.13671875) (0.001644669921875, 0.138671875) (0.00168373291015625, 0.140625) (0.00172322509765625, 0.142578125) (0.0017633354492187499, 0.14453125) (0.0018037567138671875, 0.146484375) (0.0018440212402343749, 0.1484375) (0.0018832554931640625, 0.150390625) (0.001920730224609375, 0.15234375) (0.0019560499267578125, 0.154296875) (0.0019882305908203125, 0.15625) (0.002015906982421875, 0.158203125) (0.002038585693359375, 0.16015625) (0.00205635693359375, 0.162109375) (0.00206970263671875, 0.1640625) (0.00207990185546875, 0.166015625) (0.00208781689453125, 0.16796875) (0.0020938432617187497, 0.169921875) (0.0020992626953125, 0.171875) (0.00210560595703125, 0.173828125) (0.0021136550292968747, 0.17578125) (0.00212390380859375, 0.177734375) (0.002136390869140625, 0.1796875) (0.00215033544921875, 0.181640625) (0.002165517822265625, 0.18359375) (0.00218214208984375, 0.185546875) (0.00219949609375, 0.1875) (0.002216823486328125, 0.189453125) (0.0022337314453125, 0.19140625) (0.00224960595703125, 0.193359375) (0.0022640791015624997, 0.1953125) (0.0022773046875, 0.197265625) (0.00228897900390625, 0.19921875) (0.0022985390625, 0.201171875) (0.0023060087890625, 0.203125) (0.00231104150390625, 0.205078125) (0.00231295556640625, 0.20703125) (0.0023115434570312498, 0.208984375) (0.0023064597167968747, 0.2109375) (0.0022968525390624998, 0.212890625) (0.0022818232421874998, 0.21484375) (0.00226015234375, 0.216796875) (0.00223017431640625, 0.21875) (0.002191003173828125, 0.220703125) (0.0021422631835937497, 0.22265625) (0.00208302099609375, 0.224609375) (0.0020125400390625, 0.2265625) (0.001930838134765625, 0.228515625) (0.0018384990234375, 0.23046875) (0.0017370683593749998, 0.232421875) (0.0016289097900390624, 0.234375) (0.0015156009521484373, 0.236328125) (0.0013981715087890624, 0.23828125) (0.001278512939453125, 0.240234375) (0.001156303466796875, 0.2421875) (0.0010282949218749999, 0.244140625) (0.000891539306640625, 0.24609375) (0.0007421661376953125, 0.248046875) (0.0005813419799804687, 0.25) (0.0004171186828613281, 0.251953125) (0.0002524569854736328, 0.25390625) (8.49595947265625e-05, 0.255859375) (-9.86229019165039e-05, 0.2578125) (-0.00032228622436523437, 0.259765625) (-0.0006004194335937499, 0.26171875) (-0.0009364359741210937, 0.263671875) (-0.001317831298828125, 0.265625) (-0.001714984130859375, 0.267578125) (-0.0020993471679687497, 0.26953125) (-0.002446026123046875, 0.271484375) (-0.002739210693359375, 0.2734375) (-0.00297608642578125, 0.275390625) (-0.003160980224609375, 0.27734375) (-0.0033002814941406246, 0.279296875) (-0.0033983193359375, 0.28125) (-0.003459708740234375, 0.283203125) (-0.003486301513671875, 0.28515625) (-0.00348713623046875, 0.287109375) (-0.003481325927734375, 0.2890625) (-0.0034841999511718747, 0.291015625) (-0.0035091098632812497, 0.29296875) (-0.00355182861328125, 0.294921875) (-0.00358801708984375, 0.296875) (-0.003591728515625, 0.298828125) (-0.0035390263671875, 0.30078125) (-0.0034272495117187497, 0.302734375) (-0.0032746303710937496, 0.3046875) (-0.0031054052734375, 0.306640625) (-0.00294369775390625, 0.30859375) (-0.002796281982421875, 0.310546875) (-0.002660822265625, 0.3125) (-0.002535745849609375, 0.314453125) (-0.00242417578125, 0.31640625) (-0.00234251171875, 0.318359375) (-0.00230309326171875, 0.3203125) (-0.00230715185546875, 0.322265625) (-0.002344767333984375, 0.32421875) (-0.002393607666015625, 0.326171875) (-0.0024363935546874997, 0.328125) (-0.00246491748046875, 0.330078125) (-0.002477450927734375, 0.33203125) (-0.002479376953125, 0.333984375) (-0.00247406982421875, 0.3359375) (-0.0024609575195312498, 0.337890625) (-0.002437852294921875, 0.33984375) (-0.00239871875, 0.341796875) (-0.0023392407226562498, 0.34375) (-0.00226158056640625, 0.345703125) (-0.00217355224609375, 0.34765625) (-0.0020906572265624998, 0.349609375) (-0.0020272552490234372, 0.3515625) (-0.0019876354980468748, 0.353515625) (-0.0019692080078125, 0.35546875) (-0.001961857666015625, 0.357421875) (-0.00195603564453125, 0.359375) (-0.0019514697265625, 0.361328125) (-0.0019479318847656249, 0.36328125) (-0.0019445484619140625, 0.365234375) (-0.0019399113769531249, 0.3671875) (-0.0019267744140625, 0.369140625) (-0.001903806396484375, 0.37109375) (-0.0018771932373046875, 0.373046875) (-0.0018525939941406249, 0.375) (-0.0018376536865234373, 0.376953125) (-0.0018346633300781248, 0.37890625) (-0.00183855615234375, 0.380859375) (-0.0018458028564453124, 0.3828125) (-0.0018533828125, 0.384765625) (-0.0018599436035156248, 0.38671875) (-0.0018673854980468748, 0.388671875) (-0.0018763974609375, 0.390625) (-0.001886563720703125, 0.392578125) (-0.0018976153564453124, 0.39453125) (-0.001909056640625, 0.396484375) (-0.00192085888671875, 0.3984375) (-0.0019335699462890625, 0.400390625) (-0.0019477105712890623, 0.40234375) (-0.0019633647460937497, 0.404296875) (-0.0019802524414062497, 0.40625) (-0.0019978267822265625, 0.408203125) (-0.00201518994140625, 0.41015625) (-0.0020309150390625, 0.412109375) (-0.002043459228515625, 0.4140625) (-0.00205122607421875, 0.416015625) (-0.0020521748046874997, 0.41796875) (-0.002044920654296875, 0.419921875) (-0.0020288807373046876, 0.421875) (-0.00200336767578125, 0.423828125) (-0.0019695291748046875, 0.42578125) (-0.00192955126953125, 0.427734375) (-0.0018836370849609374, 0.4296875) (-0.0018330946044921874, 0.431640625) (-0.0017778671875, 0.43359375) (-0.0017156682128906249, 0.435546875) (-0.001650060546875, 0.4375) (-0.0015855350341796874, 0.439453125) (-0.0015265261230468748, 0.44140625) (-0.0014804274902343749, 0.443359375) (-0.001445410400390625, 0.4453125) (-0.001412980224609375, 0.447265625) (-0.001376574951171875, 0.44921875) (-0.001326977294921875, 0.451171875) (-0.001262531005859375, 0.453125) (-0.001192612060546875, 0.455078125) (-0.0011212076416015624, 0.45703125) (-0.001051345703125, 0.458984375) (-0.000984274169921875, 0.4609375) (-0.0009114172973632812, 0.462890625) (-0.0008334617919921875, 0.46484375) (-0.0007590849609375, 0.466796875) (-0.0006949473266601562, 0.46875) (-0.0006532775268554687, 0.470703125) (-0.0006368114013671875, 0.47265625) (-0.000635619140625, 0.474609375) (-0.0006416285400390625, 0.4765625) (-0.0006443197021484375, 0.478515625) (-0.0006392719116210937, 0.48046875) (-0.000631715576171875, 0.482421875) (-0.0006228825683593749, 0.484375) (-0.0006138309936523437, 0.486328125) (-0.0006001746826171875, 0.48828125) (-0.0005713802490234375, 0.490234375) (-0.0005261074218749999, 0.4921875) (-0.00046494729614257813, 0.494140625) (-0.0003949136962890625, 0.49609375) (-0.00032994183349609375, 0.498046875) (-0.0002688271789550781, 0.5) (-0.0002039474639892578, 0.501953125) (-0.00012100265502929687, 0.50390625) (2.1606855392456053e-06, 0.505859375) (0.00016947857666015624, 0.5078125) (0.00037208642578125, 0.509765625) (0.0005955994262695312, 0.51171875) (0.0008212008056640625, 0.513671875) (0.001043736572265625, 0.515625) (0.00126661376953125, 0.517578125) (0.001487699462890625, 0.51953125) (0.0016938590087890624, 0.521484375) (0.0018579212646484375, 0.5234375) (0.001949444580078125, 0.525390625) (0.001952725830078125, 0.52734375) (0.00187813818359375, 0.529296875) (0.00175910888671875, 0.53125) (0.00164167236328125, 0.533203125) (0.0015717860107421875, 0.53515625) (0.001581627197265625, 0.537109375) (0.0016894462890625, 0.5390625) (0.0019013034667968748, 0.541015625) (0.002208743408203125, 0.54296875) (0.002595546630859375, 0.544921875) (0.0030349614257812497, 0.546875) (0.00348804541015625, 0.548828125) (0.003913110595703125, 0.55078125) (0.00426602392578125, 0.552734375) (0.004510509765624999, 0.5546875) (0.00463008740234375, 0.556640625) (0.004627603515624999, 0.55859375) (0.0045276933593749995, 0.560546875) (0.00436781982421875, 0.5625) (0.0041848896484375, 0.564453125) (0.0040074423828124995, 0.56640625) (0.0038493186035156246, 0.568359375) (0.003712276611328125, 0.5703125) (0.0035897890625, 0.572265625) (0.0034739523925781247, 0.57421875) (0.00336033056640625, 0.576171875) (0.00324732666015625, 0.578125) (0.0031398720703125, 0.580078125) (0.003045132568359375, 0.58203125) (0.00296897607421875, 0.583984375) (0.00291693310546875, 0.5859375) (0.002889049560546875, 0.587890625) (0.00288189599609375, 0.58984375) (0.0028917482910156248, 0.591796875) (0.002913651611328125, 0.59375) (0.0029441469726562497, 0.595703125) (0.002981267822265625, 0.59765625) (0.0030229042968749997, 0.599609375) (0.0030670268554687497, 0.6015625) (0.00311148974609375, 0.603515625) (0.0031538662109375, 0.60546875) (0.00319156005859375, 0.607421875) (0.003222292236328125, 0.609375) (0.0032440959472656247, 0.611328125) (0.00325489306640625, 0.61328125) (0.00325276806640625, 0.615234375) (0.0032363830566406247, 0.6171875) (0.0032049360351562497, 0.619140625) (0.0031584653320312498, 0.62109375) (0.00309818310546875, 0.623046875) (0.00302555810546875, 0.625) (0.0029421315917968747, 0.626953125) (0.0028502827148437497, 0.62890625) (0.00275272802734375, 0.630859375) (0.0026521716308593748, 0.6328125) (0.0025512548828125, 0.634765625) (0.0024516796875, 0.63671875) (0.0023542729492187497, 0.638671875) (0.00226003125, 0.640625) (0.00217012646484375, 0.642578125) (0.00208544287109375, 0.64453125) (0.0020067552490234375, 0.646484375) (0.0019344149169921874, 0.6484375) (0.0018687467041015623, 0.650390625) (0.001811166259765625, 0.65234375) (0.00176354541015625, 0.654296875) (0.0017275687255859373, 0.65625) (0.001704647705078125, 0.658203125) (0.0016952001953125, 0.66015625) (0.0016992962646484374, 0.662109375) (0.0017177608642578125, 0.6640625) (0.001750995849609375, 0.666015625) (0.001797984619140625, 0.66796875) (0.001856037109375, 0.669921875) (0.00192029833984375, 0.671875) (0.0019853636474609373, 0.673828125) (0.002048613037109375, 0.67578125) (0.002111913818359375, 0.677734375) (0.00217816015625, 0.6796875) (0.0022486171875, 0.681640625) (0.00231900341796875, 0.68359375) (0.0023732722167968748, 0.685546875) (0.00239382958984375, 0.6875) (0.0023686330566406247, 0.689453125) (0.0022934719238281247, 0.69140625) (0.00218418798828125, 0.693359375) (0.002063136474609375, 0.6953125) (0.0019470893554687499, 0.697265625) (0.0018482343749999998, 0.69921875) (0.00175954443359375, 0.701171875) (0.0016654208984374999, 0.703125) (0.00155659375, 0.705078125) (0.0014268055419921874, 0.70703125) (0.0012824105224609375, 0.708984375) (0.0011362547607421875, 0.7109375) (0.0009934453125, 0.712890625) (0.0008537624511718749, 0.71484375) (0.00071091796875, 0.716796875) (0.0005574599609375, 0.71875) (0.0003955874328613281, 0.720703125) (0.00023668922424316405, 0.72265625) (9.644530487060546e-05, 0.724609375) (-1.0510087966918945e-05, 0.7265625) (-8.207302856445312e-05, 0.728515625) (-0.00013104013061523436, 0.73046875) (-0.00017822564697265623, 0.732421875) (-0.0002509970703125, 0.734375) (-0.0003680426025390625, 0.736328125) (-0.0005307465820312499, 0.73828125) (-0.00073206396484375, 0.740234375) (-0.0009514785156249999, 0.7421875) (-0.0011650792236328124, 0.744140625) (-0.0013600487060546874, 0.74609375) (-0.001525047119140625, 0.748046875) (-0.0016548990478515624, 0.75) (-0.00175315625, 0.751953125) (-0.001819020751953125, 0.75390625) (-0.0018552291259765624, 0.755859375) (-0.001872070068359375, 0.7578125) (-0.0018792595214843749, 0.759765625) (-0.001891770263671875, 0.76171875) (-0.0019228433837890624, 0.763671875) (-0.001973427490234375, 0.765625) (-0.00203708544921875, 0.767578125) (-0.0021003173828125, 0.76953125) (-0.00215021630859375, 0.771484375) (-0.0021829462890625, 0.7734375) (-0.0022016318359375, 0.775390625) (-0.0022142548828125, 0.77734375) (-0.002227054443359375, 0.779296875) (-0.002241591552734375, 0.78125) (-0.0022567695312499998, 0.783203125) (-0.002269877685546875, 0.78515625) (-0.00227985205078125, 0.787109375) (-0.002287422607421875, 0.7890625) (-0.002293431640625, 0.791015625) (-0.002298816162109375, 0.79296875) (-0.00230405712890625, 0.794921875) (-0.002309147216796875, 0.796875) (-0.002314211669921875, 0.798828125) (-0.002319353271484375, 0.80078125) (-0.002324490478515625, 0.802734375) (-0.002329666259765625, 0.8046875) (-0.00233503125, 0.806640625) (-0.0023408771972656247, 0.80859375) (-0.0023477099609375, 0.810546875) (-0.002355890625, 0.8125) (-0.0023655913085937497, 0.814453125) (-0.002377205322265625, 0.81640625) (-0.0023911279296875, 0.818359375) (-0.0024072302246093747, 0.8203125) (-0.0024252431640625, 0.822265625) (-0.0024445903320312497, 0.82421875) (-0.00246402490234375, 0.826171875) (-0.0024839091796875, 0.828125) (-0.0025048876953124998, 0.830078125) (-0.002525325439453125, 0.83203125) (-0.0025448200683593747, 0.833984375) (-0.002561352783203125, 0.8359375) (-0.0025730476074218747, 0.837890625) (-0.002585079345703125, 0.83984375) (-0.002601645751953125, 0.841796875) (-0.00262771240234375, 0.84375) (-0.002668958984375, 0.845703125) (-0.0027220161132812497, 0.84765625) (-0.002783820068359375, 0.849609375) (-0.00285153173828125, 0.8515625) (-0.0029194897460937497, 0.853515625) (-0.0029878198242187497, 0.85546875) (-0.0030563515625, 0.857421875) (-0.00312271142578125, 0.859375) (-0.003186274658203125, 0.861328125) (-0.003244076904296875, 0.86328125) (-0.003292781005859375, 0.865234375) (-0.003331503173828125, 0.8671875) (-0.003360310302734375, 0.869140625) (-0.003380404296875, 0.87109375) (-0.00339392822265625, 0.873046875) (-0.00340288671875, 0.875) (-0.003408522216796875, 0.876953125) (-0.003411931396484375, 0.87890625) (-0.00341442529296875, 0.880859375) (-0.0034164433593749997, 0.8828125) (-0.0034176435546874996, 0.884765625) (-0.0034172702636718747, 0.88671875) (-0.0034136665039062497, 0.888671875) (-0.003405190673828125, 0.890625) (-0.003391197509765625, 0.892578125) (-0.00337145654296875, 0.89453125) (-0.0033461669921875, 0.896484375) (-0.003316642578125, 0.8984375) (-0.00328464453125, 0.900390625) (-0.0032520932617187497, 0.90234375) (-0.003221535400390625, 0.904296875) (-0.00319508642578125, 0.90625) (-0.003174111572265625, 0.908203125) (-0.00315960498046875, 0.91015625) (-0.0031513881835937498, 0.912109375) (-0.0031479521484375, 0.9140625) (-0.0031472299804687497, 0.916015625) (-0.0031469216308593747, 0.91796875) (-0.003144643310546875, 0.919921875) (-0.0031386345214843747, 0.921875) (-0.0031273544921874997, 0.923828125) (-0.0031092644042968747, 0.92578125) (-0.0030840205078124998, 0.927734375) (-0.003052472412109375, 0.9296875) (-0.003016208251953125, 0.931640625) (-0.002977260986328125, 0.93359375) (-0.0029373076171875, 0.935546875) (-0.002897373779296875, 0.9375) (-0.002858514892578125, 0.939453125) (-0.002822037109375, 0.94140625) (-0.00278869580078125, 0.943359375) (-0.0027584912109374997, 0.9453125) (-0.00273080419921875, 0.947265625) (-0.00270482421875, 0.94921875) (-0.0026800624999999997, 0.951171875) (-0.002656451904296875, 0.953125) (-0.0026343984375, 0.955078125) (-0.002612944091796875, 0.95703125) (-0.00259110107421875, 0.958984375) (-0.0025701623535156247, 0.9609375) (-0.002550541015625, 0.962890625) (-0.0025349655761718747, 0.96484375) (-0.002526584228515625, 0.966796875) (-0.002522051513671875, 0.96875) (-0.002519053955078125, 0.970703125) (-0.00251386767578125, 0.97265625) (-0.00250163037109375, 0.974609375) (-0.0024865009765624997, 0.9765625) (-0.0024722753906249997, 0.978515625) (-0.0024617392578124998, 0.98046875) (-0.00245880615234375, 0.982421875) (-0.002459976806640625, 0.984375) (-0.00246140576171875, 0.986328125) (-0.0024617805175781247, 0.98828125) (-0.002458865234375, 0.990234375) (-0.0024531154785156248, 0.9921875) (-0.0024450063476562497, 0.994140625) (-0.0024332578125, 0.99609375) (-0.0024175449218749997, 0.998046875) (-0.002398228759765625, 1.0) (-0.0023761540527343747, 1.001953125) (-0.00235245849609375, 1.00390625) (-0.002327920166015625, 1.005859375) (-0.002303017333984375, 1.0078125) (-0.0022783828125, 1.009765625) (-0.00225494140625, 1.01171875) (-0.0022333691406249997, 1.013671875) (-0.002213736328125, 1.015625) (-0.00219564453125, 1.017578125) (-0.002178767822265625, 1.01953125) (-0.002163, 1.021484375) (-0.00214835595703125, 1.0234375) (-0.002134926513671875, 1.025390625) (-0.0021226699218749997, 1.02734375) (-0.002111650146484375, 1.029296875) (-0.0021022729492187497, 1.03125) (-0.002095022216796875, 1.033203125) (-0.002090086669921875, 1.03515625) (-0.002087520751953125, 1.037109375) (-0.0020873554687499997, 1.0390625) (-0.00208930517578125, 1.041015625) (-0.00209297021484375, 1.04296875) (-0.00209754638671875, 1.044921875) (-0.00210156689453125, 1.046875) (-0.002103800048828125, 1.048828125) (-0.0021033657226562498, 1.05078125) (-0.0020993994140625, 1.052734375) (-0.0020916123046874997, 1.0546875) (-0.002080046875, 1.056640625) (-0.002065724365234375, 1.05859375) (-0.002051891845703125, 1.060546875) (-0.002040821411132812, 1.0625) (-0.002033423095703125, 1.064453125) (-0.0020290224609375, 1.06640625) (-0.002022231689453125, 1.068359375) (-0.00201097412109375, 1.0703125) (-0.0019983751220703123, 1.072265625) (-0.0019881402587890624, 1.07421875) (-0.001990327514648437, 1.076171875) (-0.0020125955810546873, 1.078125) (-0.0020507607421875, 1.080078125) (-0.002096291015625, 1.08203125) (-0.002130630615234375, 1.083984375) (-0.002125583740234375, 1.0859375) (-0.00206249853515625, 1.087890625) (-0.001932611572265625, 1.08984375) (-0.001738167236328125, 1.091796875) (-0.0015041015625, 1.09375) (-0.001261673583984375, 1.095703125) (-0.0010369410400390626, 1.09765625) (-0.0008554825439453125, 1.099609375) (-0.0007267490844726563, 1.1015625) (-0.0006447412109375, 1.103515625) (-0.0006021624145507812, 1.10546875) (-0.0005846297607421875, 1.107421875) (-0.0005791284790039062, 1.109375) (-0.0005838963623046874, 1.111328125) (-0.0005987044067382812, 1.11328125) (-0.0006251929931640625, 1.115234375) (-0.000666537841796875, 1.1171875) (-0.0007196019897460937, 1.119140625) (-0.0007785444335937499, 1.12109375) (-0.0008383231201171874, 1.123046875) (-0.0008933886718749999, 1.125) (-0.000939981201171875, 1.126953125) (-0.0009766568603515624, 1.12890625) (-0.0010028858642578125, 1.130859375) (-0.0010189340209960937, 1.1328125) (-0.0010259296875, 1.134765625) (-0.0010256632080078124, 1.13671875) (-0.0010199930419921874, 1.138671875) (-0.0010110665283203125, 1.140625) (-0.0010003123779296875, 1.142578125) (-0.0009877727661132811, 1.14453125) (-0.0009740133056640624, 1.146484375) (-0.000960414794921875, 1.1484375) (-0.0009511408081054687, 1.150390625) (-0.0009520634155273437, 1.15234375) (-0.0009640150146484374, 1.154296875) (-0.000982473388671875, 1.15625) (-0.0009972552490234373, 1.158203125) (-0.0009938438720703126, 1.16015625) (-0.0009644104003906249, 1.162109375) (-0.0009103562622070312, 1.1640625) (-0.0008387752685546874, 1.166015625) (-0.000764786865234375, 1.16796875) (-0.0007031739501953125, 1.169921875) (-0.0006606729736328125, 1.171875) (-0.0006412838745117188, 1.173828125) (-0.0006407883911132812, 1.17578125) (-0.0006480241699218749, 1.177734375) (-0.0006559774169921875, 1.1796875) (-0.0006580477294921875, 1.181640625) (-0.0006519913940429687, 1.18359375) (-0.0006427015380859374, 1.185546875) (-0.0006328466796874999, 1.1875) (-0.000623973876953125, 1.189453125) (-0.0006163981933593749, 1.19140625) (-0.0006074569091796875, 1.193359375) (-0.000596158203125, 1.1953125) (-0.0005832955322265625, 1.197265625) (-0.0005699865722656249, 1.19921875) (-0.000557581787109375, 1.201171875) (-0.0005466575927734375, 1.203125) (-0.0005370972900390625, 1.205078125) (-0.0005287806396484375, 1.20703125) (-0.0005216442871093749, 1.208984375) (-0.00051554638671875, 1.2109375) (-0.0005101238403320312, 1.212890625) (-0.0005048128662109375, 1.21484375) (-0.0004992235107421875, 1.216796875) (-0.0004932243347167968, 1.21875) (-0.0004868285217285156, 1.220703125) (-0.0004801431274414062, 1.22265625) (-0.0004731837158203125, 1.224609375) (-0.0004658745727539062, 1.2265625) (-0.00045820574951171874, 1.228515625) (-0.00045024218749999996, 1.23046875) (-0.00044198931884765623, 1.232421875) (-0.0004333518676757812, 1.234375) (-0.0004241546936035156, 1.236328125) (-0.000414063720703125, 1.23828125) (-0.00040272982788085935, 1.240234375) (-0.0003899284057617187, 1.2421875) (-0.00037541943359375, 1.244140625) (-0.0003588609008789062, 1.24609375) (-0.0003399305725097656, 1.248046875) (-0.0003183780822753906, 1.25) (-0.00029385220336914064, 1.251953125) (-0.000266233642578125, 1.25390625) (-0.0002359702453613281, 1.255859375) (-0.00020330148315429687, 1.2578125) (-0.0001682828674316406, 1.259765625) (-0.00013163526916503906, 1.26171875) (-9.269949340820312e-05, 1.263671875) (-5.045655441284179e-05, 1.265625) (-6.396238327026367e-06, 1.267578125) (3.93727798461914e-05, 1.26953125) (8.527882385253906e-05, 1.271484375) (0.00012776878356933594, 1.2734375) (0.0001699505615234375, 1.275390625) (0.00021582647705078125, 1.27734375) (0.0002695238647460937, 1.279296875) (0.00033820205688476563, 1.28125) (0.00041921875, 1.283203125) (0.0005033413696289062, 1.28515625) (0.000582785888671875, 1.287109375) (0.000646841552734375, 1.2890625) (0.0006916307373046875, 1.291015625) (0.000722424072265625, 1.29296875) (0.0007415496826171875, 1.294921875) (0.000752251708984375, 1.296875) (0.00075745849609375, 1.298828125) (0.0007542041625976562, 1.30078125) (0.0007424279174804687, 1.302734375) (0.0007243138427734375, 1.3046875) (0.00070111474609375, 1.306640625) (0.0006773031616210938, 1.30859375) (0.0006576165771484375, 1.310546875) (0.00064500732421875, 1.3125) (0.0006420508422851562, 1.314453125) (0.0006499147338867187, 1.31640625) (0.0006686550292968749, 1.318359375) (0.0006982044677734375, 1.3203125) (0.0007378206176757812, 1.322265625) (0.0007857439575195312, 1.32421875) (0.0008391568603515624, 1.326171875) (0.0008945139770507812, 1.328125) (0.0009486910400390624, 1.330078125) (0.000999160400390625, 1.33203125) (0.00104352978515625, 1.333984375) (0.0010799011230468749, 1.3359375) (0.001107157470703125, 1.337890625) (0.001124853515625, 1.33984375) (0.0011338829345703125, 1.341796875) (0.001136443115234375, 1.34375) (0.0011345225830078124, 1.345703125) (0.001129998291015625, 1.34765625) (0.0011250646972656249, 1.349609375) (0.001121285400390625, 1.3515625) (0.0011199997558593749, 1.353515625) (0.001122689208984375, 1.35546875) (0.0011297152099609374, 1.357421875) (0.0011404353027343749, 1.359375) (0.00115441162109375, 1.361328125) (0.001170974365234375, 1.36328125) (0.001189274169921875, 1.365234375) (0.0012092044677734374, 1.3671875) (0.00123024951171875, 1.369140625) (0.0012512144775390624, 1.37109375) (0.0012715828857421875, 1.373046875) (0.001291177490234375, 1.375) (0.0013096834716796873, 1.376953125) (0.001327158935546875, 1.37890625) (0.0013435809326171875, 1.380859375) (0.0013583729248046875, 1.3828125) (0.0013714999999999999, 1.384765625) (0.0013834990234375, 1.38671875) (0.0013945942382812499, 1.388671875) (0.0014050450439453124, 1.390625) (0.001415117919921875, 1.392578125) (0.001424779296875, 1.39453125) (0.00143415673828125, 1.396484375) (0.001443601318359375, 1.3984375) (0.001453138671875, 1.400390625) (0.0014626276855468749, 1.40234375) (0.0014721055908203124, 1.404296875) (0.0014814732666015625, 1.40625) (0.001490638671875, 1.408203125) (0.0014996708984375, 1.41015625) (0.001508463134765625, 1.412109375) (0.001516994140625, 1.4140625) (0.0015255241699218749, 1.416015625) (0.0015341258544921874, 1.41796875) (0.0015426446533203125, 1.419921875) (0.0015511442871093749, 1.421875) (0.00155973486328125, 1.423828125) (0.0015684964599609373, 1.42578125) (0.001577739501953125, 1.427734375) (0.001587285888671875, 1.4296875) (0.0015963591308593749, 1.431640625) (0.001604533935546875, 1.43359375) (0.001611640625, 1.435546875) (0.00161726513671875, 1.4375) (0.0016209832763671875, 1.439453125) (0.0016222178955078125, 1.44140625) (0.001620078125, 1.443359375) (0.00161448095703125, 1.4453125) (0.0016062213134765623, 1.447265625) (0.001595816650390625, 1.44921875) (0.00158360791015625, 1.451171875) (0.001570043212890625, 1.453125) (0.001555431396484375, 1.455078125) (0.001540293212890625, 1.45703125) (0.001525489501953125, 1.458984375) (0.0015112578125, 1.4609375) (0.001497197509765625, 1.462890625) (0.0014831259765625, 1.46484375) (0.0014689951171875, 1.466796875) (0.0014548333740234374, 1.46875) (0.0014409104003906248, 1.470703125) (0.001427581298828125, 1.47265625) (0.0014151755371093748, 1.474609375) (0.0014039873046875, 1.4765625) (0.0013942393798828125, 1.478515625) (0.0013860883789062499, 1.48046875) (0.0013794212646484375, 1.482421875) (0.0013750313720703124, 1.484375) (0.0013748195800781249, 1.486328125) (0.0013784075927734374, 1.48828125) (0.0013842410888671875, 1.490234375) (0.001389418701171875, 1.4921875) (0.0013884497070312499, 1.494140625) (0.001381523193359375, 1.49609375) (0.001373317626953125, 1.498046875) (0.0013694979248046874, 1.5) (0.001379599609375, 1.501953125) (0.0014078269042968748, 1.50390625) (0.0014510869140625, 1.505859375) (0.001504864013671875, 1.5078125) (0.001560076416015625, 1.509765625) (0.0016066538085937499, 1.51171875) (0.0016403935546875, 1.513671875) (0.0016586287841796874, 1.515625) (0.0016602431640625, 1.517578125) (0.001650298828125, 1.51953125) (0.00163388671875, 1.521484375) (0.0016191138916015625, 1.5234375) (0.00162268212890625, 1.525390625) (0.00166043505859375, 1.52734375) (0.0017452403564453124, 1.529296875) (0.001880403564453125, 1.53125) (0.002048046875, 1.533203125) (0.002218395751953125, 1.53515625) (0.002356779296875, 1.537109375) (0.00243332861328125, 1.5390625) (0.002439404052734375, 1.541015625) (0.0023807817382812497, 1.54296875) (0.0022767702636718747, 1.544921875) (0.0021566376953124997, 1.546875) (0.002042307861328125, 1.548828125) (0.0019529887695312498, 1.55078125) (0.00189931689453125, 1.552734375) (0.001876486083984375, 1.5546875) (0.001878023681640625, 1.556640625) (0.00189366845703125, 1.55859375) (0.0019116851806640625, 1.560546875) (0.0019280900878906248, 1.5625) (0.001938221435546875, 1.564453125) (0.0019356530761718749, 1.56640625) (0.00191794873046875, 1.568359375) (0.0018838417968749998, 1.5703125) (0.0018366166992187499, 1.572265625) (0.00178636376953125, 1.57421875) (0.0017415013427734374, 1.576171875) (0.001705991455078125, 1.578125) (0.0016795346679687499, 1.580078125) (0.0016569055175781249, 1.58203125) (0.001633643798828125, 1.583984375) (0.0016088126220703124, 1.5859375) (0.0015834371337890623, 1.587890625) (0.0015598204345703124, 1.58984375) (0.0015392635498046874, 1.591796875) (0.001521480712890625, 1.59375) (0.0015057711181640625, 1.595703125) (0.0014914201660156249, 1.59765625) (0.0014782463378906249, 1.599609375) (0.001466386962890625, 1.6015625) (0.0014558624267578125, 1.603515625) (0.0014466597900390625, 1.60546875) (0.0014386953124999999, 1.607421875) (0.00143185498046875, 1.609375) (0.0014261015624999999, 1.611328125) (0.001421406005859375, 1.61328125) (0.0014176855468749998, 1.615234375) (0.0014148560791015625, 1.6171875) (0.0014128173828125, 1.619140625) (0.0014114232177734375, 1.62109375) (0.0014105352783203124, 1.623046875) (0.0014100224609375, 1.625) (0.0014097458496093748, 1.626953125) (0.001409616455078125, 1.62890625) (0.001409560546875, 1.630859375) (0.0014094731445312499, 1.6328125) (0.001409257080078125, 1.634765625) (0.001408814208984375, 1.63671875) (0.0014080334472656249, 1.638671875) (0.0014068032226562499, 1.640625) (0.0014049722900390624, 1.642578125) (0.001402322265625, 1.64453125) (0.0013986433105468749, 1.646484375) (0.001393771240234375, 1.6484375) (0.0013875870361328125, 1.650390625) (0.0013800520019531248, 1.65234375) (0.001371165283203125, 1.654296875) (0.001360942138671875, 1.65625) (0.001349446533203125, 1.658203125) (0.0013367435302734374, 1.66015625) (0.0013228980712890624, 1.662109375) (0.00130799560546875, 1.6640625) (0.0012921140136718749, 1.666015625) (0.001275329833984375, 1.66796875) (0.00125775048828125, 1.669921875) (0.0012395151367187499, 1.671875) (0.001220804931640625, 1.673828125) (0.0012018582763671875, 1.67578125) (0.0011829105224609375, 1.677734375) (0.00116415380859375, 1.6796875) (0.0011457467041015624, 1.681640625) (0.001127790771484375, 1.68359375) (0.0011103460693359375, 1.685546875) (0.0010934350585937499, 1.6875) (0.001077024658203125, 1.689453125) (0.0010610697021484375, 1.69140625) (0.0010455316162109375, 1.693359375) (0.0010303909912109375, 1.6953125) (0.001015655517578125, 1.697265625) (0.0010013345336914062, 1.69921875) (0.0009874267578125, 1.701171875) (0.0009739210205078125, 1.703125) (0.0009607864990234374, 1.705078125) (0.0009479786376953125, 1.70703125) (0.0009354600830078125, 1.708984375) (0.0009231915283203125, 1.7109375) (0.0009111489868164062, 1.712890625) (0.000899348388671875, 1.71484375) (0.0008878316040039062, 1.716796875) (0.0008766939086914062, 1.71875) (0.000866080322265625, 1.720703125) (0.0008561275634765624, 1.72265625) (0.0008469600219726562, 1.724609375) (0.0008386712646484374, 1.7265625) (0.0008313108520507812, 1.728515625) (0.00082492529296875, 1.73046875) (0.0008195493774414062, 1.732421875) (0.0008151790771484375, 1.734375) (0.0008118093261718749, 1.736328125) (0.0008094207153320312, 1.73828125) (0.0008079812622070312, 1.740234375) (0.0008075061645507812, 1.7421875) (0.0008080005493164062, 1.744140625) (0.0008094226684570312, 1.74609375) (0.0008117152709960937, 1.748046875) (0.0008147652587890625, 1.75) (0.0008184105834960937, 1.751953125) (0.0008225065917968749, 1.75390625) (0.0008269043579101562, 1.755859375) (0.000831446533203125, 1.7578125) (0.0008360152587890625, 1.759765625) (0.0008404981079101562, 1.76171875) (0.000844797607421875, 1.763671875) (0.0008488756103515625, 1.765625) (0.0008526939697265625, 1.767578125) (0.0008562156372070312, 1.76953125) (0.000859407958984375, 1.771484375) (0.0008621807250976562, 1.7734375) (0.0008644517211914062, 1.775390625) (0.0008661859130859375, 1.77734375) (0.000867354736328125, 1.779296875) (0.0008679627685546875, 1.78125) (0.0008680559692382812, 1.783203125) (0.0008676725463867187, 1.78515625) (0.0008668749999999999, 1.787109375) (0.00086577099609375, 1.7890625) (0.0008644376831054687, 1.791015625) (0.0008629355468749999, 1.79296875) (0.0008613140869140625, 1.794921875) (0.0008595726928710937, 1.796875) (0.0008577171020507813, 1.798828125) (0.000855767822265625, 1.80078125) (0.000853744384765625, 1.802734375) (0.0008516961669921874, 1.8046875) (0.0008496675415039062, 1.806640625) (0.0008476729736328124, 1.80859375) (0.0008457282714843749, 1.810546875) (0.0008438417358398437, 1.8125) (0.0008419945068359375, 1.814453125) (0.0008401621704101562, 1.81640625) (0.0008382944335937499, 1.818359375) (0.0008362985839843749, 1.8203125) (0.0008341046752929687, 1.822265625) (0.000831665283203125, 1.82421875) (0.0008289404907226562, 1.826171875) (0.0008259187011718749, 1.828125) (0.0008225845947265625, 1.830078125) (0.0008189122314453124, 1.83203125) (0.0008148831176757812, 1.833984375) (0.0008104793701171875, 1.8359375) (0.0008056840209960937, 1.837890625) (0.00080048974609375, 1.83984375) (0.0007948880615234375, 1.841796875) (0.0007888683471679687, 1.84375) (0.0007824359130859374, 1.845703125) (0.0007756061401367187, 1.84765625) (0.0007684080200195312, 1.849609375) (0.0007608899536132812, 1.8515625) (0.0007530895996093749, 1.853515625) (0.000745032470703125, 1.85546875) (0.0007367423095703125, 1.857421875) (0.000728234619140625, 1.859375) (0.0007195234375, 1.861328125) (0.0007106251831054687, 1.86328125) (0.0007015498046875, 1.865234375) (0.0006923013305664063, 1.8671875) (0.0006828884277343749, 1.869140625) (0.0006733225708007812, 1.87109375) (0.000663617431640625, 1.873046875) (0.0006537904052734374, 1.875) (0.0006438561401367187, 1.876953125) (0.0006338253784179687, 1.87890625) (0.000623708984375, 1.880859375) (0.00061351513671875, 1.8828125) (0.0006032509765625, 1.884765625) (0.0005929274902343749, 1.88671875) (0.0005825556640625, 1.888671875) (0.0005721458740234374, 1.890625) (0.0005617149658203124, 1.892578125) (0.0005512814331054687, 1.89453125) (0.0005408629150390625, 1.896484375) (0.0005304822998046875, 1.8984375) (0.0005201609497070312, 1.900390625) (0.00050990869140625, 1.90234375) (0.0004997295532226562, 1.904296875) (0.0004896162719726562, 1.90625) (0.00047954611206054684, 1.908203125) (0.00046949932861328124, 1.91015625) (0.00045945434570312496, 1.912109375) (0.00044938720703125, 1.9140625) (0.0004392857666015625, 1.916015625) (0.0004291331787109375, 1.91796875) (0.0004189158020019531, 1.919921875) (0.00040864181518554684, 1.921875) (0.0003983136291503906, 1.923828125) (0.00038792987060546876, 1.92578125) (0.0003774886474609375, 1.927734375) (0.0003669464416503906, 1.9296875) (0.00035625421142578126, 1.931640625) (0.00034541531372070313, 1.93359375) (0.000334455078125, 1.935546875) (0.00032344241333007813, 1.9375) (0.0003124908447265625, 1.939453125) (0.0003016449279785156, 1.94140625) (0.00029095745849609374, 1.943359375) (0.00028055633544921875, 1.9453125) (0.0002704697570800781, 1.947265625) (0.00026067376708984374, 1.94921875) (0.00025108831787109376, 1.951171875) (0.00024136749267578123, 1.953125) (0.0002311699981689453, 1.955078125) (0.00022043783569335935, 1.95703125) (0.0002091270751953125, 1.958984375) (0.00019730865478515623, 1.9609375) (0.00018543124389648437, 1.962890625) (0.0001738349609375, 1.96484375) (0.0001629005432128906, 1.966796875) (0.00015352853393554687, 1.96875) (0.00014637838745117188, 1.970703125) (0.0001415815887451172, 1.97265625) (0.0001391938781738281, 1.974609375) (0.0001385831298828125, 1.9765625) (0.00013829571533203124, 1.978515625) (0.00013714816284179687, 1.98046875) (0.00013388514709472655, 1.982421875) (0.00012670310974121092, 1.984375) (0.00011434650421142578, 1.986328125) (9.603013610839844e-05, 1.98828125) (7.100167846679687e-05, 1.990234375) (3.980670928955078e-05, 1.9921875) (4.1699523925781245e-06, 1.994140625) (-3.431049728393555e-05, 1.99609375) (-7.371676635742187e-05, 1.998046875) (-0.00011186162567138671, 2.0) (-0.00014726422119140623, 2.001953125) (-0.00017850204467773436, 2.00390625) (-0.00020400453186035156, 2.005859375) (-0.00022353695678710938, 2.0078125) (-0.0002379160614013672, 2.009765625) (-0.00024814498901367185, 2.01171875) (-0.00025578684997558593, 2.013671875) (-0.00026223199462890623, 2.015625) (-0.0002681802978515625, 2.017578125) (-0.00027455944824218747, 2.01953125) (-0.0002824579162597656, 2.021484375) (-0.00029213720703125, 2.0234375) (-0.00030331878662109374, 2.025390625) (-0.00031536212158203125, 2.02734375) (-0.0003271321411132812, 2.029296875) (-0.0003379701843261719, 2.03125) (-0.0003477247924804687, 2.033203125) (-0.0003560825805664062, 2.03515625) (-0.00036279501342773436, 2.037109375) (-0.0003678668212890625, 2.0390625) (-0.0003714737548828125, 2.041015625) (-0.00037425973510742187, 2.04296875) (-0.0003771102905273437, 2.044921875) (-0.00038040899658203125, 2.046875) (-0.00038427230834960936, 2.048828125) (-0.0003886893615722656, 2.05078125) (-0.00039333312988281246, 2.052734375) (-0.00039803729248046873, 2.0546875) (-0.00040252532958984374, 2.056640625) (-0.00040595166015624997, 2.05859375) (-0.0004075240173339844, 2.060546875) (-0.00040690158081054683, 2.0625) (-0.00040407833862304686, 2.064453125) (-0.00039980654907226563, 2.06640625) (-0.0003954911804199219, 2.068359375) (-0.0003922590637207031, 2.0703125) (-0.00039146282958984373, 2.072265625) (-0.00039494049072265623, 2.07421875) (-0.00040421334838867186, 2.076171875) (-0.0004204924926757812, 2.078125) (-0.0004443557739257812, 2.080078125) (-0.0004749091796875, 2.08203125) (-0.0005103059997558593, 2.083984375) (-0.0005487464599609375, 2.0859375) (-0.0005880415649414062, 2.087890625) (-0.0006258827514648437, 2.08984375) (-0.0006603563232421874, 2.091796875) (-0.0006894774780273437, 2.09375) (-0.0007119299926757812, 2.095703125) (-0.0007279003295898437, 2.09765625) (-0.0007383948974609375, 2.099609375) (-0.0007447055664062499, 2.1015625) (-0.0007485244140625, 2.103515625) (-0.00075118212890625, 2.10546875) (-0.0007536665649414062, 2.107421875) (-0.000757265625, 2.109375) (-0.000762816162109375, 2.111328125) (-0.0007703286743164062, 2.11328125) (-0.00077939208984375, 2.115234375) (-0.0007891153564453125, 2.1171875) (-0.00079834033203125, 2.119140625) (-0.0008064142456054687, 2.12109375) (-0.0008129589843749999, 2.123046875) (-0.0008175005493164062, 2.125) (-0.00081980224609375, 2.126953125) (-0.0008197779541015625, 2.12890625) (-0.0008175320434570312, 2.130859375) (-0.000813586181640625, 2.1328125) (-0.0008086689453125, 2.134765625) (-0.0008034099121093749, 2.13671875) (-0.0007982615966796875, 2.138671875) (-0.0007935284423828125, 2.140625) (-0.0007894722290039062, 2.142578125) (-0.0007863637695312499, 2.14453125) (-0.0007842405395507812, 2.146484375) (-0.0007828958740234374, 2.1484375) (-0.0007818593139648437, 2.150390625) (-0.0007803134765625, 2.15234375) (-0.0007776311645507812, 2.154296875) (-0.000773440185546875, 2.15625) (-0.000767384765625, 2.158203125) (-0.0007595125732421875, 2.16015625) (-0.0007505068359375, 2.162109375) (-0.0007415770263671875, 2.1640625) (-0.0007343698120117187, 2.166015625) (-0.000730972900390625, 2.16796875) (-0.0007334981079101563, 2.169921875) (-0.0007435939941406249, 2.171875) (-0.0007625782470703124, 2.173828125) (-0.000791375, 2.17578125) (-0.0008286925048828124, 2.177734375) (-0.0008719036865234374, 2.1796875) (-0.0009194580078125, 2.181640625) (-0.0009685010986328125, 2.18359375) (-0.001018091064453125, 2.185546875) (-0.001069151123046875, 2.1875) (-0.001117774169921875, 2.189453125) (-0.00115944091796875, 2.19140625) (-0.001188162353515625, 2.193359375) (-0.00119656640625, 2.1953125) (-0.001184384521484375, 2.197265625) (-0.0011576636962890624, 2.19921875) (-0.0011268256835937499, 2.201171875) (-0.0011034957275390625, 2.203125) (-0.001094799560546875, 2.205078125) (-0.0010994345703125, 2.20703125) (-0.0011095706787109375, 2.208984375) (-0.0011175438232421874, 2.2109375) (-0.0011173197021484373, 2.212890625) (-0.0011083355712890625, 2.21484375) (-0.0010952050781249999, 2.216796875) (-0.00108113232421875, 2.21875) (-0.00106846435546875, 2.220703125) (-0.0010577584228515624, 2.22265625) (-0.00104714453125, 2.224609375) (-0.0010359632568359375, 2.2265625) (-0.0010243380126953125, 2.228515625) (-0.0010126646118164063, 2.23046875) (-0.0010021565551757811, 2.232421875) (-0.0009932745971679687, 2.234375) (-0.000985578369140625, 2.236328125) (-0.0009784742431640625, 2.23828125) (-0.0009711267700195312, 2.240234375) (-0.0009632039794921875, 2.2421875) (-0.0009551220092773437, 2.244140625) (-0.0009472261962890625, 2.24609375) (-0.0009396319580078124, 2.248046875) (-0.0009325880126953125, 2.25) (-0.0009269688720703125, 2.251953125) (-0.0009244027709960937, 2.25390625) (-0.0009264827880859375, 2.255859375) (-0.0009341934814453125, 2.2578125) (-0.000946778564453125, 2.259765625) (-0.0009614801025390624, 2.26171875) (-0.000977068603515625, 2.263671875) (-0.0009935810546874999, 2.265625) (-0.0010118232421875, 2.267578125) (-0.0010346748046875, 2.26953125) (-0.001060476806640625, 2.271484375) (-0.0010821533203125, 2.2734375) (-0.00109089208984375, 2.275390625) (-0.0010775472412109374, 2.27734375) (-0.0010397097167968749, 2.279296875) (-0.0009846768188476562, 2.28125) (-0.000925883056640625, 2.283203125) (-0.0008759255371093749, 2.28515625) (-0.0008425160522460937, 2.287109375) (-0.000826633544921875, 2.2890625) (-0.0008214910888671874, 2.291015625) (-0.0008211556396484375, 2.29296875) (-0.0008215833129882812, 2.294921875) (-0.0008195040893554687, 2.296875) (-0.000816894287109375, 2.298828125) (-0.0008149310302734375, 2.30078125) (-0.0008133248901367187, 2.302734375) (-0.000812564697265625, 2.3046875) (-0.000810526611328125, 2.306640625) (-0.0008058553466796874, 2.30859375) (-0.0007990574340820312, 2.310546875) (-0.000790720458984375, 2.3125) (-0.0007824285278320312, 2.314453125) (-0.0007754190673828125, 2.31640625) (-0.0007699360961914062, 2.318359375) (-0.0007662039184570313, 2.3203125) (-0.0007644615478515624, 2.322265625) (-0.00076483349609375, 2.32421875) (-0.0007673944091796874, 2.326171875) (-0.0007718499755859375, 2.328125) (-0.00077755419921875, 2.330078125) (-0.0007839213867187499, 2.33203125) (-0.0007903857421874999, 2.333984375) (-0.0007964816894531249, 2.3359375) (-0.0008017920532226562, 2.337890625) (-0.0008057002563476562, 2.33984375) (-0.0008077086181640624, 2.341796875) (-0.0008076795654296875, 2.34375) (-0.000805730224609375, 2.345703125) (-0.0008024390869140625, 2.34765625) (-0.0007987000732421874, 2.349609375) (-0.0007952445068359374, 2.3515625) (-0.0007927982788085937, 2.353515625) (-0.0007920582275390625, 2.35546875) (-0.0007930828857421875, 2.357421875) (-0.0007952195434570312, 2.359375) (-0.0007973895263671875, 2.361328125) (-0.0007977677612304687, 2.36328125) (-0.0007939591064453124, 2.365234375) (-0.0007834435424804687, 2.3671875) (-0.0007634483642578125, 2.369140625) (-0.0007316393432617187, 2.37109375) (-0.0006883544311523437, 2.373046875) (-0.0006364788208007812, 2.375) (-0.000579068115234375, 2.376953125) (-0.0005183414306640624, 2.37890625) (-0.0004523035278320312, 2.380859375) (-0.0003766966857910156, 2.3828125) (-0.00029119146728515626, 2.384765625) (-0.00020176251220703124, 2.38671875) (-0.0001238721160888672, 2.388671875) (-7.572484588623047e-05, 2.390625) (-7.026698303222656e-05, 2.392578125) (-0.00010972480773925781, 2.39453125) (-0.00017933793640136718, 2.396484375) (-0.0002570129089355469, 2.3984375) (-0.00032034893798828126, 2.400390625) (-0.0003541733703613281, 2.40234375) (-0.0003605631408691406, 2.404296875) (-0.0003510047607421875, 2.40625) (-0.00034099957275390624, 2.408203125) (-0.00034337878417968747, 2.41015625) (-0.0003603036499023437, 2.412109375) (-0.00038748437499999997, 2.4140625) (-0.00041782272338867187, 2.416015625) (-0.0004458858642578125, 2.41796875) (-0.000470590576171875, 2.419921875) (-0.0004931944885253906, 2.421875) (-0.0005158030395507813, 2.423828125) (-0.0005390889282226562, 2.42578125) (-0.0005623065185546875, 2.427734375) (-0.0005845029296874999, 2.4296875) (-0.0006046598510742187, 2.431640625) (-0.0006222909545898438, 2.43359375) (-0.0006374161987304687, 2.435546875) (-0.000650013916015625, 2.4375) (-0.00066010546875, 2.439453125) (-0.0006678379516601562, 2.44140625) (-0.000673333251953125, 2.443359375) (-0.0006767491455078124, 2.4453125) (-0.000678270751953125, 2.447265625) (-0.0006780545654296874, 2.44921875) (-0.0006762545166015625, 2.451171875) (-0.0006730321655273437, 2.453125) (-0.0006685660400390624, 2.455078125) (-0.00066304736328125, 2.45703125) (-0.0006566886596679687, 2.458984375) (-0.0006497058105468749, 2.4609375) (-0.0006423137207031249, 2.462890625) (-0.0006347155151367188, 2.46484375) (-0.0006271019287109375, 2.466796875) (-0.0006196661987304688, 2.46875) (-0.00061255224609375, 2.470703125) (-0.0006058529663085937, 2.47265625) (-0.000599617919921875, 2.474609375) (-0.0005938463134765625, 2.4765625) (-0.0005885247192382812, 2.478515625) (-0.0005836334228515624, 2.48046875) (-0.0005791365966796875, 2.482421875) (-0.0005749916381835937, 2.484375) (-0.0005711504516601562, 2.486328125) (-0.0005675467529296875, 2.48828125) (-0.0005641104736328125, 2.490234375) (-0.0005607819213867188, 2.4921875) (-0.0005574872436523437, 2.494140625) (-0.0005541510620117187, 2.49609375) (-0.0005506945190429688, 2.498046875) (-0.0005470215454101562, 2.5) (-0.0005430693359375, 2.501953125) (-0.0005388135375976562, 2.50390625) (-0.0005342506103515625, 2.505859375) (-0.0005294017333984374, 2.5078125) (-0.000524295654296875, 2.509765625) (-0.0005189603881835937, 2.51171875) (-0.0005134375, 2.513671875) (-0.00050778125, 2.515625) (-0.0005020406494140625, 2.517578125) (-0.0004962630004882812, 2.51953125) (-0.0004904910888671875, 2.521484375) (-0.00048475717163085937, 2.5234375) (-0.00047910205078125, 2.525390625) (-0.00047357113647460933, 2.52734375) (-0.0004682116394042969, 2.529296875) (-0.00046307614135742184, 2.53125) (-0.0004582021484375, 2.533203125) (-0.00045360995483398434, 2.53515625) (-0.0004493118286132812, 2.537109375) (-0.00044531137084960937, 2.5390625) (-0.00044160607910156247, 2.541015625) (-0.00043819079589843746, 2.54296875) (-0.0004350508422851562, 2.544921875) (-0.00043216195678710936, 2.546875) (-0.0004295030822753906, 2.548828125) (-0.0004270558471679687, 2.55078125) (-0.0004248032836914062, 2.552734375) (-0.0004227311706542969, 2.5546875) (-0.0004208207092285156, 2.556640625) (-0.0004190491333007812, 2.55859375) (-0.0004173929748535156, 2.560546875) (-0.0004158278198242187, 2.5625) (-0.00041433032226562496, 2.564453125) (-0.00041287863159179686, 2.56640625) (-0.00041145068359374996, 2.568359375) (-0.0004100242309570312, 2.5703125) (-0.00040857922363281247, 2.572265625) (-0.0004070963134765625, 2.57421875) (-0.0004055576782226562, 2.576171875) (-0.00040394796752929685, 2.578125) (-0.0004022503967285156, 2.580078125) (-0.0004004475708007812, 2.58203125) (-0.00039852319335937497, 2.583984375) (-0.00039646105957031247, 2.5859375) (-0.00039424639892578125, 2.587890625) (-0.0003918659973144531, 2.58984375) (-0.00038930734252929684, 2.591796875) (-0.00038655859374999997, 2.59375) (-0.000383610595703125, 2.595703125) (-0.0003804561767578125, 2.59765625) (-0.00037708993530273434, 2.599609375) (-0.0003735084533691406, 2.6015625) (-0.0003697087707519531, 2.603515625) (-0.0003656893920898437, 2.60546875) (-0.0003614515991210937, 2.607421875) (-0.00035699835205078124, 2.609375) (-0.00035233444213867186, 2.611328125) (-0.00034746636962890626, 2.61328125) (-0.00034240057373046876, 2.615234375) (-0.00033714459228515625, 2.6171875) (-0.0003317081909179687, 2.619140625) (-0.0003261021423339844, 2.62109375) (-0.0003203379211425781, 2.623046875) (-0.00031442794799804686, 2.625) (-0.0003083844299316406, 2.626953125) (-0.00030221859741210935, 2.62890625) (-0.0002959426574707031, 2.630859375) (-0.0002895699768066406, 2.6328125) (-0.00028311587524414063, 2.634765625) (-0.00027659811401367185, 2.63671875) (-0.00027003363037109374, 2.638671875) (-0.00026343850708007813, 2.640625) (-0.00025682647705078124, 2.642578125) (-0.00025021159362792966, 2.64453125) (-0.0002436129150390625, 2.646484375) (-0.00023704833984375, 2.6484375) (-0.00023053314208984374, 2.650390625) (-0.0002240780792236328, 2.65234375) (-0.00021768785095214842, 2.654296875) (-0.00021136825561523436, 2.65625) (-0.00020512863159179685, 2.658203125) (-0.00019898121643066406, 2.66015625) (-0.0001929376525878906, 2.662109375) (-0.00018700395202636718, 2.6640625) (-0.00018117660522460938, 2.666015625) (-0.00017544845581054686, 2.66796875) (-0.00016981565856933592, 2.669921875) (-0.0001642744445800781, 2.671875) (-0.00015883155822753905, 2.673828125) (-0.00015348631286621093, 2.67578125) (-0.00014821229553222656, 2.677734375) (-0.00014298915100097656, 2.6796875) (-0.00013779200744628905, 2.681640625) (-0.00013260731506347656, 2.68359375) (-0.00012746963500976562, 2.685546875) (-0.00012240295410156248, 2.6875) (-0.00011740365600585938, 2.689453125) (-0.00011246917724609375, 2.69140625) (-0.00010757686614990234, 2.693359375) (-0.00010270160675048828, 2.6953125) (-9.791226196289062e-05, 2.697265625) (-9.328797912597656e-05, 2.69921875) (-8.877543640136718e-05, 2.701171875) (-8.432901763916015e-05, 2.703125) (-7.985950469970703e-05, 2.705078125) (-7.524530029296874e-05, 2.70703125) (-7.059453582763672e-05, 2.708984375) (-6.60748062133789e-05, 2.7109375) (-6.166988754272461e-05, 2.712890625) (-5.731949996948242e-05, 2.71484375) (-5.310934448242187e-05, 2.716796875) (-4.9125087738037106e-05, 2.71875) (-4.565932464599609e-05, 2.720703125) (-4.3194782257080076e-05, 2.72265625) (-4.176079177856445e-05, 2.724609375) (-4.111553192138672e-05, 2.7265625) (-4.109477233886719e-05, 2.728515625) (-4.1452354431152344e-05, 2.73046875) (-4.179962921142578e-05, 2.732421875) (-4.182081985473633e-05, 2.734375) (-4.093829345703125e-05, 2.736328125) (-3.8161277770996094e-05, 2.73828125) (-3.293990325927734e-05, 2.740234375) (-2.526936721801758e-05, 2.7421875) (-1.5367029190063476e-05, 2.744140625) (-3.9012184143066404e-06, 2.74609375) (8.156852722167968e-06, 2.748046875) (2.008438491821289e-05, 2.75) (3.108306694030761e-05, 2.751953125) (3.989663696289062e-05, 2.75390625) (4.5512355804443357e-05, 2.755859375) (4.751737594604492e-05, 2.7578125) (4.5910930633544917e-05, 2.759765625) (4.142304611206055e-05, 2.76171875) (3.527975845336914e-05, 2.763671875) (2.8330896377563475e-05, 2.765625) (2.125075912475586e-05, 2.767578125) (1.4961229324340819e-05, 2.76953125) (1.0277018547058105e-05, 2.771484375) (7.651070594787598e-06, 2.7734375) (7.22607421875e-06, 2.775390625) (8.553005218505858e-06, 2.77734375) (1.0754919052124024e-05, 2.779296875) (1.3274882316589355e-05, 2.78125) (1.5804676055908202e-05, 2.783203125) (1.8016021728515625e-05, 2.78515625) (1.9657087326049805e-05, 2.787109375) (2.0563766479492187e-05, 2.7890625) (2.06651496887207e-05, 2.791015625) (2.0134391784667968e-05, 2.79296875) (1.933085060119629e-05, 2.794921875) (1.8463184356689453e-05, 2.796875) (1.759596061706543e-05, 2.798828125) (1.675563049316406e-05, 2.80078125) (1.5920153617858885e-05, 2.802734375) (1.5093925476074219e-05, 2.8046875) (1.4306940078735351e-05, 2.806640625) (1.3545878410339355e-05, 2.80859375) (1.276011276245117e-05, 2.810546875) (1.1932355880737304e-05, 2.8125) (1.1079248428344726e-05, 2.814453125) (1.0228449821472167e-05, 2.81640625) (9.425482749938964e-06, 2.818359375) (8.693674087524414e-06, 2.8203125) (8.026598930358887e-06, 2.822265625) (7.429205894470215e-06, 2.82421875) (6.918043136596679e-06, 2.826171875) (6.506386756896972e-06, 2.828125) (6.209229469299316e-06, 2.830078125) (6.040930271148682e-06, 2.83203125) (6.0072727203369135e-06, 2.833984375) (6.116708755493164e-06, 2.8359375) (6.383334159851074e-06, 2.837890625) (6.807929992675781e-06, 2.83984375) (7.380196571350097e-06, 2.841796875) (8.090730667114258e-06, 2.84375) (8.927441596984863e-06, 2.845703125) (9.87838363647461e-06, 2.84765625) (1.0934450149536132e-05, 2.849609375) (1.2083732604980469e-05, 2.8515625) (1.3312367439270019e-05, 2.853515625) (1.4609320640563964e-05, 2.85546875) (1.5964720726013184e-05, 2.857421875) (1.736763572692871e-05, 2.859375) (1.8807277679443358e-05, 2.861328125) (2.0269977569580076e-05, 2.86328125) (2.1739059448242186e-05, 2.865234375) (2.3200954437255857e-05, 2.8671875) (2.4644207000732422e-05, 2.869140625) (2.6056411743164062e-05, 2.87109375) (2.7427076339721677e-05, 2.873046875) (2.8739505767822263e-05, 2.875) (2.996962738037109e-05, 2.876953125) (3.1103725433349605e-05, 2.87890625) (3.213712310791015e-05, 2.880859375) (3.307010650634765e-05, 2.8828125) (3.3911376953125e-05, 2.884765625) (3.4666343688964844e-05, 2.88671875) (3.533356475830078e-05, 2.888671875) (3.592110061645508e-05, 2.890625) (3.644509124755859e-05, 2.892578125) (3.691122436523437e-05, 2.89453125) (3.731998825073242e-05, 2.896484375) (3.765625381469727e-05, 2.8984375) (3.7885604858398435e-05, 2.900390625) (3.7990604400634766e-05, 2.90234375) (3.796706390380859e-05, 2.904296875) (3.782222747802734e-05, 2.90625) (3.758198547363281e-05, 2.908203125) (3.725516891479492e-05, 2.91015625) (3.6831665039062496e-05, 2.912109375) (3.6302291870117185e-05, 2.9140625) (3.565299224853516e-05, 2.916015625) (3.4868499755859375e-05, 2.91796875) (3.394276428222656e-05, 2.919921875) (3.2848106384277345e-05, 2.921875) (3.153393173217773e-05, 2.923828125) (2.9985816955566403e-05, 2.92578125) (2.8216550827026365e-05, 2.927734375) (2.627398681640625e-05, 2.9296875) (2.4251972198486326e-05, 2.931640625) (2.2216384887695312e-05, 2.93359375) (2.0206327438354492e-05, 2.935546875) (1.8253616333007813e-05, 2.9375) (1.636983108520508e-05, 2.939453125) (1.458284854888916e-05, 2.94140625) (1.2942826271057128e-05, 2.943359375) (1.1489068984985352e-05, 2.9453125) (1.0254794120788574e-05, 2.947265625) (9.284479141235351e-06, 2.94921875) (8.619303703308106e-06, 2.951171875) (8.331462860107422e-06, 2.953125) (8.529314994812012e-06, 2.955078125) (9.269950866699219e-06, 2.95703125) (1.0568312644958496e-05, 2.958984375) (1.2396395683288573e-05, 2.9609375) (1.4667573928833007e-05, 2.962890625) (1.7323787689208984e-05, 2.96484375) (2.0338207244873044e-05, 2.966796875) (2.3680696487426757e-05, 2.96875) (2.733194923400879e-05, 2.970703125) (3.126491355895996e-05, 2.97265625) (3.5436290740966795e-05, 2.974609375) (3.982247161865234e-05, 2.9765625) (4.44185791015625e-05, 2.978515625) (4.920207214355469e-05, 2.98046875) (5.414524459838867e-05, 2.982421875) (5.919273376464843e-05, 2.984375) (6.425382995605468e-05, 2.986328125) (6.928147888183594e-05, 2.98828125) (7.426644134521485e-05, 2.990234375) (7.922884368896484e-05, 2.9921875) (8.423176574707031e-05, 2.994140625) (8.931452941894531e-05, 2.99609375) (9.448780059814453e-05, 2.998046875) (9.977237701416015e-05, 3.0) (0.00010518792724609374, 3.001953125) (0.00011075251770019531, 3.00390625) (0.00011649142456054687, 3.005859375) (0.00012240316772460936, 3.0078125) (0.00012845761108398437, 3.009765625) (0.00013463977050781248, 3.01171875) (0.00014094076538085937, 3.013671875) (0.0001473624267578125, 3.015625) (0.00015392742919921875, 3.017578125) (0.00016062454223632813, 3.01953125) (0.0001674112548828125, 3.021484375) (0.00017424053955078124, 3.0234375) (0.00018105067443847657, 3.025390625) (0.00018780184936523437, 3.02734375) (0.00019448487854003906, 3.029296875) (0.00020107797241210936, 3.03125) (0.00020755361938476561, 3.033203125) (0.00021389352416992187, 3.03515625) (0.0002200768127441406, 3.037109375) (0.0002261107940673828, 3.0390625) (0.00023203826904296873, 3.041015625) (0.00023788253784179687, 3.04296875) (0.00024365615844726562, 3.044921875) (0.0002493798828125, 3.046875) (0.0002550640411376953, 3.048828125) (0.00026075305175781246, 3.05078125) (0.00026652673339843747, 3.052734375) (0.0002724412841796875, 3.0546875) (0.00027854345703125, 3.056640625) (0.00028485775756835935, 3.05859375) (0.00029136663818359374, 3.060546875) (0.00029805868530273434, 3.0625) (0.0003049301452636719, 3.064453125) (0.0003119490966796875, 3.06640625) (0.0003190777587890625, 3.068359375) (0.0003262576904296875, 3.0703125) (0.0003333859252929687, 3.072265625) (0.00034038977050781247, 3.07421875) (0.0003472201538085937, 3.076171875) (0.00035380120849609376, 3.078125) (0.000360064453125, 3.080078125) (0.0003659080810546875, 3.08203125) (0.00037118902587890624, 3.083984375) (0.00037580551147460935, 3.0859375) (0.0003796748046875, 3.087890625) (0.0003827177734375, 3.08984375) (0.00038489816284179685, 3.091796875) (0.0003861904602050781, 3.09375) (0.00038656286621093747, 3.095703125) (0.00038604330444335933, 3.09765625) (0.0003846784057617187, 3.099609375) (0.0003824972534179687, 3.1015625) (0.00037958721923828125, 3.103515625) (0.0003760188598632812, 3.10546875) (0.00037183386230468747, 3.107421875) (0.00036713916015624997, 3.109375) (0.00036205181884765625, 3.111328125) (0.0003566722717285156, 3.11328125) (0.0003511411743164062, 3.115234375) (0.0003456398315429687, 3.1171875) (0.0003403346557617187, 3.119140625) (0.0003354169311523437, 3.12109375) (0.0003310801086425781, 3.123046875) (0.0003274266357421875, 3.125) (0.0003245387268066406, 3.126953125) (0.00032255261230468746, 3.12890625) (0.0003216253051757812, 3.130859375) (0.0003217353820800781, 3.1328125) (0.00032278125, 3.134765625) (0.0003249268798828125, 3.13671875) (0.0003282255249023437, 3.138671875) (0.00033266680908203126, 3.140625) (0.0003386405029296875, 3.142578125) (0.0003451273498535156, 3.14453125) (0.00035109942626953124, 3.146484375) (0.00035791381835937496, 3.1484375) (0.00036593853759765623, 3.150390625) (0.00037769796752929683, 3.15234375) (0.0003961983947753906, 3.154296875) (0.0004178667297363281, 3.15625) (0.0004402674560546875, 3.158203125) (0.00045980059814453126, 3.16015625) (0.0004715535278320312, 3.162109375) (0.0004794968566894531, 3.1640625) (0.0004869296875, 3.166015625) (0.0004960343627929688, 3.16796875) (0.0005106918945312499, 3.169921875) (0.0005279493408203125, 3.171875) (0.0005449024658203124, 3.173828125) (0.0005610438842773437, 3.17578125) (0.0005747194824218749, 3.177734375) (0.0005871027221679687, 3.1796875) (0.000599823486328125, 3.181640625) (0.0006129173583984375, 3.18359375) (0.0006264862060546875, 3.185546875) (0.0006402567749023438, 3.1875) (0.0006535496826171875, 3.189453125) (0.0006656130371093749, 3.19140625) (0.000675807861328125, 3.193359375) (0.0006833626098632813, 3.1953125) (0.00068708544921875, 3.197265625) (0.000687348876953125, 3.19921875) (0.0006864432983398437, 3.201171875) (0.0006858974609375, 3.203125) (0.0006877094116210938, 3.205078125) (0.0006910435791015625, 3.20703125) (0.0006904808349609375, 3.208984375) (0.0006850417480468749, 3.2109375) (0.000676306884765625, 3.212890625) (0.0006706815795898437, 3.21484375) (0.0006829998779296875, 3.216796875) (0.0007212906494140624, 3.21875) (0.0007890054931640625, 3.220703125) (0.0008844937744140625, 3.22265625) (0.00099100634765625, 3.224609375) (0.00109255419921875, 3.2265625) (0.001172545654296875, 3.228515625) (0.00121273388671875, 3.23046875) (0.0012118504638671875, 3.232421875) (0.0011756318359375, 3.234375) (0.001115595947265625, 3.236328125) (0.00105234423828125, 3.23828125) (0.0009962316284179687, 3.240234375) (0.0009501149291992187, 3.2421875) (0.0009134805908203124, 3.244140625) (0.0008790631713867188, 3.24609375) (0.0008437481079101562, 3.248046875) (0.0008094595336914062, 3.25) (0.0007784622802734374, 3.251953125) (0.0007534076538085937, 3.25390625) (0.0007345927734375, 3.255859375) (0.0007194775390625, 3.2578125) (0.0007051962890625, 3.259765625) (0.0006901155395507813, 3.26171875) (0.0006736947021484374, 3.263671875) (0.0006557117309570312, 3.265625) (0.0006358973388671875, 3.267578125) (0.0006141702880859375, 3.26953125) (0.0005907602539062499, 3.271484375) (0.0005665758666992187, 3.2734375) (0.00054308154296875, 3.275390625) (0.0005211612548828125, 3.27734375) (0.0005011478881835937, 3.279296875) (0.0004832550048828125, 3.28125) (0.0004675323791503906, 3.283203125) (0.0004539603576660156, 3.28515625) (0.0004424969177246094, 3.287109375) (0.0004328511352539062, 3.2890625) (0.0004244695129394531, 3.291015625) (0.0004169890441894531, 3.29296875) (0.0004102080383300781, 3.294921875) (0.0004039364318847656, 3.296875) (0.0003981114501953125, 3.298828125) (0.0003926653442382812, 3.30078125) (0.0003874667053222656, 3.302734375) (0.00038244531249999997, 3.3046875) (0.000377554931640625, 3.306640625) (0.00037268859863281246, 3.30859375) (0.00036777081298828125, 3.310546875) (0.00036276617431640624, 3.3125) (0.0003576270751953125, 3.314453125) (0.00035235986328125, 3.31640625) (0.00034699273681640624, 3.318359375) (0.000341521728515625, 3.3203125) (0.0003359656982421875, 3.322265625) (0.0003303580627441406, 3.32421875) (0.000324729248046875, 3.326171875) (0.0003191307983398437, 3.328125) (0.0003136009521484375, 3.330078125) (0.00030815118408203125, 3.33203125) (0.00030280978393554687, 3.333984375) (0.00029762155151367184, 3.3359375) (0.0002926478881835937, 3.337890625) (0.0002879706726074219, 3.33984375) (0.0002836382141113281, 3.341796875) (0.000279658447265625, 3.34375) (0.00027603118896484376, 3.345703125) (0.0002727421569824219, 3.34765625) (0.0002697738037109375, 3.349609375) (0.0002671141357421875, 3.3515625) (0.00026473376464843746, 3.353515625) (0.00026259005737304684, 3.35546875) (0.0002606487121582031, 3.357421875) (0.000258879150390625, 3.359375) (0.0002572590942382812, 3.361328125) (0.0002557780303955078, 3.36328125) (0.00025441531372070314, 3.365234375) (0.00025314108276367186, 3.3671875) (0.00025192041015625, 3.369140625) (0.0002507109985351562, 3.37109375) (0.00024948367309570314, 3.373046875) (0.0002482241516113281, 3.375) (0.0002469210510253906, 3.376953125) (0.0002455680847167969, 3.37890625) (0.00024416302490234374, 3.380859375) (0.0002427054443359375, 3.3828125) (0.0002412042541503906, 3.384765625) (0.00023967657470703123, 3.38671875) (0.00023813456726074218, 3.388671875) (0.0002365860137939453, 3.390625) (0.00023503656005859373, 3.392578125) (0.0002334884796142578, 3.39453125) (0.00023194740295410154, 3.396484375) (0.00023042233276367185, 3.3984375) (0.00022892218017578125, 3.400390625) (0.0002274568176269531, 3.40234375) (0.00022603509521484374, 3.404296875) (0.00022466433715820312, 3.40625) (0.00022335198974609373, 3.408203125) (0.00022210519409179686, 3.41015625) (0.00022092935180664062, 3.412109375) (0.000219828857421875, 3.4140625) (0.00021880601501464842, 3.416015625) (0.00021786079406738282, 3.41796875) (0.00021699423217773437, 3.419921875) (0.00021620800781249998, 3.421875) (0.000215503662109375, 3.423828125) (0.00021488310241699217, 3.42578125) (0.0002143475646972656, 3.427734375) (0.00021389732360839844, 3.4296875) (0.00021353292846679686, 3.431640625) (0.00021325469970703124, 3.43359375) (0.00021306173706054686, 3.435546875) (0.00021295220947265624, 3.4375) (0.00021292327880859373, 3.439453125) (0.00021297137451171873, 3.44140625) (0.0002130924072265625, 3.443359375) (0.00021328176879882813, 3.4453125) (0.00021353402709960937, 3.447265625) (0.00021384326171875, 3.44921875) (0.0002142030792236328, 3.451171875) (0.00021460697937011717, 3.453125) (0.00021504788208007812, 3.455078125) (0.000215518310546875, 3.45703125) (0.0002160101318359375, 3.458984375) (0.00021651492309570313, 3.4609375) (0.0002170238342285156, 3.462890625) (0.00021752775573730468, 3.46484375) (0.00021801722717285156, 3.466796875) (0.00021848240661621093, 3.46875) (0.00021891316223144531, 3.470703125) (0.00021929919433593748, 3.47265625) (0.0002196302490234375, 3.474609375) (0.00021989593505859374, 3.4765625) (0.00022008590698242186, 3.478515625) (0.00022018978881835938, 3.48046875) (0.00022019723510742186, 3.482421875) (0.00022009794616699218, 3.484375) (0.00021988172912597656, 3.486328125) (0.00021953863525390625, 3.48828125) (0.00021905885314941405, 3.490234375) (0.0002184327697753906, 3.4921875) (0.00021765093994140623, 3.494140625) (0.00021670413208007812, 3.49609375) (0.00021558358764648436, 3.498046875) (0.0002142811279296875, 3.5) (0.0002127889404296875, 3.501953125) (0.00021109970092773436, 3.50390625) (0.00020920660400390625, 3.505859375) (0.00020710342407226562, 3.5078125) (0.00020478465270996093, 3.509765625) (0.0002022454833984375, 3.51171875) (0.0001994818878173828, 3.513671875) (0.00019649057006835936, 3.515625) (0.00019326910400390625, 3.517578125) (0.00018981602478027344, 3.51953125) (0.00018613082885742186, 3.521484375) (0.00018221409606933593, 3.5234375) (0.00017806742858886718, 3.525390625) (0.0001736935119628906, 3.52734375) (0.0001690960693359375, 3.529296875) (0.00016427984619140626, 3.53125) (0.00015925079345703125, 3.533203125) (0.00015401580810546874, 3.53515625) (0.00014858290100097657, 3.537109375) (0.0001429610137939453, 3.5390625) (0.0001371600646972656, 3.541015625) (0.00013119090270996092, 3.54296875) (0.00012506526947021483, 3.544921875) (0.00011879570770263672, 3.546875) (0.00011239550018310546, 3.548828125) (0.00010587860870361328, 3.55078125) (9.925959777832031e-05, 3.552734375) (9.255360412597656e-05, 3.5546875) (8.577624511718749e-05, 3.556640625) (7.8943603515625e-05, 3.55859375) (7.207215118408203e-05, 3.560546875) (6.517864990234375e-05, 3.5625) (5.828013229370117e-05, 3.564453125) (5.139376831054687e-05, 3.56640625) (4.4536865234375e-05, 3.568359375) (3.7726684570312496e-05, 3.5703125) (3.0980358123779294e-05, 3.572265625) (2.4314750671386716e-05, 3.57421875) (1.774635887145996e-05, 3.576171875) (1.1291160583496093e-05, 3.578125) (4.964535236358642e-06, 3.580078125) (-1.2188572883605956e-06, 3.58203125) (-7.24517297744751e-06, 3.583984375) (-1.3101469039916992e-05, 3.5859375) (-1.877578353881836e-05, 3.587890625) (-2.425720977783203e-05, 3.58984375) (-2.953594398498535e-05, 3.591796875) (-3.460334777832031e-05, 3.59375) (-3.9451980590820314e-05, 3.595703125) (-4.407567977905273e-05, 3.59765625) (-4.8469539642333985e-05, 3.599609375) (-5.262997055053711e-05, 3.6015625) (-5.655466842651367e-05, 3.603515625) (-6.0242599487304684e-05, 3.60546875) (-6.369396209716797e-05, 3.607421875) (-6.691017150878906e-05, 3.609375) (-6.989379119873046e-05, 3.611328125) (-7.264849853515624e-05, 3.61328125) (-7.517902374267577e-05, 3.615234375) (-7.749110412597655e-05, 3.6171875) (-7.959144592285156e-05, 3.619140625) (-8.148769378662109e-05, 3.62109375) (-8.318840026855469e-05, 3.623046875) (-8.470301818847655e-05, 3.625) (-8.6041748046875e-05, 3.626953125) (-8.72155990600586e-05, 3.62890625) (-8.82362060546875e-05, 3.630859375) (-8.91158676147461e-05, 3.6328125) (-8.986732482910156e-05, 3.634765625) (-9.050373840332031e-05, 3.63671875) (-9.10385513305664e-05, 3.638671875) (-9.148533630371094e-05, 3.640625) (-9.185775756835937e-05, 3.642578125) (-9.216944885253906e-05, 3.64453125) (-9.243389892578125e-05, 3.646484375) (-9.266439819335937e-05, 3.6484375) (-9.287390899658203e-05, 3.650390625) (-9.307499694824218e-05, 3.65234375) (-9.327972412109375e-05, 3.654296875) (-9.349961090087891e-05, 3.65625) (-9.374553680419921e-05, 3.658203125) (-9.402765655517577e-05, 3.66015625) (-9.435531616210936e-05, 3.662109375) (-9.473699188232421e-05, 3.6640625) (-9.518028259277343e-05, 3.666015625) (-9.569192504882812e-05, 3.66796875) (-9.627770233154297e-05, 3.669921875) (-9.694251251220703e-05, 3.671875) (-9.769036865234374e-05, 3.673828125) (-9.85243911743164e-05, 3.67578125) (-9.944682312011719e-05, 3.677734375) (-0.00010045911407470703, 3.6796875) (-0.00010156188964843749, 3.681640625) (-0.00010275492095947265, 3.68359375) (-0.00010403715515136718, 3.685546875) (-0.00010540675354003906, 3.6875) (-0.0001068610610961914, 3.689453125) (-0.00010839666748046875, 3.69140625) (-0.00011000947570800781, 3.693359375) (-0.00011169462585449218, 3.6953125) (-0.00011344665527343749, 3.697265625) (-0.00011525953674316406, 3.69921875) (-0.00011712672424316406, 3.701171875) (-0.00011904124450683594, 3.703125) (-0.00012099580383300781, 3.705078125) (-0.00012298271179199218, 3.70703125) (-0.00012499407958984374, 3.708984375) (-0.00012702183532714844, 3.7109375) (-0.00012905776977539061, 3.712890625) (-0.00013109371948242187, 3.71484375) (-0.0001331214599609375, 3.716796875) (-0.00013513299560546875, 3.71875) (-0.00013712042236328125, 3.720703125) (-0.00013907615661621093, 3.72265625) (-0.00014099298095703126, 3.724609375) (-0.00014286418151855467, 3.7265625) (-0.00014468350219726562, 3.728515625) (-0.00014644528198242188, 3.73046875) (-0.00014814443969726561, 3.732421875) (-0.00014977653503417968, 3.734375) (-0.00015133773803710938, 3.736328125) (-0.00015282495117187499, 3.73828125) (-0.00015423565673828123, 3.740234375) (-0.00015556803894042968, 3.7421875) (-0.0001568208770751953, 3.744140625) (-0.0001579937286376953, 3.74609375) (-0.00015908671569824217, 3.748046875) (-0.00016010064697265624, 3.75) (-0.00016103704833984373, 3.751953125) (-0.00016189804077148436, 3.75390625) (-0.00016268637084960937, 3.755859375) (-0.00016340545654296875, 3.7578125) (-0.000164059326171875, 3.759765625) (-0.00016465248107910154, 3.76171875) (-0.00016519004821777342, 3.763671875) (-0.00016567761230468748, 3.765625) (-0.00016612127685546873, 3.767578125) (-0.00016652755737304686, 3.76953125) (-0.00016690330505371093, 3.771484375) (-0.00016725566101074218, 3.7734375) (-0.00016759199523925782, 3.775390625) (-0.00016791984558105468, 3.77734375) (-0.00016824691772460937, 3.779296875) (-0.00016858099365234374, 3.78125) (-0.00016892987060546875, 3.783203125) (-0.00016930137634277342, 3.78515625) (-0.00016970318603515624, 3.787109375) (-0.00017014270019531248, 3.7890625) (-0.00017062701416015625, 3.791015625) (-0.00017116281127929687, 3.79296875) (-0.0001717561798095703, 3.794921875) (-0.00017241259765625, 3.796875) (-0.0001731369171142578, 3.798828125) (-0.00017393325805664062, 3.80078125) (-0.00017480499267578123, 3.802734375) (-0.00017575477600097656, 3.8046875) (-0.00017678457641601562, 3.806640625) (-0.00017789552307128904, 3.80859375) (-0.00017908816528320313, 3.810546875) (-0.00018036241149902343, 3.8125) (-0.0001817173309326172, 3.814453125) (-0.00018315133666992186, 3.81640625) (-0.00018466207885742186, 3.818359375) (-0.00018624642944335936, 3.8203125) (-0.00018790060424804688, 3.822265625) (-0.00018962025451660155, 3.82421875) (-0.00019140008544921874, 3.826171875) (-0.00019323402404785155, 3.828125) (-0.0001951153106689453, 3.830078125) (-0.00019703652954101563, 3.83203125) (-0.00019898979187011717, 3.833984375) (-0.00020096704101562498, 3.8359375) (-0.00020295957946777344, 3.837890625) (-0.00020495855712890625, 3.83984375) (-0.00020695475769042968, 3.841796875) (-0.00020893847656249998, 3.84375) (-0.00021089987182617187, 3.845703125) (-0.0002128286437988281, 3.84765625) (-0.00021471414184570312, 3.849609375) (-0.00021654562377929686, 3.8515625) (-0.00021831243896484374, 3.853515625) (-0.00022000396728515624, 3.85546875) (-0.00022161027526855468, 3.857421875) (-0.00022312213134765624, 3.859375) (-0.00022453073120117187, 3.861328125) (-0.0002258281707763672, 3.86328125) (-0.00022700733947753906, 3.865234375) (-0.00022806187438964844, 3.8671875) (-0.00022898629760742187, 3.869140625) (-0.00022977610778808591, 3.87109375) (-0.00023042697143554688, 3.873046875) (-0.00023093522644042968, 3.875) (-0.00023129815673828124, 3.876953125) (-0.0002315139617919922, 3.87890625) (-0.00023158148193359374, 3.880859375) (-0.000231500244140625, 3.8828125) (-0.00023127029418945313, 3.884765625) (-0.00023089193725585937, 3.88671875) (-0.00023036740112304687, 3.888671875) (-0.00022970079040527343, 3.890625) (-0.00022889706420898436, 3.892578125) (-0.00022796241760253904, 3.89453125) (-0.00022690435791015623, 3.896484375) (-0.0002257308349609375, 3.8984375) (-0.0002244509582519531, 3.900390625) (-0.00022307562255859375, 3.90234375) (-0.0002216148986816406, 3.904296875) (-0.00022007853698730468, 3.90625) (-0.0002184765930175781, 3.908203125) (-0.00021681878662109375, 3.91015625) (-0.00021511634826660154, 3.912109375) (-0.00021338278198242187, 3.9140625) (-0.000211632080078125, 3.916015625) (-0.00020987921142578123, 3.91796875) (-0.00020814007568359375, 3.919921875) (-0.0002064290313720703, 3.921875) (-0.0002047620849609375, 3.923828125) (-0.00020315620422363281, 3.92578125) (-0.0002016225128173828, 3.927734375) (-0.00020017012023925782, 3.9296875) (-0.00019880467224121093, 3.931640625) (-0.00019752508544921874, 3.93359375) (-0.0001963359680175781, 3.935546875) (-0.0001952502899169922, 3.9375) (-0.00019428192138671874, 3.939453125) (-0.00019345129394531248, 3.94140625) (-0.0001927859649658203, 3.943359375) (-0.0001923077697753906, 3.9453125) (-0.00019204141235351562, 3.947265625) (-0.00019201449584960937, 3.94921875) (-0.00019223880004882812, 3.951171875) (-0.00019271948242187499, 3.953125) (-0.0001934527587890625, 3.955078125) (-0.00019442042541503905, 3.95703125) (-0.00019561297607421875, 3.958984375) (-0.0001970272216796875, 3.9609375) (-0.00019866094970703125, 3.962890625) (-0.00020052505493164063, 3.96484375) (-0.00020262211608886718, 3.966796875) (-0.0002049267578125, 3.96875) (-0.0002074057159423828, 3.970703125) (-0.0002100031280517578, 3.97265625) (-0.0002126266174316406, 3.974609375) (-0.00021519064331054687, 3.9765625) (-0.00021759945678710937, 3.978515625) (-0.00021974057006835936, 3.98046875) (-0.00022153778076171874, 3.982421875) (-0.00022293656921386717, 3.984375) (-0.00022390374755859374, 3.986328125) (-0.00022444755554199217, 3.98828125) (-0.00022457928466796873, 3.990234375) (-0.00022430210876464842, 3.9921875) (-0.00022362838745117186, 3.994140625) (-0.00022256265258789061, 3.99609375) (-0.0002211200714111328, 3.998046875) (-0.00021936471557617185, 4.0) (-0.0002173779296875, 4.001953125) (-0.0002152676544189453, 4.00390625) (-0.00021319094848632812, 4.005859375) (-0.0002113074951171875, 4.0078125) (-0.0002098023986816406, 4.009765625) (-0.00020888742065429687, 4.01171875) (-0.0002087357177734375, 4.013671875) (-0.00020946728515624998, 4.015625) (-0.00021114237976074219, 4.017578125) (-0.0002138061828613281, 4.01953125) (-0.00021751779174804687, 4.021484375) (-0.00022225958251953124, 4.0234375) (-0.00022791773986816406, 4.025390625) (-0.0002342779846191406, 4.02734375) (-0.0002410145263671875, 4.029296875) (-0.0002478235626220703, 4.03125) (-0.0002544146728515625, 4.033203125) (-0.0002603617248535156, 4.03515625) (-0.00026522955322265623, 4.037109375) (-0.0002687788391113281, 4.0390625) (-0.0002709623413085937, 4.041015625) (-0.0002720538024902344, 4.04296875) (-0.00027244992065429685, 4.044921875) (-0.00027251422119140624, 4.046875) (-0.0002729302673339844, 4.048828125) (-0.00027440353393554687, 4.05078125) (-0.0002771447143554687, 4.052734375) (-0.00028010778808593747, 4.0546875) (-0.00028083392333984374, 4.056640625) (-0.0002764161071777344, 4.05859375) (-0.0002654205932617187, 4.060546875) (-0.0002501836700439453, 4.0625) (-0.0002341710205078125, 4.064453125) (-0.00022019325256347655, 4.06640625) (-0.00020800357055664062, 4.068359375) (-0.00018832254028320312, 4.0703125) (-0.00015051953125, 4.072265625) (-8.5772705078125e-05, 4.07421875) (1.1443809509277343e-05, 4.076171875) (0.00012956411743164062, 4.078125) (0.0002502373504638672, 4.080078125) (0.000352374755859375, 4.08203125) (0.00041107861328125, 4.083984375) (0.00041890832519531247, 4.0859375) (0.0003783707580566406, 4.087890625) (0.00030010446166992184, 4.08984375) (0.000208846435546875, 4.091796875) (0.00012303636169433592, 4.09375) (5.759633636474609e-05, 4.095703125) (2.2138574600219724e-05, 4.09765625) (1.1139944076538085e-05, 4.099609375) (1.640676498413086e-05, 4.1015625) (2.7143226623535155e-05, 4.103515625) (3.272350692749023e-05, 4.10546875) (3.1204282760620116e-05, 4.107421875) (2.3920726776123046e-05, 4.109375) (1.414172077178955e-05, 4.111328125) (5.244073867797851e-06, 4.11328125) (-3.178000688552856e-06, 4.115234375) (-1.3183619499206542e-05, 4.1171875) (-2.6850555419921873e-05, 4.119140625) (-4.487057495117187e-05, 4.12109375) (-6.610687255859375e-05, 4.123046875) (-8.85721435546875e-05, 4.125) (-0.00011020510101318358, 4.126953125) (-0.00012994281005859374, 4.12890625) (-0.00014732269287109375, 4.130859375) (-0.00016200018310546876, 4.1328125) (-0.0001739271545410156, 4.134765625) (-0.0001831572265625, 4.13671875) (-0.0001899347686767578, 4.138671875) (-0.00019482794189453124, 4.140625) (-0.0001984597473144531, 4.142578125) (-0.00020122134399414062, 4.14453125) (-0.00020333094787597654, 4.146484375) (-0.00020491744995117188, 4.1484375) (-0.00020606170654296875, 4.150390625) (-0.00020691708374023438, 4.15234375) (-0.00020768176269531248, 4.154296875) (-0.00020849993896484374, 4.15625) (-0.00020945077514648438, 4.158203125) (-0.00021059674072265624, 4.16015625) (-0.0002120065460205078, 4.162109375) (-0.00021375607299804688, 4.1640625) (-0.000215927734375, 4.166015625) (-0.00021856272888183594, 4.16796875) (-0.00022163088989257811, 4.169921875) (-0.00022506649780273437, 4.171875) (-0.00022879016113281248, 4.173828125) (-0.00023272686767578123, 4.17578125) (-0.0002368301544189453, 4.177734375) (-0.0002410479736328125, 4.1796875) (-0.0002453003540039062, 4.181640625) (-0.0002494839782714844, 4.18359375) (-0.000253472412109375, 4.185546875) (-0.00025715426635742185, 4.1875) (-0.00026045962524414064, 4.189453125) (-0.0002633457641601562, 4.19140625) (-0.00026578070068359374, 4.193359375) (-0.00026774053955078126, 4.1953125) (-0.00026920904541015623, 4.197265625) (-0.0002701881408691406, 4.19921875) (-0.0002707109375, 4.201171875) (-0.00027082366943359374, 4.203125) (-0.0002705702209472656, 4.205078125) (-0.0002699871826171875, 4.20703125) (-0.00026910055541992184, 4.208984375) (-0.0002679416198730469, 4.2109375) (-0.0002665525207519531, 4.212890625) (-0.00026498510742187497, 4.21484375) (-0.00026329745483398434, 4.216796875) (-0.000261535400390625, 4.21875) (-0.0002597297058105469, 4.220703125) (-0.0002579044799804687, 4.22265625) (-0.00025607986450195314, 4.224609375) (-0.0002542736206054687, 4.2265625) (-0.00025250053405761715, 4.228515625) (-0.00025076576232910155, 4.23046875) (-0.000249063720703125, 4.232421875) (-0.0002473896026611328, 4.234375) (-0.00024574273681640625, 4.236328125) (-0.0002441257629394531, 4.23828125) (-0.0002425442199707031, 4.240234375) (-0.00024099990844726562, 4.2421875) (-0.00023949087524414062, 4.244140625) (-0.00023801400756835937, 4.24609375) (-0.00023656597900390623, 4.248046875) (-0.00023514576721191406, 4.25) (-0.00023375340270996093, 4.251953125) (-0.00023238751220703123, 4.25390625) (-0.00023104595947265623, 4.255859375) (-0.00022972680664062498, 4.2578125) (-0.00022842819213867186, 4.259765625) (-0.0002271496887207031, 4.26171875) (-0.0002258919677734375, 4.263671875) (-0.00022465319824218748, 4.265625) (-0.00022342964172363282, 4.267578125) (-0.00022221667480468749, 4.26953125) (-0.00022100852966308593, 4.271484375) (-0.00021979954528808594, 4.2734375) (-0.00021858438110351563, 4.275390625) (-0.0002173567657470703, 4.27734375) (-0.00021610984802246093, 4.279296875) (-0.0002148375244140625, 4.28125) (-0.00021353427124023435, 4.283203125) (-0.0002121951446533203, 4.28515625) (-0.00021081591796875, 4.287109375) (-0.0002093921203613281, 4.2890625) (-0.00020791937255859374, 4.291015625) (-0.0002063937530517578, 4.29296875) (-0.00020481149291992187, 4.294921875) (-0.0002031690673828125, 4.296875) (-0.00020146298217773437, 4.298828125) (-0.00019968963623046875, 4.30078125) (-0.00019784564208984374, 4.302734375) (-0.00019592807006835937, 4.3046875) (-0.00019393417358398436, 4.306640625) (-0.0001918614501953125, 4.30859375) (-0.0001897076416015625, 4.310546875) (-0.00018747058105468748, 4.3125) (-0.0001851486358642578, 4.314453125) (-0.0001827408447265625, 4.31640625) (-0.0001802468566894531, 4.318359375) (-0.00017766685485839844, 4.3203125) (-0.00017500173950195312, 4.322265625) (-0.00017225286865234373, 4.32421875) (-0.00016942237854003907, 4.326171875) (-0.00016651327514648437, 4.328125) (-0.00016352926635742186, 4.330078125) (-0.0001604746856689453, 4.33203125) (-0.00015735447692871092, 4.333984375) (-0.000154174072265625, 4.3359375) (-0.00015093954467773437, 4.337890625) (-0.00014765747070312498, 4.33984375) (-0.00014433494567871094, 4.341796875) (-0.00014097924804687498, 4.34375) (-0.0001375977783203125, 4.345703125) (-0.00013419808959960937, 4.34765625) (-0.00013078775024414062, 4.349609375) (-0.00012737442779541016, 4.3515625) (-0.00012396592712402344, 4.353515625) (-0.00012056995391845702, 4.35546875) (-0.0001171942138671875, 4.357421875) (-0.00011384645080566406, 4.359375) (-0.00011053448486328125, 4.361328125) (-0.00010726622009277343, 4.36328125) (-0.00010404957580566406, 4.365234375) (-0.00010089244079589843, 4.3671875) (-9.780265808105468e-05, 4.369140625) (-9.478785705566405e-05, 4.37109375) (-9.185557556152343e-05, 4.373046875) (-8.901311492919921e-05, 4.375) (-8.626737976074219e-05, 4.376953125) (-8.362490081787109e-05, 4.37890625) (-8.109164428710937e-05, 4.380859375) (-7.867290496826171e-05, 4.3828125) (-7.637332153320312e-05, 4.384765625) (-7.419680786132812e-05, 4.38671875) (-7.214646148681641e-05, 4.388671875) (-7.022451782226563e-05, 4.390625) (-6.843236541748047e-05, 4.392578125) (-6.677046966552733e-05, 4.39453125) (-6.523845672607421e-05, 4.396484375) (-6.38351821899414e-05, 4.3984375) (-6.255864715576171e-05, 4.400390625) (-6.140616607666016e-05, 4.40234375) (-6.037432861328125e-05, 4.404296875) (-5.945895385742187e-05, 4.40625) (-5.86552619934082e-05, 4.408203125) (-5.795792388916015e-05, 4.41015625) (-5.736112213134765e-05, 4.412109375) (-5.685871124267578e-05, 4.4140625) (-5.644422149658203e-05, 4.416015625) (-5.61108512878418e-05, 4.41796875) (-5.585155868530273e-05, 4.419921875) (-5.565909957885742e-05, 4.421875) (-5.5525978088378906e-05, 4.423828125) (-5.544462966918945e-05, 4.42578125) (-5.540727615356445e-05, 4.427734375) (-5.5405822753906246e-05, 4.4296875) (-5.543203735351562e-05, 4.431640625) (-5.5477634429931635e-05, 4.43359375) (-5.553414154052734e-05, 4.435546875) (-5.559326171875e-05, 4.4375) (-5.564687347412109e-05, 4.439453125) (-5.568693923950195e-05, 4.44140625) (-5.570575714111328e-05, 4.443359375) (-5.5696273803710936e-05, 4.4453125) (-5.565186309814453e-05, 4.447265625) (-5.556658935546875e-05, 4.44921875) (-5.54354133605957e-05, 4.451171875) (-5.52538833618164e-05, 4.453125) (-5.501834106445312e-05, 4.455078125) (-5.472612380981445e-05, 4.45703125) (-5.437518310546875e-05, 4.458984375) (-5.39640998840332e-05, 4.4609375) (-5.3492233276367185e-05, 4.462890625) (-5.2959400177001954e-05, 4.46484375) (-5.2366016387939454e-05, 4.466796875) (-5.1713439941406247e-05, 4.46875) (-5.1003684997558593e-05, 4.470703125) (-5.0239433288574214e-05, 4.47265625) (-4.942409515380859e-05, 4.474609375) (-4.856141662597656e-05, 4.4765625) (-4.765552520751953e-05, 4.478515625) (-4.6711166381835935e-05, 4.48046875) (-4.5733226776123044e-05, 4.482421875) (-4.472679901123047e-05, 4.484375) (-4.369733428955078e-05, 4.486328125) (-4.26501350402832e-05, 4.48828125) (-4.1590641021728516e-05, 4.490234375) (-4.052490234375e-05, 4.4921875) (-3.945910263061523e-05, 4.494140625) (-3.8399497985839844e-05, 4.49609375) (-3.735291290283203e-05, 4.498046875) (-3.6326045989990236e-05, 4.5) (-3.5325294494628903e-05, 4.501953125) (-3.435749816894531e-05, 4.50390625) (-3.342918014526367e-05, 4.505859375) (-3.254599380493164e-05, 4.5078125) (-3.171347427368164e-05, 4.509765625) (-3.093656730651855e-05, 4.51171875) (-3.0218650817871093e-05, 4.513671875) (-2.9562488555908202e-05, 4.515625) (-2.896991157531738e-05, 4.517578125) (-2.8440940856933594e-05, 4.51953125) (-2.7975494384765625e-05, 4.521484375) (-2.757382583618164e-05, 4.5234375) (-2.723531913757324e-05, 4.525390625) (-2.6959396362304686e-05, 4.52734375) (-2.6745925903320312e-05, 4.529296875) (-2.6593454360961914e-05, 4.53125) (-2.6500341415405272e-05, 4.533203125) (-2.6465444564819336e-05, 4.53515625) (-2.648543167114258e-05, 4.537109375) (-2.655507659912109e-05, 4.5390625) (-2.666788101196289e-05, 4.541015625) (-2.6814489364624023e-05, 4.54296875) (-2.6984710693359375e-05, 4.544921875) (-2.716989517211914e-05, 4.546875) (-2.7361053466796875e-05, 4.548828125) (-2.754970932006836e-05, 4.55078125) (-2.7729040145874023e-05, 4.552734375) (-2.789070129394531e-05, 4.5546875) (-2.802806282043457e-05, 4.556640625) (-2.8138488769531247e-05, 4.55859375) (-2.8216030120849607e-05, 4.560546875) (-2.825287628173828e-05, 4.5625) (-2.823944854736328e-05, 4.564453125) (-2.8158256530761718e-05, 4.56640625) (-2.7994401931762693e-05, 4.568359375) (-2.7743900299072264e-05, 4.5703125) (-2.7405208587646483e-05, 4.572265625) (-2.6982032775878904e-05, 4.57421875) (-2.6488040924072265e-05, 4.576171875) (-2.5931884765624998e-05, 4.578125) (-2.5323369979858397e-05, 4.580078125) (-2.4683177947998046e-05, 4.58203125) (-2.4024078369140623e-05, 4.583984375) (-2.3350481033325194e-05, 4.5859375) (-2.2660629272460935e-05, 4.587890625) (-2.1933916091918945e-05, 4.58984375) (-2.1146800994873047e-05, 4.591796875) (-2.0290044784545898e-05, 4.59375) (-1.936336898803711e-05, 4.595703125) (-1.8380422592163086e-05, 4.59765625) (-1.735677719116211e-05, 4.599609375) (-1.6284698486328125e-05, 4.6015625) (-1.5149663925170899e-05, 4.603515625) (-1.3937931060791015e-05, 4.60546875) (-1.2618939399719238e-05, 4.607421875) (-1.1170951843261719e-05, 4.609375) (-9.573676109313965e-06, 4.611328125) (-7.777416229248046e-06, 4.61328125) (-5.744808197021484e-06, 4.615234375) (-3.4706490039825437e-06, 4.6171875) (-9.658378362655638e-07, 4.619140625) (1.7224072217941284e-06, 4.62109375) (4.523322105407715e-06, 4.623046875) (7.396972179412842e-06, 4.625) (1.0325806617736815e-05, 4.626953125) (1.3295042037963866e-05, 4.62890625) (1.6291400909423827e-05, 4.630859375) (1.926961326599121e-05, 4.6328125) (2.2162391662597654e-05, 4.634765625) (2.491184616088867e-05, 4.63671875) (2.7453487396240232e-05, 4.638671875) (2.9730182647705078e-05, 4.640625) (3.168826103210449e-05, 4.642578125) (3.3236412048339844e-05, 4.64453125) (3.42878532409668e-05, 4.646484375) (3.4805709838867186e-05, 4.6484375) (3.47803840637207e-05, 4.650390625) (3.423891830444336e-05, 4.65234375) (3.324720764160156e-05, 4.654296875) (3.183129119873047e-05, 4.65625) (2.997945213317871e-05, 4.658203125) (2.7701414108276364e-05, 4.66015625) (2.5021270751953125e-05, 4.662109375) (2.199626350402832e-05, 4.6640625) (1.8727157592773438e-05, 4.666015625) (1.5308589935302733e-05, 4.66796875) (1.1817028999328613e-05, 4.669921875) (8.327835083007812e-06, 4.671875) (4.917837619781494e-06, 4.673828125) (1.6874034404754639e-06, 4.67578125) (-1.25410795211792e-06, 4.677734375) (-3.840759754180908e-06, 4.6796875) (-6.040438652038574e-06, 4.681640625) (-7.838666915893555e-06, 4.68359375) (-9.247747421264648e-06, 4.685546875) (-1.024340534210205e-05, 4.6875) (-1.075624656677246e-05, 4.689453125) (-1.074939727783203e-05, 4.69140625) (-1.021925163269043e-05, 4.693359375) (-9.188413619995118e-06, 4.6953125) (-7.729203701019287e-06, 4.697265625) (-5.920569896697998e-06, 4.69921875) (-3.8061041831970215e-06, 4.701171875) (-1.431673765182495e-06, 4.703125) (1.148095965385437e-06, 4.705078125) (3.880889654159546e-06, 4.70703125) (6.704276084899902e-06, 4.708984375) (9.579792022705078e-06, 4.7109375) (1.2503522872924805e-05, 4.712890625) (1.547287654876709e-05, 4.71484375) (1.8486045837402344e-05, 4.716796875) (2.1518394470214844e-05, 4.71875) (2.4510074615478514e-05, 4.720703125) (2.7422016143798828e-05, 4.72265625) (3.02501220703125e-05, 4.724609375) (3.300446319580078e-05, 4.7265625) (3.572711181640625e-05, 4.728515625) (3.8475746154785155e-05, 4.73046875) (4.127968597412109e-05, 4.732421875) (4.4169960021972654e-05, 4.734375) (4.718891906738281e-05, 4.736328125) (5.0363159179687496e-05, 4.73828125) (5.372076034545898e-05, 4.740234375) (5.728341293334961e-05, 4.7421875) (6.10469970703125e-05, 4.744140625) (6.500636291503907e-05, 4.74609375) (6.916752624511718e-05, 4.748046875) (7.354129028320312e-05, 4.75) (7.815196990966797e-05, 4.751953125) (8.302294921875e-05, 4.75390625) (8.815559387207031e-05, 4.755859375) (9.354574584960937e-05, 4.7578125) (9.918225860595703e-05, 4.759765625) (0.00010503617858886718, 4.76171875) (0.00011108479309082031, 4.763671875) (0.00011730690002441405, 4.765625) (0.00012366970825195312, 4.767578125) (0.0001301443634033203, 4.76953125) (0.00013670309448242187, 4.771484375) (0.00014330734252929688, 4.7734375) (0.00014992221069335936, 4.775390625) (0.00015652395629882812, 4.77734375) (0.0001630803680419922, 4.779296875) (0.0001695625305175781, 4.78125) (0.0001759475402832031, 4.783203125) (0.00018220018005371094, 4.78515625) (0.0001882983703613281, 4.787109375) (0.00019423234558105468, 4.7890625) (0.00019998434448242186, 4.791015625) (0.00020554945373535156, 4.79296875) (0.00021093341064453125, 4.794921875) (0.00021613243103027344, 4.796875) (0.0002211566162109375, 4.798828125) (0.00022604278564453123, 4.80078125) (0.00023082568359374998, 4.802734375) (0.00023555772399902342, 4.8046875) (0.00024031329345703125, 4.806640625) (0.00024514239501953125, 4.80859375) (0.0002501016845703125, 4.810546875) (0.0002552571105957031, 4.8125) (0.00026065148925781247, 4.814453125) (0.00026633001708984376, 4.81640625) (0.0002723187255859375, 4.818359375) (0.0002786077575683594, 4.8203125) (0.0002851895141601562, 4.822265625) (0.0002920538330078125, 4.82421875) (0.00029916619873046873, 4.826171875) (0.0003064925842285156, 4.828125) (0.0003139767150878906, 4.830078125) (0.00032149374389648435, 4.83203125) (0.0003289118957519531, 4.833984375) (0.000336091552734375, 4.8359375) (0.00034284835815429684, 4.837890625) (0.00034902246093749997, 4.83984375) (0.0003544540710449219, 4.841796875) (0.00035894525146484374, 4.84375) (0.0003623130798339844, 4.845703125) (0.000364396484375, 4.84765625) (0.00036506137084960934, 4.849609375) (0.00036421981811523435, 4.8515625) (0.00036181735229492187, 4.853515625) (0.00035775491333007813, 4.85546875) (0.00035190350341796875, 4.857421875) (0.0003442172241210937, 4.859375) (0.00033477743530273437, 4.861328125) (0.00032390307617187497, 4.86328125) (0.00031206884765624997, 4.865234375) (0.0002997088623046875, 4.8671875) (0.0002872633056640625, 4.869140625) (0.0002752821044921875, 4.87109375) (0.00026438409423828124, 4.873046875) (0.00025500283813476563, 4.875) (0.0002472607727050781, 4.876953125) (0.00024060702514648436, 4.87890625) (0.00023402252197265625, 4.880859375) (0.00022682664489746094, 4.8828125) (0.00021816897583007812, 4.884765625) (0.00020696185302734375, 4.88671875) (0.00019277024841308593, 4.888671875) (0.0001754873809814453, 4.890625) (0.00015652874755859374, 4.892578125) (0.00014018431091308592, 4.89453125) (0.00012945843505859374, 4.896484375) (0.0001255637512207031, 4.8984375) (0.0001287923583984375, 4.900390625) (0.00013534739685058594, 4.90234375) (0.00014525772094726563, 4.904296875) (0.00016441766357421875, 4.90625) (0.00019863922119140625, 4.908203125) (0.0002576346435546875, 4.91015625) (0.0003461413269042969, 4.912109375) (0.0004568539428710937, 4.9140625) (0.0005781091308593749, 4.916015625) (0.00069179638671875, 4.91796875) (0.0007780110473632813, 4.919921875) (0.000825956298828125, 4.921875) (0.0008316312255859375, 4.923828125) (0.000796521484375, 4.92578125) (0.0007305922851562499, 4.927734375) (0.0006471368408203124, 4.9296875) (0.0005591129760742187, 4.931640625) (0.0004822738647460937, 4.93359375) (0.00042708798217773437, 4.935546875) (0.00039440551757812496, 4.9375) (0.00038012948608398436, 4.939453125) (0.00037321530151367187, 4.94140625) (0.0003637752685546875, 4.943359375) (0.00034943859863281247, 4.9453125) (0.0003321600341796875, 4.947265625) (0.000318334716796875, 4.94921875) (0.0003129559326171875, 4.951171875) (0.0003165357971191406, 4.953125) (0.0003272125244140625, 4.955078125) (0.0003409967346191406, 4.95703125) (0.00035492816162109375, 4.958984375) (0.0003677707824707031, 4.9609375) (0.00037862646484375, 4.962890625) (0.00038736096191406246, 4.96484375) (0.00039348046875, 4.966796875) (0.0003969150390625, 4.96875) (0.0003991642761230469, 4.970703125) (0.00039997808837890624, 4.97265625) (0.0003980100708007812, 4.974609375) (0.0003909135131835937, 4.9765625) (0.0003733998413085937, 4.978515625) (0.000346464111328125, 4.98046875) (0.0003173170166015625, 4.982421875) (0.000293302001953125, 4.984375) (0.0002847991027832031, 4.986328125) (0.00029320877075195313, 4.98828125) (0.00030922912597656246, 4.990234375) (0.00032520281982421873, 4.9921875) (0.00033258029174804685, 4.994140625) (0.0003289700317382812, 4.99609375) (0.0003209825439453125, 4.998046875) (0.00031264175415039063, 5.0) (0.0003064534912109375, 5.001953125) (0.00030335174560546874, 5.00390625) (0.000300569580078125, 5.005859375) (0.000297000732421875, 5.0078125) (0.0002932710571289062, 5.009765625) (0.0002895333251953125, 5.01171875) (0.00028623724365234375, 5.013671875) (0.0002835392456054687, 5.015625) (0.000281007080078125, 5.017578125) (0.0002785092468261719, 5.01953125) (0.00027618054199218746, 5.021484375) (0.0002739914855957031, 5.0234375) (0.000271844970703125, 5.025390625) (0.00026972467041015626, 5.02734375) (0.00026762713623046874, 5.029296875) (0.00026559097290039063, 5.03125) (0.000263716796875, 5.033203125) (0.0002620116577148437, 5.03515625) (0.00026040338134765623, 5.037109375) (0.0002588493957519531, 5.0390625) (0.000257315185546875, 5.041015625) (0.00025577899169921875, 5.04296875) (0.0002542416076660156, 5.044921875) (0.0002526931457519531, 5.046875) (0.0002511213684082031, 5.048828125) (0.0002495249786376953, 5.05078125) (0.00024789962768554687, 5.052734375) (0.000246240234375, 5.0546875) (0.00024454101562499997, 5.056640625) (0.0002427891845703125, 5.05859375) (0.0002409749755859375, 5.060546875) (0.00023909120178222654, 5.0625) (0.00023712988281249998, 5.064453125) (0.00023509120178222655, 5.06640625) (0.00023298098754882812, 5.068359375) (0.00023080618286132812, 5.0703125) (0.0002285786895751953, 5.072265625) (0.0002263095703125, 5.07421875) (0.000224005615234375, 5.076171875) (0.0002216738586425781, 5.078125) (0.00021931979370117186, 5.080078125) (0.00021694696044921875, 5.08203125) (0.00021456120300292967, 5.083984375) (0.00021216966247558593, 5.0859375) (0.00020977928161621093, 5.087890625) (0.00020739811706542967, 5.08984375) (0.00020503514099121093, 5.091796875) (0.0002026994171142578, 5.09375) (0.00020040142822265624, 5.095703125) (0.00019815226745605467, 5.09765625) (0.00019596191406249998, 5.099609375) (0.00019383934020996094, 5.1015625) (0.0001917930908203125, 5.103515625) (0.00018983139038085937, 5.10546875) (0.00018796289062499998, 5.107421875) (0.00018619700622558592, 5.109375) (0.00018454193115234374, 5.111328125) (0.00018300473022460936, 5.11328125) (0.0001815919189453125, 5.115234375) (0.000180308837890625, 5.1171875) (0.00017916136169433594, 5.119140625) (0.0001781562957763672, 5.12109375) (0.00017729867553710937, 5.123046875) (0.00017659169006347655, 5.125) (0.00017603758239746094, 5.126953125) (0.00017563681030273437, 5.12890625) (0.00017538916015625, 5.130859375) (0.00017529476928710938, 5.1328125) (0.00017535092163085936, 5.134765625) (0.000175552490234375, 5.13671875) (0.0001758929443359375, 5.138671875) (0.00017636352539062499, 5.140625) (0.00017695742797851563, 5.142578125) (0.0001776700744628906, 5.14453125) (0.0001784962158203125, 5.146484375) (0.0001794310607910156, 5.1484375) (0.00018046505737304687, 5.150390625) (0.00018158285522460938, 5.15234375) (0.00018277059936523438, 5.154296875) (0.00018401583862304687, 5.15625) (0.00018530528259277343, 5.158203125) (0.000186626708984375, 5.16015625) (0.00018796554565429687, 5.162109375) (0.0001893033447265625, 5.1640625) (0.00019062649536132813, 5.166015625) (0.0001919255676269531, 5.16796875) (0.00019319187927246094, 5.169921875) (0.00019441976928710937, 5.171875) (0.00019559518432617185, 5.173828125) (0.00019669708251953124, 5.17578125) (0.00019770248413085936, 5.177734375) (0.00019858297729492187, 5.1796875) (0.00019932733154296874, 5.181640625) (0.00019994032287597657, 5.18359375) (0.0002004270782470703, 5.185546875) (0.00020080162048339843, 5.1875) (0.00020105693054199217, 5.189453125) (0.0002011580352783203, 5.19140625) (0.0002010882110595703, 5.193359375) (0.00020084091186523437, 5.1953125) (0.00020040518188476562, 5.197265625) (0.00019979702758789062, 5.19921875) (0.00019898228454589843, 5.201171875) (0.0001978447265625, 5.203125) (0.0001964012451171875, 5.205078125) (0.00019478195190429686, 5.20703125) (0.00019309762573242186, 5.208984375) (0.00019151275634765624, 5.2109375) (0.0001900095977783203, 5.212890625) (0.00018829486083984375, 5.21484375) (0.00018625045776367186, 5.216796875) (0.00018396273803710937, 5.21875) (0.00018126414489746094, 5.220703125) (0.0001778463439941406, 5.22265625) (0.00017336318969726563, 5.224609375) (0.000167260009765625, 5.2265625) (0.00015952375793457031, 5.228515625) (0.0001508175506591797, 5.23046875) (0.00014150602722167967, 5.232421875) (0.00013169053649902344, 5.234375) (0.0001217082061767578, 5.236328125) (0.00011190495300292968, 5.23828125) (0.00010278414154052734, 5.240234375) (9.521273040771484e-05, 5.2421875) (8.927981567382812e-05, 5.244140625) (8.419601440429687e-05, 5.24609375) (7.94837417602539e-05, 5.248046875) (7.486544036865235e-05, 5.25) (7.001602172851562e-05, 5.251953125) (6.482193756103515e-05, 5.25390625) (5.8926750183105467e-05, 5.255859375) (5.1588294982910157e-05, 5.2578125) (4.2702796936035154e-05, 5.259765625) (3.2824974060058594e-05, 5.26171875) (2.2319068908691407e-05, 5.263671875) (1.1472213745117186e-05, 5.265625) (4.4967412948608396e-07, 5.267578125) (-1.088627815246582e-05, 5.26953125) (-2.2477760314941406e-05, 5.271484375) (-3.399807739257812e-05, 5.2734375) (-4.538119125366211e-05, 5.275390625) (-5.679545593261718e-05, 5.27734375) (-6.835286712646484e-05, 5.279296875) (-8.017291259765625e-05, 5.28125) (-9.225886535644531e-05, 5.283203125) (-0.00010442206573486328, 5.28515625) (-0.00011652243041992187, 5.287109375) (-0.00012850721740722656, 5.2890625) (-0.00014029522705078125, 5.291015625) (-0.00015180130004882812, 5.29296875) (-0.00016293673706054687, 5.294921875) (-0.00017356776428222655, 5.296875) (-0.00018356362915039062, 5.298828125) (-0.00019280996704101563, 5.30078125) (-0.00020120593261718748, 5.302734375) (-0.00020868630981445312, 5.3046875) (-0.0002152133331298828, 5.306640625) (-0.00022075946044921874, 5.30859375) (-0.00022530865478515624, 5.310546875) (-0.0002288784942626953, 5.3125) (-0.000231520751953125, 5.314453125) (-0.00023333441162109374, 5.31640625) (-0.00023445567321777342, 5.318359375) (-0.00023499717712402343, 5.3203125) (-0.00023503854370117186, 5.322265625) (-0.00023463821411132813, 5.32421875) (-0.00023385327148437498, 5.326171875) (-0.00023276141357421874, 5.328125) (-0.00023146745300292967, 5.330078125) (-0.00023008975219726563, 5.33203125) (-0.00022871792602539062, 5.333984375) (-0.00022741616821289062, 5.3359375) (-0.0002262350616455078, 5.337890625) (-0.00022521664428710937, 5.33984375) (-0.0002244025421142578, 5.341796875) (-0.00022380859375, 5.34375) (-0.00022341624450683594, 5.345703125) (-0.00022316751098632812, 5.34765625) (-0.00022298162841796873, 5.349609375) (-0.00022280369567871091, 5.3515625) (-0.00022260717773437498, 5.353515625) (-0.00022238168334960936, 5.35546875) (-0.00022212138366699218, 5.357421875) (-0.00022181231689453123, 5.359375) (-0.00022143035888671874, 5.361328125) (-0.00022095413208007812, 5.36328125) (-0.0002203819580078125, 5.365234375) (-0.000219716064453125, 5.3671875) (-0.0002189579162597656, 5.369140625) (-0.00021810839843749999, 5.37109375) (-0.00021716412353515625, 5.373046875) (-0.00021613577270507812, 5.375) (-0.00021505197143554687, 5.376953125) (-0.0002139575958251953, 5.37890625) (-0.00021290374755859374, 5.380859375) (-0.00021192675781249998, 5.3828125) (-0.00021104830932617186, 5.384765625) (-0.0002102823791503906, 5.38671875) (-0.0002096389465332031, 5.388671875) (-0.00020912651062011717, 5.390625) (-0.00020875184631347654, 5.392578125) (-0.0002085135498046875, 5.39453125) (-0.0002084009552001953, 5.396484375) (-0.00020840602111816406, 5.3984375) (-0.00020852456665039062, 5.400390625) (-0.00020875421142578125, 5.40234375) (-0.00020909497070312498, 5.404296875) (-0.00020954197692871093, 5.40625) (-0.0002100845947265625, 5.408203125) (-0.00021070947265625, 5.41015625) (-0.00021140296936035156, 5.412109375) (-0.00021215377807617188, 5.4140625) (-0.0002129525146484375, 5.416015625) (-0.00021379028320312498, 5.41796875) (-0.00021465817260742188, 5.419921875) (-0.00021554864501953125, 5.421875) (-0.00021645611572265625, 5.423828125) (-0.0002173778839111328, 5.42578125) (-0.00021831301879882812, 5.427734375) (-0.0002192586975097656, 5.4296875) (-0.00022021055603027343, 5.431640625) (-0.00022116363525390625, 5.43359375) (-0.00022211251831054686, 5.435546875) (-0.00022305229187011716, 5.4375) (-0.00022397865295410154, 5.439453125) (-0.00022488681030273438, 5.44140625) (-0.00022577191162109373, 5.443359375) (-0.0002266305236816406, 5.4453125) (-0.00022746041870117187, 5.447265625) (-0.00022826055908203123, 5.44921875) (-0.00022903106689453124, 5.451171875) (-0.00022977255249023436, 5.453125) (-0.00023048587036132812, 5.455078125) (-0.00023117253112792967, 5.45703125) (-0.00023183441162109373, 5.458984375) (-0.00023247340393066406, 5.4609375) (-0.00023309123229980469, 5.462890625) (-0.00023368943786621093, 5.46484375) (-0.00023426931762695312, 5.466796875) (-0.0002348321838378906, 5.46875) (-0.00023537945556640624, 5.470703125) (-0.00023591278076171875, 5.47265625) (-0.00023643368530273435, 5.474609375) (-0.00023694346618652342, 5.4765625) (-0.00023744338989257813, 5.478515625) (-0.00023793458557128905, 5.48046875) (-0.00023841798400878905, 5.482421875) (-0.00023889413452148436, 5.484375) (-0.00023936309814453124, 5.486328125) (-0.00023982423400878904, 5.48828125) (-0.00024027670288085935, 5.490234375) (-0.00024071978759765625, 5.4921875) (-0.00024115292358398437, 5.494140625) (-0.00024157525634765624, 5.49609375) (-0.0002419861602783203, 5.498046875) (-0.00024238494873046873, 5.5) (-0.00024277093505859374, 5.501953125) (-0.00024314340209960936, 5.50390625) (-0.00024350140380859374, 5.505859375) (-0.00024384307861328124, 5.5078125) (-0.0002441658020019531, 5.509765625) (-0.0002444664306640625, 5.51171875) (-0.00024474070739746094, 5.513671875) (-0.0002449835815429687, 5.515625) (-0.0002451897430419922, 5.517578125) (-0.0002453533020019531, 5.51953125) (-0.0002454686737060547, 5.521484375) (-0.0002455308837890625, 5.5234375) (-0.0002455355224609375, 5.525390625) (-0.0002454788818359375, 5.52734375) (-0.00024535845947265626, 5.529296875) (-0.0002451727600097656, 5.53125) (-0.00024492047119140624, 5.533203125) (-0.00024460052490234374, 5.53515625) (-0.0002442109985351562, 5.537109375) (-0.00024374929809570312, 5.5390625) (-0.00024321203613281248, 5.541015625) (-0.00024259471130371092, 5.54296875) (-0.00024189245605468748, 5.544921875) (-0.0002411002197265625, 5.546875) (-0.00024021401977539062, 5.548828125) (-0.0002392311096191406, 5.55078125) (-0.0002381502990722656, 5.552734375) (-0.00023697093200683591, 5.5546875) (-0.00023569427490234375, 5.556640625) (-0.00023432398986816404, 5.55859375) (-0.0002328618469238281, 5.560546875) (-0.00023130844116210937, 5.5625) (-0.00022966131591796874, 5.564453125) (-0.00022791397094726562, 5.56640625) (-0.00022606333923339843, 5.568359375) (-0.00022411146545410154, 5.5703125) (-0.00022206571960449217, 5.572265625) (-0.00021993890380859373, 5.57421875) (-0.00021775172424316405, 5.576171875) (-0.00021553082275390623, 5.578125) (-0.0002133050537109375, 5.580078125) (-0.00021110545349121092, 5.58203125) (-0.00020895573425292968, 5.583984375) (-0.00020687179565429686, 5.5859375) (-0.0002048572998046875, 5.587890625) (-0.0002029029541015625, 5.58984375) (-0.00020099713134765624, 5.591796875) (-0.00019912548828125, 5.59375) (-0.00019728594970703123, 5.595703125) (-0.0001954908447265625, 5.59765625) (-0.00019375042724609375, 5.599609375) (-0.00019207107543945312, 5.6015625) (-0.0001904527893066406, 5.603515625) (-0.00018888966369628906, 5.60546875) (-0.00018736045837402344, 5.607421875) (-0.00018583155822753905, 5.609375) (-0.00018425881958007812, 5.611328125) (-0.0001825863037109375, 5.61328125) (-0.00018077622985839843, 5.615234375) (-0.0001788131103515625, 5.6171875) (-0.00017671237182617186, 5.619140625) (-0.00017451968383789062, 5.62109375) (-0.00017229594421386718, 5.623046875) (-0.0001701180419921875, 5.625) (-0.0001680449676513672, 5.626953125) (-0.00016611697387695313, 5.62890625) (-0.00016437106323242186, 5.630859375) (-0.0001628365936279297, 5.6328125) (-0.00016154229736328125, 5.634765625) (-0.00016051715087890623, 5.63671875) (-0.0001598065185546875, 5.638671875) (-0.00015947076416015623, 5.640625) (-0.00015959350585937498, 5.642578125) (-0.00016027941894531248, 5.64453125) (-0.00016160568237304687, 5.646484375) (-0.00016361672973632811, 5.6484375) (-0.00016631178283691407, 5.650390625) (-0.00016964865112304686, 5.65234375) (-0.00017355249023437498, 5.654296875) (-0.00017791232299804686, 5.65625) (-0.00018262103271484374, 5.658203125) (-0.00018757373046874998, 5.66015625) (-0.00019267333984375, 5.662109375) (-0.0001978443603515625, 5.6640625) (-0.0002030189208984375, 5.666015625) (-0.00020813272094726562, 5.66796875) (-0.00021310902404785156, 5.669921875) (-0.00021785650634765624, 5.671875) (-0.00022225445556640623, 5.673828125) (-0.00022616664123535155, 5.67578125) (-0.00022948495483398435, 5.677734375) (-0.00023213236999511716, 5.6796875) (-0.00023407687377929686, 5.681640625) (-0.0002353210906982422, 5.68359375) (-0.00023591212463378906, 5.685546875) (-0.0002359409484863281, 5.6875) (-0.00023550604248046873, 5.689453125) (-0.0002347383117675781, 5.69140625) (-0.0002337617492675781, 5.693359375) (-0.00023267149353027342, 5.6953125) (-0.00023158285522460937, 5.697265625) (-0.00023060400390625, 5.69921875) (-0.00022981858825683592, 5.701171875) (-0.00022936642456054687, 5.703125) (-0.00022941964721679686, 5.705078125) (-0.00023004403686523436, 5.70703125) (-0.00023123657226562498, 5.708984375) (-0.00023285482788085936, 5.7109375) (-0.00023454837036132812, 5.712890625) (-0.00023601766967773437, 5.71484375) (-0.0002369955291748047, 5.716796875) (-0.00023707931518554686, 5.71875) (-0.00023598693847656248, 5.720703125) (-0.00023367825317382811, 5.72265625) (-0.00023025364685058593, 5.724609375) (-0.00022634600830078125, 5.7265625) (-0.0002229627685546875, 5.728515625) (-0.000220853271484375, 5.73046875) (-0.00022068792724609375, 5.732421875) (-0.00022295925903320312, 5.734375) (-0.00022740939331054687, 5.736328125) (-0.00023327865600585937, 5.73828125) (-0.00023956558227539062, 5.740234375) (-0.00024421514892578126, 5.7421875) (-0.0002444060363769531, 5.744140625) (-0.0002376606750488281, 5.74609375) (-0.00022154638671875, 5.748046875) (-0.00019411265563964842, 5.75) (-0.00015628683471679688, 5.751953125) (-0.00010978263092041015, 5.75390625) (-5.478129577636719e-05, 5.755859375) (6.033588886260986e-06, 5.7578125) (7.149327087402344e-05, 5.759765625) (0.0001405070343017578, 5.76171875) (0.00020470854187011717, 5.763671875) (0.000258064697265625, 5.765625) (0.000295013427734375, 5.767578125) (0.0003096011047363281, 5.76953125) (0.00030604071044921876, 5.771484375) (0.00028905899047851564, 5.7734375) (0.00026309225463867184, 5.775390625) (0.00023535963439941406, 5.77734375) (0.0002071199493408203, 5.779296875) (0.00017892425537109375, 5.78125) (0.00015248687744140625, 5.783203125) (0.0001276371383666992, 5.78515625) (0.00010641201782226562, 5.787109375) (9.08363037109375e-05, 5.7890625) (8.070367431640625e-05, 5.791015625) (7.51048126220703e-05, 5.79296875) (7.18904571533203e-05, 5.794921875) (6.879545593261719e-05, 5.796875) (6.473469543457032e-05, 5.798828125) (5.9225326538085935e-05, 5.80078125) (5.185256195068359e-05, 5.802734375) (4.212947082519531e-05, 5.8046875) (2.9922515869140624e-05, 5.806640625) (1.5691247940063475e-05, 5.80859375) (5.053582191467285e-07, 5.810546875) (-1.4304529190063476e-05, 5.8125) (-2.7903957366943358e-05, 5.814453125) (-3.998194122314453e-05, 5.81640625) (-5.0333545684814454e-05, 5.818359375) (-5.8733829498291013e-05, 5.8203125) (-6.507659912109374e-05, 5.822265625) (-6.938311767578125e-05, 5.82421875) (-7.194966125488281e-05, 5.826171875) (-7.332714080810546e-05, 5.828125) (-7.385126495361328e-05, 5.830078125) (-7.364535522460937e-05, 5.83203125) (-7.278514099121094e-05, 5.833984375) (-7.129181671142578e-05, 5.8359375) (-6.92409210205078e-05, 5.837890625) (-6.680355834960938e-05, 5.83984375) (-6.412081909179687e-05, 5.841796875) (-6.127235412597655e-05, 5.84375) (-5.8383243560791015e-05, 5.845703125) (-5.5566181182861326e-05, 5.84765625) (-5.2915740966796875e-05, 5.849609375) (-5.055059814453125e-05, 5.8515625) (-4.8525386810302735e-05, 5.853515625) (-4.684748077392578e-05, 5.85546875) (-4.551014709472656e-05, 5.857421875) (-4.447834014892578e-05, 5.859375) (-4.3725696563720704e-05, 5.861328125) (-4.324682998657226e-05, 5.86328125) (-4.303359985351562e-05, 5.865234375) (-4.307566833496094e-05, 5.8671875) (-4.336257934570312e-05, 5.869140625) (-4.384870910644531e-05, 5.87109375) (-4.4466972351074214e-05, 5.873046875) (-4.514664077758789e-05, 5.875) (-4.5796825408935544e-05, 5.876953125) (-4.635118865966797e-05, 5.87890625) (-4.677173614501953e-05, 5.880859375) (-4.702516937255859e-05, 5.8828125) (-4.710086822509765e-05, 5.884765625) (-4.7005317687988276e-05, 5.88671875) (-4.6754501342773434e-05, 5.888671875) (-4.638022994995117e-05, 5.890625) (-4.5920738220214844e-05, 5.892578125) (-4.540201187133789e-05, 5.89453125) (-4.4843070983886714e-05, 5.896484375) (-4.4259506225585936e-05, 5.8984375) (-4.366065597534179e-05, 5.900390625) (-4.306756210327148e-05, 5.90234375) (-4.250862121582031e-05, 5.904296875) (-4.201443099975586e-05, 5.90625) (-4.162380599975586e-05, 5.908203125) (-4.1365245819091795e-05, 5.91015625) (-4.125521850585937e-05, 5.912109375) (-4.1306617736816405e-05, 5.9140625) (-4.1524085998535154e-05, 5.916015625) (-4.1904594421386717e-05, 5.91796875) (-4.244087219238281e-05, 5.919921875) (-4.311750030517578e-05, 5.921875) (-4.391118240356445e-05, 5.923828125) (-4.480283737182617e-05, 5.92578125) (-4.577679824829101e-05, 5.927734375) (-4.681819915771484e-05, 5.9296875) (-4.791532135009765e-05, 5.931640625) (-4.905349731445312e-05, 5.93359375) (-5.021528625488281e-05, 5.935546875) (-5.1382778167724604e-05, 5.9375) (-5.253663635253906e-05, 5.939453125) (-5.365814590454101e-05, 5.94140625) (-5.472977447509765e-05, 5.943359375) (-5.5733966827392576e-05, 5.9453125) (-5.6653728485107417e-05, 5.947265625) (-5.7473739624023435e-05, 5.94921875) (-5.81798095703125e-05, 5.951171875) (-5.875991821289062e-05, 5.953125) (-5.920451354980468e-05, 5.955078125) (-5.950330352783203e-05, 5.95703125) (-5.964557647705078e-05, 5.958984375) (-5.9621227264404294e-05, 5.9609375) (-5.9420314788818354e-05, 5.962890625) (-5.9034172058105466e-05, 5.96484375) (-5.845579147338867e-05, 5.966796875) (-5.767872619628906e-05, 5.96875) (-5.669718933105468e-05, 5.970703125) (-5.550720596313476e-05, 5.97265625) (-5.4106445312499996e-05, 5.974609375) (-5.249404144287109e-05, 5.9765625) (-5.06706428527832e-05, 5.978515625) (-4.8637779235839844e-05, 5.98046875) (-4.639777374267578e-05, 5.982421875) (-4.395405578613281e-05, 5.984375) (-4.131127166748047e-05, 5.986328125) (-3.847513580322266e-05, 5.98828125) (-3.5452396392822265e-05, 5.990234375) (-3.2250743865966794e-05, 5.9921875) (-2.8878759384155273e-05, 5.994140625) (-2.534585952758789e-05, 5.99609375) (-2.1662254333496094e-05, 5.998046875) (-1.7839027404785157e-05, 6.0) (-1.3887965202331542e-05, 6.001953125) (-9.821463584899902e-06, 6.00390625) (-5.652531147003174e-06, 6.005859375) (-1.3946692943572998e-06, 6.0078125) (2.9381465911865234e-06, 6.009765625) (7.331503868103027e-06, 6.01171875) (1.1770591735839843e-05, 6.013671875) (1.624038314819336e-05, 6.015625) (2.0725732803344727e-05, 6.017578125) (2.5211395263671873e-05, 6.01953125) (2.968214988708496e-05, 6.021484375) (3.412298202514648e-05, 6.0234375) (3.851920318603516e-05, 6.025390625) (4.285651779174805e-05, 6.02734375) (4.7121124267578126e-05, 6.029296875) (5.129971694946289e-05, 6.03125) (5.537946319580078e-05, 6.033203125) (5.934828186035156e-05, 6.03515625) (6.319477462768554e-05, 6.037109375) (6.690814971923827e-05, 6.0390625) (7.047816467285157e-05, 6.041015625) (7.389515686035155e-05, 6.04296875) (7.714998626708984e-05, 6.044921875) (8.023420715332031e-05, 6.046875) (8.314012145996094e-05, 6.048828125) (8.586074829101563e-05, 6.05078125) (8.838985443115233e-05, 6.052734375) (9.072206115722656e-05, 6.0546875) (9.285279083251953e-05, 6.056640625) (9.47784194946289e-05, 6.05859375) (9.64961700439453e-05, 6.060546875) (9.800419616699219e-05, 6.0625) (9.930148315429687e-05, 6.064453125) (0.00010038786315917968, 6.06640625) (0.00010126409912109375, 6.068359375) (0.00010193185424804688, 6.0703125) (0.00010239382934570312, 6.072265625) (0.00010265369415283202, 6.07421875) (0.00010271617889404297, 6.076171875) (0.00010258692932128905, 6.078125) (0.00010227256774902344, 6.080078125) (0.00010178054809570312, 6.08203125) (0.00010111911010742187, 6.083984375) (0.00010029709625244141, 6.0859375) (9.932375335693358e-05, 6.087890625) (9.820863342285156e-05, 6.08984375) (9.696153259277343e-05, 6.091796875) (9.559242248535156e-05, 6.09375) (9.411141204833985e-05, 6.095703125) (9.252877807617187e-05, 6.09765625) (9.085478210449218e-05, 6.099609375) (8.909974670410155e-05, 6.1015625) (8.727416229248047e-05, 6.103515625) (8.53886489868164e-05, 6.10546875) (8.345382690429687e-05, 6.107421875) (8.148030090332031e-05, 6.109375) (7.947850036621094e-05, 6.111328125) (7.745855712890624e-05, 6.11328125) (7.543034362792969e-05, 6.115234375) (7.340341949462891e-05, 6.1171875) (7.138697052001953e-05, 6.119140625) (6.938973999023437e-05, 6.12109375) (6.742001342773438e-05, 6.123046875) (6.548554229736328e-05, 6.125) (6.35936279296875e-05, 6.126953125) (6.175099182128906e-05, 6.12890625) (5.9963695526123046e-05, 6.130859375) (5.8237098693847655e-05, 6.1328125) (5.6575561523437495e-05, 6.134765625) (5.498238372802734e-05, 6.13671875) (5.3459884643554684e-05, 6.138671875) (5.2009403228759766e-05, 6.140625) (5.0631233215332026e-05, 6.142578125) (4.932477569580078e-05, 6.14453125) (4.808844757080078e-05, 6.146484375) (4.691975402832031e-05, 6.1484375) (4.581575012207031e-05, 6.150390625) (4.477314758300781e-05, 6.15234375) (4.3788242340087886e-05, 6.154296875) (4.2857048034667965e-05, 6.15625) (4.197531509399414e-05, 6.158203125) (4.1138446807861324e-05, 6.16015625) (4.034189987182617e-05, 6.162109375) (3.9581207275390624e-05, 6.1640625) (3.885156631469726e-05, 6.166015625) (3.8147926330566404e-05, 6.16796875) (3.746508407592773e-05, 6.169921875) (3.6797622680664064e-05, 6.171875) (3.614031982421875e-05, 6.173828125) (3.548818206787109e-05, 6.17578125) (3.483618927001953e-05, 6.177734375) (3.417942810058594e-05, 6.1796875) (3.3513092041015627e-05, 6.181640625) (3.283248138427734e-05, 6.18359375) (3.2133140563964845e-05, 6.185546875) (3.141091156005859e-05, 6.1875) (3.0661731719970703e-05, 6.189453125) (2.9881752014160156e-05, 6.19140625) (2.9067516326904295e-05, 6.193359375) (2.8215877532958984e-05, 6.1953125) (2.732459259033203e-05, 6.197265625) (2.6392404556274413e-05, 6.19921875) (2.5418640136718748e-05, 6.201171875) (2.4403255462646483e-05, 6.203125) (2.334688377380371e-05, 6.205078125) (2.225063133239746e-05, 6.20703125) (2.1116512298583982e-05, 6.208984375) (1.9947479248046874e-05, 6.2109375) (1.8746362686157226e-05, 6.212890625) (1.7515663146972655e-05, 6.21484375) (1.62581672668457e-05, 6.216796875) (1.4976801872253417e-05, 6.21875) (1.3674477577209472e-05, 6.220703125) (1.2354158401489258e-05, 6.22265625) (1.1017576217651367e-05, 6.224609375) (9.664826393127441e-06, 6.2265625) (8.296175003051757e-06, 6.228515625) (6.912377834320068e-06, 6.23046875) (5.513892650604248e-06, 6.232421875) (4.101202011108399e-06, 6.234375) (2.6745061874389647e-06, 6.236328125) (1.2332220077514648e-06, 6.23828125) (-2.2216561436653136e-07, 6.240234375) (-1.689598798751831e-06, 6.2421875) (-3.1675686836242675e-06, 6.244140625) (-4.654999732971191e-06, 6.24609375) (-6.151746749877929e-06, 6.248046875) (-7.659977912902832e-06, 6.25) (-9.182591438293456e-06, 6.251953125) (-1.0722382545471191e-05, 6.25390625) (-1.2282852172851562e-05, 6.255859375) (-1.3867109298706055e-05, 6.2578125) (-1.547831153869629e-05, 6.259765625) (-1.712238311767578e-05, 6.26171875) (-1.8803955078124998e-05, 6.263671875) (-2.052480125427246e-05, 6.265625) (-2.2288801193237304e-05, 6.267578125) (-2.4099382400512694e-05, 6.26953125) (-2.5963851928710935e-05, 6.271484375) (-2.789795684814453e-05, 6.2734375) (-2.9914016723632812e-05, 6.275390625) (-3.2018043518066406e-05, 6.27734375) (-3.421432876586914e-05, 6.279296875) (-3.650055694580078e-05, 6.28125) (-3.886652755737305e-05, 6.283203125) (-4.1301319122314454e-05, 6.28515625) (-4.378524017333984e-05, 6.287109375) (-4.6288272857666015e-05, 6.2890625) (-4.878792572021484e-05, 6.291015625) (-5.126134490966797e-05, 6.29296875) (-5.368731689453125e-05, 6.294921875) (-5.605754852294922e-05, 6.296875) (-5.83586196899414e-05, 6.298828125) (-6.0574851989746094e-05, 6.30078125) (-6.269289779663085e-05, 6.302734375) (-6.46900177001953e-05, 6.3046875) (-6.654623413085938e-05, 6.306640625) (-6.825666809082031e-05, 6.30859375) (-6.982306671142578e-05, 6.310546875) (-7.125608825683593e-05, 6.3125) (-7.259642028808593e-05, 6.314453125) (-7.389778900146484e-05, 6.31640625) (-7.521916198730469e-05, 6.318359375) (-7.663235473632812e-05, 6.3203125) (-7.818392181396483e-05, 6.322265625) (-7.990198516845703e-05, 6.32421875) (-8.181720733642577e-05, 6.326171875) (-8.396944427490234e-05, 6.328125) (-8.640521240234374e-05, 6.330078125) (-8.914565277099609e-05, 6.33203125) (-9.220364379882812e-05, 6.333984375) (-9.55792007446289e-05, 6.3359375) (-9.927118682861328e-05, 6.337890625) (-0.00010333240509033203, 6.33984375) (-0.00010777962493896483, 6.341796875) (-0.00011244464874267577, 6.34375) (-0.00011699614715576171, 6.345703125) (-0.00012108079528808593, 6.34765625) (-0.00012437911987304688, 6.349609375) (-0.00012675791931152344, 6.3515625) (-0.00012824508666992187, 6.353515625) (-0.00012868650817871092, 6.35546875) (-0.00012785316467285156, 6.357421875) (-0.00012583284759521484, 6.359375) (-0.00012331130218505858, 6.361328125) (-0.00012103988647460937, 6.36328125) (-0.0001195204620361328, 6.365234375) (-0.00011906884765625, 6.3671875) (-0.00011786798095703125, 6.369140625) (-0.00011419491577148437, 6.37109375) (-0.00010897314453125, 6.373046875) (-0.00010158533477783203, 6.375) (-9.446099853515624e-05, 6.376953125) (-9.138858032226562e-05, 6.37890625) (-8.718618774414062e-05, 6.380859375) (-7.795624542236328e-05, 6.3828125) (-5.815503692626953e-05, 6.384765625) (-1.821373748779297e-05, 6.38671875) (3.521882629394531e-05, 6.388671875) (9.077105712890625e-05, 6.390625) (0.00013818658447265625, 6.392578125) (0.0001621390686035156, 6.39453125) (0.0001633060607910156, 6.396484375) (0.00015262559509277344, 6.3984375) (0.00013762350463867188, 6.400390625) (0.00012823397827148436, 6.40234375) (0.00012639743041992186, 6.404296875) (0.00012582105255126952, 6.40625) (0.00012412924194335937, 6.408203125) (0.00012031623840332031, 6.41015625) (0.00011481063842773436, 6.412109375) (0.00011074803161621093, 6.4140625) (0.00010901158142089844, 6.416015625) (0.00010854962158203124, 6.41796875) (0.00010848230743408203, 6.419921875) (0.00010805828857421875, 6.421875) (0.00010698995971679687, 6.423828125) (0.00010534320068359375, 6.42578125) (0.00010316261291503906, 6.427734375) (0.00010037893676757812, 