(-8.166594505310058e-07, 0.0) (-3.5168676376342773e-06, 0.001953125) (-6.137866020202637e-06, 0.00390625) (-8.655678749084472e-06, 0.005859375) (-1.105770492553711e-05, 0.0078125) (-1.3327539443969726e-05, 0.009765625) (-1.5436628341674806e-05, 0.01171875) (-1.733492088317871e-05, 0.013671875) (-1.896590805053711e-05, 0.015625) (-2.0303619384765623e-05, 0.017578125) (-2.1363262176513672e-05, 0.01953125) (-2.21942138671875e-05, 0.021484375) (-2.2842666625976563e-05, 0.0234375) (-2.333436393737793e-05, 0.025390625) (-2.368301010131836e-05, 0.02734375) (-2.3896636962890625e-05, 0.029296875) (-2.399363327026367e-05, 0.03125) (-2.399932098388672e-05, 0.033203125) (-2.3934631347656248e-05, 0.03515625) (-2.3809188842773435e-05, 0.037109375) (-2.3626136779785154e-05, 0.0390625) (-2.3398239135742186e-05, 0.041015625) (-2.3153333663940427e-05, 0.04296875) (-2.294065475463867e-05, 0.044921875) (-2.2812984466552733e-05, 0.046875) (-2.2797056198120117e-05, 0.048828125) (-2.2888481140136716e-05, 0.05078125) (-2.3057971954345702e-05, 0.052734375) (-2.328022003173828e-05, 0.0546875) (-2.3545419692993164e-05, 0.056640625) (-2.3849819183349607e-05, 0.05859375) (-2.4189350128173828e-05, 0.060546875) (-2.455290412902832e-05, 0.0625) (-2.4930200576782224e-05, 0.064453125) (-2.5321750640869138e-05, 0.06640625) (-2.5742509841918943e-05, 0.068359375) (-2.620968246459961e-05, 0.0703125) (-2.6729816436767576e-05, 0.072265625) (-2.7299510955810547e-05, 0.07421875) (-2.79008674621582e-05, 0.076171875) (-2.8511671066284178e-05, 0.078125) (-2.9124368667602537e-05, 0.080078125) (-2.9745590209960936e-05, 0.08203125) (-3.0392581939697263e-05, 0.083984375) (-3.108426284790039e-05, 0.0859375) (-3.183059310913086e-05, 0.087890625) (-3.263640213012695e-05, 0.08984375) (-3.351129913330078e-05, 0.091796875) (-3.44675064086914e-05, 0.09375) (-3.550944519042969e-05, 0.095703125) (-3.662879180908203e-05, 0.09765625) (-3.779677581787109e-05, 0.099609375) (-3.8973350524902345e-05, 0.1015625) (-4.0126930236816405e-05, 0.103515625) (-4.123250961303711e-05, 0.10546875) (-4.227268600463867e-05, 0.107421875) (-4.323918914794922e-05, 0.109375) (-4.4115062713623046e-05, 0.111328125) (-4.487234878540039e-05, 0.11328125) (-4.548199081420898e-05, 0.115234375) (-4.5911338806152345e-05, 0.1171875) (-4.6135597229003907e-05, 0.119140625) (-4.6143585205078124e-05, 0.12109375) (-4.5916419982910156e-05, 0.123046875) (-4.54293327331543e-05, 0.125) (-4.4676132202148436e-05, 0.126953125) (-4.3678817749023435e-05, 0.12890625) (-4.249892425537109e-05, 0.130859375) (-4.1229152679443356e-05, 0.1328125) (-3.99542121887207e-05, 0.134765625) (-3.872714614868164e-05, 0.13671875) (-3.758643341064453e-05, 0.138671875) (-3.65732421875e-05, 0.140625) (-3.5734310150146485e-05, 0.142578125) (-3.514842224121094e-05, 0.14453125) (-3.4907672882080075e-05, 0.146484375) (-3.5086212158203124e-05, 0.1484375) (-3.572834014892578e-05, 0.150390625) (-3.6882545471191406e-05, 0.15234375) (-3.8610164642333985e-05, 0.154296875) (-4.0901527404785155e-05, 0.15625) (-4.369658660888672e-05, 0.158203125) (-4.6765071868896485e-05, 0.16015625) (-4.9649246215820314e-05, 0.162109375) (-5.18685188293457e-05, 0.1640625) (-5.3019348144531245e-05, 0.166015625) (-5.279508972167968e-05, 0.16796875) (-5.105876159667969e-05, 0.169921875) (-4.7964691162109374e-05, 0.171875) (-4.3665710449218745e-05, 0.173828125) (-3.854603576660156e-05, 0.17578125) (-3.3644531249999997e-05, 0.177734375) (-2.991280746459961e-05, 0.1796875) (-2.8084863662719725e-05, 0.181640625) (-2.881116485595703e-05, 0.18359375) (-3.092458724975586e-05, 0.185546875) (-3.263193130493164e-05, 0.1875) (-3.381797409057617e-05, 0.189453125) (-3.309092330932617e-05, 0.19140625) (-3.0421669006347654e-05, 0.193359375) (-2.6151058197021483e-05, 0.1953125) (-1.5039988517761229e-05, 0.197265625) (6.247279644012451e-06, 0.19921875) (4.062808990478515e-05, 0.201171875) (9.10800552368164e-05, 0.203125) (0.00015209765625, 0.205078125) (0.00021775335693359374, 0.20703125) (0.0002823176574707031, 0.208984375) (0.0003380934448242187, 0.2109375) (0.00038264929199218747, 0.212890625) (0.00041459625244140625, 0.21484375) (0.0004321434326171875, 0.216796875) (0.0004352957153320312, 0.21875) (0.0004228342895507812, 0.220703125) (0.0003947120666503906, 0.22265625) (0.00035323422241210936, 0.224609375) (0.00030165301513671874, 0.2265625) (0.00024478701782226564, 0.228515625) (0.00018706906127929687, 0.23046875) (0.00013177189636230468, 0.232421875) (8.21493911743164e-05, 0.234375) (4.0741249084472654e-05, 0.236328125) (8.85072135925293e-06, 0.23828125) (-1.3047969818115234e-05, 0.240234375) (-2.5778541564941404e-05, 0.2421875) (-3.145636749267578e-05, 0.244140625) (-3.2047142028808595e-05, 0.24609375) (-2.9430946350097656e-05, 0.248046875) (-2.5886226654052734e-05, 0.25) (-2.3213003158569336e-05, 0.251953125) (-2.250006103515625e-05, 0.25390625) (-2.440778350830078e-05, 0.255859375) (-2.8802642822265625e-05, 0.2578125) (-3.4864826202392576e-05, 0.259765625) (-4.1859169006347654e-05, 0.26171875) (-4.89306526184082e-05, 0.263671875) (-5.494136810302734e-05, 0.265625) (-5.914822387695312e-05, 0.267578125) (-6.121388244628905e-05, 0.26953125) (-6.1015983581542965e-05, 0.271484375) (-5.8822021484374996e-05, 0.2734375) (-5.5116149902343744e-05, 0.275390625) (-5.0320976257324214e-05, 0.27734375) (-4.497307586669922e-05, 0.279296875) (-3.971547317504883e-05, 0.28125) (-3.494805526733398e-05, 0.283203125) (-3.089560127258301e-05, 0.28515625) (-2.767852210998535e-05, 0.287109375) (-2.5249530792236327e-05, 0.2890625) (-2.355445671081543e-05, 0.291015625) (-2.2574218749999998e-05, 0.29296875) (-2.2227413177490234e-05, 0.294921875) (-2.2401025772094726e-05, 0.296875) (-2.3016225814819336e-05, 0.298828125) (-2.3991661071777344e-05, 0.30078125) (-2.5261108398437498e-05, 0.302734375) (-2.6789379119873045e-05, 0.3046875) (-2.8497726440429686e-05, 0.306640625) (-3.0280908584594725e-05, 0.30859375) (-3.2031059265136715e-05, 0.310546875) (-3.363137435913086e-05, 0.3125) (-3.500477600097656e-05, 0.314453125) (-3.611237335205078e-05, 0.31640625) (-3.692733001708984e-05, 0.318359375) (-3.7438205718994136e-05, 0.3203125) (-3.764410400390625e-05, 0.322265625) (-3.755144500732422e-05, 0.32421875) (-3.718378448486328e-05, 0.326171875) (-3.6576801300048826e-05, 0.328125) (-3.576050186157226e-05, 0.330078125) (-3.476507568359375e-05, 0.33203125) (-3.361981201171875e-05, 0.333984375) (-3.235077667236328e-05, 0.3359375) (-3.09965763092041e-05, 0.337890625) (-2.9600915908813475e-05, 0.33984375) (-2.8208511352539063e-05, 0.341796875) (-2.6866455078124998e-05, 0.34375) (-2.5606279373168945e-05, 0.345703125) (-2.4444915771484372e-05, 0.34765625) (-2.3393787384033202e-05, 0.349609375) (-2.2456867218017578e-05, 0.3515625) (-2.1632999420166016e-05, 0.353515625) (-2.091898536682129e-05, 0.35546875) (-2.0304779052734376e-05, 0.357421875) (-1.977495002746582e-05, 0.359375) (-1.9318803787231446e-05, 0.361328125) (-1.8928485870361328e-05, 0.36328125) (-1.8597301483154297e-05, 0.365234375) (-1.8320873260498046e-05, 0.3671875) (-1.8091690063476562e-05, 0.369140625) (-1.7900041580200195e-05, 0.37109375) (-1.7736721038818358e-05, 0.373046875) (-1.7592376708984374e-05, 0.375) (-1.745945167541504e-05, 0.376953125) (-1.7332626342773436e-05, 0.37890625) (-1.7207054138183594e-05, 0.380859375) (-1.7078710556030272e-05, 0.3828125) (-1.6945220947265625e-05, 0.384765625) (-1.6804920196533203e-05, 0.38671875) (-1.66575813293457e-05, 0.388671875) (-1.6504482269287107e-05, 0.390625) (-1.634562873840332e-05, 0.392578125) (-1.618008804321289e-05, 0.39453125) (-1.60069580078125e-05, 0.396484375) (-1.5824956893920898e-05, 0.3984375) (-1.563335609436035e-05, 0.400390625) (-1.543230724334717e-05, 0.40234375) (-1.5221912384033202e-05, 0.404296875) (-1.5002346038818359e-05, 0.40625) (-1.4774779319763183e-05, 0.408203125) (-1.4541104316711426e-05, 0.41015625) (-1.4303785324096679e-05, 0.412109375) (-1.406594657897949e-05, 0.4140625) (-1.3830768585205077e-05, 0.416015625) (-1.3601434707641602e-05, 0.41796875) (-1.3381340980529784e-05, 0.419921875) (-1.3173958778381347e-05, 0.421875) (-1.2982762336730957e-05, 0.423828125) (-1.2811214447021484e-05, 0.42578125) (-1.2662697792053223e-05, 0.427734375) (-1.2540493011474608e-05, 0.4296875) (-1.2447731018066406e-05, 0.431640625) (-1.2387346267700194e-05, 0.43359375) (-1.2362061500549316e-05, 0.435546875) (-1.2374329566955566e-05, 0.4375) (-1.242629051208496e-05, 0.439453125) (-1.2519715309143066e-05, 0.44140625) (-1.2655970573425293e-05, 0.443359375) (-1.2835993766784668e-05, 0.4453125) (-1.3060284614562989e-05, 0.447265625) (-1.3328929901123046e-05, 0.44921875) (-1.3641532897949218e-05, 0.451171875) (-1.3997178077697753e-05, 0.453125) (-1.4394475936889647e-05, 0.455078125) (-1.4831565856933593e-05, 0.45703125) (-1.5306035995483397e-05, 0.458984375) (-1.5814966201782225e-05, 0.4609375) (-1.6354970932006835e-05, 0.462890625) (-1.6922164916992187e-05, 0.46484375) (-1.7512285232543945e-05, 0.466796875) (-1.8120752334594724e-05, 0.46875) (-1.8742568969726562e-05, 0.470703125) (-1.93724308013916e-05, 0.47265625) (-2.000485610961914e-05, 0.474609375) (-2.0634206771850584e-05, 0.4765625) (-2.125478744506836e-05, 0.478515625) (-2.1860912322998046e-05, 0.48046875) (-2.24468879699707e-05, 0.482421875) (-2.300706672668457e-05, 0.484375) (-2.3535968780517576e-05, 0.486328125) (-2.402827262878418e-05, 0.48828125) (-2.4478866577148437e-05, 0.490234375) (-2.488289451599121e-05, 0.4921875) (-2.5235782623291014e-05, 0.494140625) (-2.5533279418945312e-05, 0.49609375) (-2.577149772644043e-05, 0.498046875) (-2.59468879699707e-05, 0.5) (-2.6056264877319333e-05, 0.501953125) (-2.6096832275390623e-05, 0.50390625) (-2.6066167831420898e-05, 0.505859375) (-2.5962249755859375e-05, 0.5078125) (-2.578346252441406e-05, 0.509765625) (-2.5528619766235352e-05, 0.51171875) (-2.5197027206420896e-05, 0.513671875) (-2.4788558959960935e-05, 0.515625) (-2.4303689956665037e-05, 0.517578125) (-2.3743541717529297e-05, 0.51953125) (-2.310989952087402e-05, 0.521484375) (-2.2405189514160156e-05, 0.5234375) (-2.1632436752319334e-05, 0.525390625) (-2.079523468017578e-05, 0.52734375) (-1.9897649765014647e-05, 0.529296875) (-1.8944141387939453e-05, 0.53125) (-1.7939481735229492e-05, 0.533203125) (-1.68886661529541e-05, 0.53515625) (-1.579684829711914e-05, 0.537109375) (-1.4669313430786131e-05, 0.5390625) (-1.351143455505371e-05, 0.541015625) (-1.232863426208496e-05, 0.54296875) (-1.112634563446045e-05, 0.544921875) (-9.909955024719237e-06, 0.546875) (-8.68476676940918e-06, 0.548828125) (-7.455975532531738e-06, 0.55078125) (-6.228619575500488e-06, 0.552734375) (-5.007548809051513e-06, 0.5546875) (-3.7974040508270264e-06, 0.556640625) (-2.6026086807250975e-06, 0.55859375) (-1.4274110794067382e-06, 0.560546875) (-2.759335935115814e-07, 0.5625) (8.478009700775146e-07, 0.564453125) (1.939844489097595e-06, 0.56640625) (2.9963188171386716e-06, 0.568359375) (4.013440608978272e-06, 0.5703125) (4.9875473976135254e-06, 0.572265625) (5.915146827697754e-06, 0.57421875) (6.793009757995605e-06, 0.576171875) (7.6182718276977535e-06, 0.578125) (8.388507843017578e-06, 0.580078125) (9.10180950164795e-06, 0.58203125) (9.756799697875976e-06, 0.583984375) (1.035262107849121e-05, 0.5859375) (1.0888930320739746e-05, 0.587890625) (1.1365863800048827e-05, 0.58984375) (1.17839937210083e-05, 0.591796875) (1.2144273757934569e-05, 0.59375) (1.2447989463806151e-05, 0.595703125) (1.2696683883666992e-05, 0.59765625) (1.2892141342163086e-05, 0.599609375) (1.3036359786987304e-05, 0.6015625) (1.3131513595581054e-05, 0.603515625) (1.3179914474487304e-05, 0.60546875) (1.3183953285217285e-05, 0.607421875) (1.3146029472351074e-05, 0.609375) (1.3068517684936523e-05, 0.611328125) (1.2953733444213867e-05, 0.61328125) (1.280389404296875e-05, 0.615234375) (1.2621139526367187e-05, 0.6171875) (1.240753173828125e-05, 0.619140625) (1.216510009765625e-05, 0.62109375) (1.1895913124084472e-05, 0.623046875) (1.1602155685424805e-05, 0.625) (1.1286190986633301e-05, 0.626953125) (1.0950594902038574e-05, 0.62890625) (1.0598184585571289e-05, 0.630859375) (1.0231979370117188e-05, 0.6328125) (9.85519027709961e-06, 0.634765625) (9.471157073974608e-06, 0.63671875) (9.08327007293701e-06, 0.638671875) (8.69488525390625e-06, 0.640625) (8.309244155883788e-06, 0.642578125) (7.9294114112854e-06, 0.64453125) (7.558239936828613e-06, 0.646484375) (7.198347091674804e-06, 0.6484375) (6.8520917892456054e-06, 0.650390625) (6.52155590057373e-06, 0.65234375) (6.208540439605713e-06, 0.654296875) (5.914557933807373e-06, 0.65625) (5.640838623046875e-06, 0.658203125) (5.388348579406738e-06, 0.66015625) (5.15778923034668e-06, 0.662109375) (4.949624061584472e-06, 0.6640625) (4.764110565185547e-06, 0.666015625) (4.601345539093017e-06, 0.66796875) (4.461323738098144e-06, 0.669921875) (4.343998908996582e-06, 0.671875) (4.249314785003662e-06, 0.673828125) (4.177230834960937e-06, 0.67578125) (4.127728939056397e-06, 0.677734375) (4.100790023803711e-06, 0.6796875) (4.09636116027832e-06, 0.681640625) (4.114309310913086e-06, 0.68359375) (4.1543416976928706e-06, 0.685546875) (4.215944290161133e-06, 0.6875) (4.298336029052734e-06, 0.689453125) (4.4004235267639156e-06, 0.69140625) (4.5207872390747066e-06, 0.693359375) (4.657684803009033e-06, 0.6953125) (4.8090524673461916e-06, 0.697265625) (4.9725313186645504e-06, 0.69921875) (5.145517349243164e-06, 0.701171875) (5.32520055770874e-06, 0.703125) (5.5086245536804196e-06, 0.705078125) (5.69273567199707e-06, 0.70703125) (5.87442684173584e-06, 0.708984375) (6.050587177276611e-06, 0.7109375) (6.218168258666992e-06, 0.712890625) (6.374238014221191e-06, 0.71484375) (6.5160303115844725e-06, 0.716796875) (6.640989780426025e-06, 0.71875) (6.746791362762451e-06, 0.720703125) (6.8313570022583e-06, 0.72265625) (6.892867088317871e-06, 0.724609375) (6.929748058319091e-06, 0.7265625) (6.940650463104248e-06, 0.728515625) (6.924424171447753e-06, 0.73046875) (6.880074977874755e-06, 0.732421875) (6.8067417144775384e-06, 0.734375) (6.703690052032471e-06, 0.736328125) (6.570306777954101e-06, 0.73828125) (6.406109809875488e-06, 0.740234375) (6.210768222808838e-06, 0.7421875) (5.984107971191406e-06, 0.744140625) (5.726138114929199e-06, 0.74609375) (5.4370818138122555e-06, 0.748046875) (5.1173982620239255e-06, 0.75) (4.767797470092773e-06, 0.751953125) (4.3892602920532225e-06, 0.75390625) (3.983037948608398e-06, 0.755859375) (3.5506582260131832e-06, 0.7578125) (3.0939600467681882e-06, 0.759765625) (2.6150884628295896e-06, 0.76171875) (2.116490840911865e-06, 0.763671875) (1.6009020805358887e-06, 0.765625) (1.0712900161743164e-06, 0.767578125) (5.308100581169128e-07, 0.76953125) (-1.7237931489944457e-08, 0.771484375) (-5.6947922706604e-07, 0.7734375) (-1.1225342750549315e-06, 0.775390625) (-1.6730849742889403e-06, 0.77734375) (-2.2179460525512695e-06, 0.779296875) (-2.754112958908081e-06, 0.78125) (-3.278776168823242e-06, 0.783203125) (-3.789339542388916e-06, 0.78515625) (-4.2834234237670894e-06, 0.787109375) (-4.758865356445312e-06, 0.7890625) (-5.213753700256347e-06, 0.791015625) (-5.646430969238281e-06, 0.79296875) (-6.055497646331787e-06, 0.794921875) (-6.4398279190063476e-06, 0.796875) (-6.7985744476318355e-06, 0.798828125) (-7.1311845779418946e-06, 0.80078125) (-7.4374408721923825e-06, 0.802734375) (-7.717470169067383e-06, 0.8046875) (-7.971679210662841e-06, 0.806640625) (-8.200733184814452e-06, 0.80859375) (-8.405519485473632e-06, 0.810546875) (-8.587105751037597e-06, 0.8125) (-8.746768951416016e-06, 0.814453125) (-8.885990142822266e-06, 0.81640625) (-9.006412506103516e-06, 0.818359375) (-9.109848976135253e-06, 0.8203125) (-9.198320388793945e-06, 0.822265625) (-9.27406120300293e-06, 0.82421875) (-9.339557647705078e-06, 0.826171875) (-9.39755630493164e-06, 0.828125) (-9.450942993164062e-06, 0.830078125) (-9.502682685852051e-06, 0.83203125) (-9.555757522583008e-06, 0.833984375) (-9.61308479309082e-06, 0.8359375) (-9.677526473999024e-06, 0.837890625) (-9.751834869384764e-06, 0.83984375) (-9.838583946228026e-06, 0.841796875) (-9.940131187438965e-06, 0.84375) (-1.0058602333068846e-05, 0.845703125) (-1.0195895195007323e-05, 0.84765625) (-1.0353765487670898e-05, 0.849609375) (-1.0533824920654296e-05, 0.8515625) (-1.073737335205078e-05, 0.853515625) (-1.096536350250244e-05, 0.85546875) (-1.1218339920043946e-05, 0.857421875) (-1.149637794494629e-05, 0.859375) (-1.1799195289611815e-05, 0.861328125) (-1.2126125335693359e-05, 0.86328125) (-1.247597312927246e-05, 0.865234375) (-1.284700870513916e-05, 0.8671875) (-1.3237141609191894e-05, 0.869140625) (-1.3643974304199219e-05, 0.87109375) (-1.4064961433410643e-05, 0.873046875) (-1.4497526168823242e-05, 0.875) (-1.4938886642456054e-05, 0.876953125) (-1.5386039733886718e-05, 0.87890625) (-1.5835866928100586e-05, 0.880859375) (-1.628511428833008e-05, 0.8828125) (-1.673040771484375e-05, 0.884765625) (-1.7168262481689452e-05, 0.88671875) (-1.759495735168457e-05, 0.888671875) (-1.80064697265625e-05, 0.890625) (-1.8398731231689453e-05, 0.892578125) (-1.876776695251465e-05, 0.89453125) (-1.910984992980957e-05, 0.896484375) (-1.9421630859375e-05, 0.8984375) (-1.9699903488159178e-05, 0.900390625) (-1.994160461425781e-05, 0.90234375) (-2.0143918991088865e-05, 0.904296875) (-2.030431365966797e-05, 0.90625) (-2.0420650482177733e-05, 0.908203125) (-2.0491130828857422e-05, 0.91015625) (-2.0513988494873047e-05, 0.912109375) (-2.0487453460693358e-05, 0.9140625) (-2.0410194396972657e-05, 0.916015625) (-2.0281391143798826e-05, 0.91796875) (-2.0100870132446287e-05, 0.919921875) (-1.986919403076172e-05, 0.921875) (-1.9587282180786134e-05, 0.923828125) (-1.9256408691406248e-05, 0.92578125) (-1.8878625869750975e-05, 0.927734375) (-1.845681381225586e-05, 0.9296875) (-1.799429702758789e-05, 0.931640625) (-1.74947509765625e-05, 0.93359375) (-1.6961978912353514e-05, 0.935546875) (-1.6399608612060546e-05, 0.9375) (-1.5811638832092286e-05, 0.939453125) (-1.5202601432800292e-05, 0.94140625) (-1.4577249526977539e-05, 0.943359375) (-1.3940585136413574e-05, 0.9453125) (-1.3298065185546875e-05, 0.947265625) (-1.2655536651611328e-05, 0.94921875) (-1.2019584655761719e-05, 0.951171875) (-1.139780044555664e-05, 0.953125) (-1.0797884941101074e-05, 0.955078125) (-1.0227168083190917e-05, 0.95703125) (-9.692628860473633e-06, 0.958984375) (-9.200734138488768e-06, 0.9609375) (-8.757574081420898e-06, 0.962890625) (-8.368951797485352e-06, 0.96484375) (-8.039690017700195e-06, 0.966796875) (-7.773280143737792e-06, 0.96875) (-7.573014736175537e-06, 0.970703125) (-7.442405700683594e-06, 0.97265625) (-7.3856830596923824e-06, 0.974609375) (-7.407914638519287e-06, 0.9765625) (-7.513161659240722e-06, 0.978515625) (-7.704132080078124e-06, 0.98046875) (-7.983082771301269e-06, 0.982421875) (-8.351885795593261e-06, 0.984375) (-8.812238693237304e-06, 0.986328125) (-9.366147994995117e-06, 0.98828125) (-1.0012866973876953e-05, 0.990234375) (-1.0747964859008788e-05, 0.9921875) (-1.1568817138671875e-05, 0.994140625) (-1.2474442481994629e-05, 0.99609375) (-1.3466687202453613e-05, 0.998046875) (-1.4551376342773436e-05, 1.0) (-1.5729459762573243e-05, 1.001953125) (-1.6994657516479492e-05, 1.00390625) (-1.833826446533203e-05, 1.005859375) (-1.975005340576172e-05, 1.0078125) (-2.1215982437133788e-05, 1.009765625) (-2.2719303131103515e-05, 1.01171875) (-2.4234683990478516e-05, 1.013671875) (-2.5725244522094726e-05, 1.015625) (-2.715566635131836e-05, 1.017578125) (-2.849306488037109e-05, 1.01953125) (-2.9709503173828124e-05, 1.021484375) (-3.078450012207031e-05, 1.0234375) (-3.168986129760742e-05, 1.025390625) (-3.239060974121094e-05, 1.02734375) (-3.284894561767578e-05, 1.029296875) (-3.3026397705078124e-05, 1.03125) (-3.290026092529297e-05, 1.033203125) (-3.2468872070312497e-05, 1.03515625) (-3.173452758789062e-05, 1.037109375) (-3.0697830200195314e-05, 1.0390625) (-2.9376817703247068e-05, 1.041015625) (-2.7803071975708008e-05, 1.04296875) (-2.6035575866699216e-05, 1.044921875) (-2.416833686828613e-05, 1.046875) (-2.22823486328125e-05, 1.048828125) (-2.044460678100586e-05, 1.05078125) (-1.8723546981811522e-05, 1.052734375) (-1.718203353881836e-05, 1.0546875) (-1.5898451805114747e-05, 1.056640625) (-1.4968313217163085e-05, 1.05859375) (-1.4460335731506347e-05, 1.060546875) (-1.4405747413635253e-05, 1.0625) (-1.4815634727478027e-05, 1.064453125) (-1.565973949432373e-05, 1.06640625) (-1.6897241592407227e-05, 1.068359375) (-1.8512340545654296e-05, 1.0703125) (-2.0433635711669923e-05, 1.072265625) (-2.2540611267089843e-05, 1.07421875) (-2.4740524291992186e-05, 1.076171875) (-2.6926750183105468e-05, 1.078125) (-2.8968505859375e-05, 1.080078125) (-3.072811126708984e-05, 1.08203125) (-3.198578643798828e-05, 1.083984375) (-3.2436603546142574e-05, 1.0859375) (-3.179940223693848e-05, 1.087890625) (-2.9813678741455076e-05, 1.08984375) (-2.6055496215820313e-05, 1.091796875) (-2.001082420349121e-05, 1.09375) (-1.158034610748291e-05, 1.095703125) (-1.1079292297363281e-06, 1.09765625) (1.1056204795837402e-05, 1.099609375) (2.434488296508789e-05, 1.1015625) (3.9069095611572263e-05, 1.103515625) (5.6688472747802734e-05, 1.10546875) (7.647953033447265e-05, 1.107421875) (9.6595458984375e-05, 1.109375) (0.00011424359893798827, 1.111328125) (0.00012455067443847655, 1.11328125) (0.0001280714874267578, 1.115234375) (0.00012954856872558594, 1.1171875) (0.00013539218139648436, 1.119140625) (0.0001557342987060547, 1.12109375) (0.00019378375244140624, 1.123046875) (0.0002456715698242187, 1.125) (0.0003032301025390625, 1.126953125) (0.00035206152343749997, 1.12890625) (0.00038276010131835936, 1.130859375) (0.00039165661621093747, 1.1328125) (0.00038011993408203123, 1.134765625) (0.0003561690063476562, 1.13671875) (0.00032535900878906247, 1.138671875) (0.0002915352172851562, 1.140625) (0.0002563174438476562, 1.142578125) (0.00021726515197753905, 1.14453125) (0.00017418302917480467, 1.146484375) (0.0001281576690673828, 1.1484375) (8.135247039794922e-05, 1.150390625) (3.848445510864258e-05, 1.15234375) (2.8469820022583007e-06, 1.154296875) (-2.432474136352539e-05, 1.15625) (-4.279083251953125e-05, 1.158203125) (-5.372481536865234e-05, 1.16015625) (-5.850861740112305e-05, 1.162109375) (-5.812532806396484e-05, 1.1640625) (-5.403213119506836e-05, 1.166015625) (-4.829493331909179e-05, 1.16796875) (-4.278311157226562e-05, 1.169921875) (-3.868291091918945e-05, 1.171875) (-3.651246643066406e-05, 1.173828125) (-3.614748382568359e-05, 1.17578125) (-3.722518157958984e-05, 1.177734375) (-3.9484725952148435e-05, 1.1796875) (-4.241584014892578e-05, 1.181640625) (-4.511049270629883e-05, 1.18359375) (-4.6793056488037105e-05, 1.185546875) (-4.7072948455810546e-05, 1.1875) (-4.5888587951660155e-05, 1.189453125) (-4.353296661376953e-05, 1.19140625) (-4.041152954101562e-05, 1.193359375) (-3.680213165283203e-05, 1.1953125) (-3.303959655761719e-05, 1.197265625) (-2.9571821212768552e-05, 1.19921875) (-2.6710384368896483e-05, 1.201171875) (-2.463096237182617e-05, 1.203125) (-2.339963150024414e-05, 1.205078125) (-2.292022705078125e-05, 1.20703125) (-2.3063455581665037e-05, 1.208984375) (-2.3740867614746092e-05, 1.2109375) (-2.483474540710449e-05, 1.212890625) (-2.6214603424072266e-05, 1.21484375) (-2.779877471923828e-05, 1.216796875) (-2.9500480651855467e-05, 1.21875) (-3.123127555847168e-05, 1.220703125) (-3.2925270080566405e-05, 1.22265625) (-3.449506378173828e-05, 1.224609375) (-3.5867885589599606e-05, 1.2265625) (-3.700390243530273e-05, 1.228515625) (-3.7870658874511714e-05, 1.23046875) (-3.845027923583984e-05, 1.232421875) (-3.87388916015625e-05, 1.234375) (-3.874013900756836e-05, 1.236328125) (-3.847343826293945e-05, 1.23828125) (-3.797644805908203e-05, 1.240234375) (-3.7284877777099606e-05, 1.2421875) (-3.6430908203125e-05, 1.244140625) (-3.544381713867187e-05, 1.24609375) (-3.4344985961914064e-05, 1.248046875) (-3.316558837890625e-05, 1.25) (-3.1944612503051755e-05, 1.251953125) (-3.0722539901733396e-05, 1.25390625) (-2.9542753219604492e-05, 1.255859375) (-2.843605613708496e-05, 1.2578125) (-2.7421283721923828e-05, 1.259765625) (-2.651375961303711e-05, 1.26171875) (-2.5722347259521484e-05, 1.263671875) (-2.5049613952636716e-05, 1.265625) (-2.4493631362915037e-05, 1.267578125) (-2.404460525512695e-05, 1.26953125) (-2.3686920166015625e-05, 1.271484375) (-2.340934181213379e-05, 1.2734375) (-2.320395278930664e-05, 1.275390625) (-2.3064233779907225e-05, 1.27734375) (-2.298589324951172e-05, 1.279296875) (-2.2961700439453125e-05, 1.28125) (-2.2982650756835935e-05, 1.283203125) (-2.3040359497070313e-05, 1.28515625) (-2.312617301940918e-05, 1.287109375) (-2.323299026489258e-05, 1.2890625) (-2.3355318069458005e-05, 1.291015625) (-2.348777961730957e-05, 1.29296875) (-2.3626014709472654e-05, 1.294921875) (-2.3767505645751952e-05, 1.296875) (-2.3910556793212888e-05, 1.298828125) (-2.4054916381835937e-05, 1.30078125) (-2.4201642990112303e-05, 1.302734375) (-2.4350414276123045e-05, 1.3046875) (-2.44998779296875e-05, 1.306640625) (-2.464856719970703e-05, 1.30859375) (-2.479448127746582e-05, 1.310546875) (-2.493597412109375e-05, 1.3125) (-2.507211112976074e-05, 1.314453125) (-2.5201873779296874e-05, 1.31640625) (-2.5324363708496094e-05, 1.318359375) (-2.5439668655395506e-05, 1.3203125) (-2.5548637390136717e-05, 1.322265625) (-2.5652700424194336e-05, 1.32421875) (-2.5753887176513672e-05, 1.326171875) (-2.585427665710449e-05, 1.328125) (-2.595602798461914e-05, 1.330078125) (-2.606155204772949e-05, 1.33203125) (-2.61733283996582e-05, 1.333984375) (-2.6293836593627927e-05, 1.3359375) (-2.6425607681274413e-05, 1.337890625) (-2.6571075439453123e-05, 1.33984375) (-2.6732715606689453e-05, 1.341796875) (-2.6912933349609374e-05, 1.34375) (-2.711383056640625e-05, 1.345703125) (-2.7337217330932614e-05, 1.34765625) (-2.7584564208984375e-05, 1.349609375) (-2.7856929779052733e-05, 1.3515625) (-2.8154979705810545e-05, 1.353515625) (-2.8478977203369138e-05, 1.35546875) (-2.8828712463378905e-05, 1.357421875) (-2.9203542709350585e-05, 1.359375) (-2.9602558135986327e-05, 1.361328125) (-3.0024497985839843e-05, 1.36328125) (-3.0467803955078124e-05, 1.365234375) (-3.0930702209472655e-05, 1.3671875) (-3.14111328125e-05, 1.369140625) (-3.1906723022460936e-05, 1.37109375) (-3.241476440429687e-05, 1.373046875) (-3.2932262420654294e-05, 1.375) (-3.3455909729003904e-05, 1.376953125) (-3.398214721679687e-05, 1.37890625) (-3.450724029541016e-05, 1.380859375) (-3.502710723876953e-05, 1.3828125) (-3.553740692138672e-05, 1.384765625) (-3.6033668518066404e-05, 1.38671875) (-3.6511302947998044e-05, 1.388671875) (-3.6965675354003904e-05, 1.390625) (-3.739214324951172e-05, 1.392578125) (-3.7785987854003905e-05, 1.39453125) (-3.814250564575195e-05, 1.396484375) (-3.8457077026367186e-05, 1.3984375) (-3.872524642944336e-05, 1.400390625) (-3.8942760467529295e-05, 1.40234375) (-3.910565185546875e-05, 1.404296875) (-3.921028900146484e-05, 1.40625) (-3.9253444671630855e-05, 1.408203125) (-3.9232372283935545e-05, 1.41015625) (-3.914482498168945e-05, 1.412109375) (-3.8989093780517574e-05, 1.4140625) (-3.876399230957031e-05, 1.416015625) (-3.846882629394531e-05, 1.41796875) (-3.810336685180664e-05, 1.419921875) (-3.7667831420898434e-05, 1.421875) (-3.7162860870361326e-05, 1.423828125) (-3.658956527709961e-05, 1.42578125) (-3.594950103759765e-05, 1.427734375) (-3.524468994140625e-05, 1.4296875) (-3.447761535644531e-05, 1.431640625) (-3.365119934082031e-05, 1.43359375) (-3.2768802642822264e-05, 1.435546875) (-3.183419990539551e-05, 1.4375) (-3.085150718688965e-05, 1.439453125) (-2.982510757446289e-05, 1.44140625) (-2.8759588241577146e-05, 1.443359375) (-2.7659696578979493e-05, 1.4453125) (-2.6530300140380857e-05, 1.447265625) (-2.5376388549804685e-05, 1.44921875) (-2.420306396484375e-05, 1.451171875) (-2.3015541076660157e-05, 1.453125) (-2.1819118499755858e-05, 1.455078125) (-2.0619173049926758e-05, 1.45703125) (-1.942112350463867e-05, 1.458984375) (-1.823038864135742e-05, 1.4609375) (-1.7052314758300782e-05, 1.462890625) (-1.589208984375e-05, 1.46484375) (-1.4754665374755859e-05, 1.466796875) (-1.3644696235656737e-05, 1.46875) (-1.2566502571105957e-05, 1.470703125) (-1.152407169342041e-05, 1.47265625) (-1.0521066665649414e-05, 1.474609375) (-9.56082534790039e-06, 1.4765625) (-8.646371841430664e-06, 1.478515625) (-7.780436038970947e-06, 1.48046875) (-6.965449333190917e-06, 1.482421875) (-6.203555107116699e-06, 1.484375) (-5.4965782165527345e-06, 1.486328125) (-4.845973014831543e-06, 1.48828125) (-4.2527875900268554e-06, 1.490234375) (-3.717644453048706e-06, 1.4921875) (-3.240739583969116e-06, 1.494140625) (-2.821878910064697e-06, 1.49609375) (-2.4605131149291993e-06, 1.498046875) (-2.1557662487030028e-06, 1.5) (-1.906482696533203e-06, 1.501953125) (-1.711268424987793e-06, 1.50390625) (-1.5685248374938963e-06, 1.505859375) (-1.4764728546142577e-06, 1.5078125) (-1.433142900466919e-06, 1.509765625) (-1.4363391399383544e-06, 1.51171875) (-1.4836132526397704e-06, 1.513671875) (-1.5722520351409911e-06, 1.515625) (-1.6992921829223632e-06, 1.517578125) (-1.8615615367889404e-06, 1.51953125) (-2.0557239055633543e-06, 1.521484375) (-2.2783265113830567e-06, 1.5234375) (-2.5258598327636716e-06, 1.525390625) (-2.794818162918091e-06, 1.52734375) (-3.081750392913818e-06, 1.529296875) (-3.383294582366943e-06, 1.53125) (-3.6961765289306637e-06, 1.533203125) (-4.0171804428100585e-06, 1.53515625) (-4.3431253433227535e-06, 1.537109375) (-4.67085075378418e-06, 1.5390625) (-4.997212409973144e-06, 1.541015625) (-5.319103717803955e-06, 1.54296875) (-5.633477687835693e-06, 1.544921875) (-5.93736982345581e-06, 1.546875) (-6.227936267852783e-06, 1.548828125) (-6.502497673034668e-06, 1.55078125) (-6.75856590270996e-06, 1.552734375) (-6.993861675262451e-06, 1.5546875) (-7.206293106079101e-06, 1.556640625) (-7.393922328948974e-06, 1.55859375) (-7.5549373626708985e-06, 1.560546875) (-7.68764019012451e-06, 1.5625) (-7.790440559387206e-06, 1.564453125) (-7.861873149871826e-06, 1.56640625) (-7.900616645812989e-06, 1.568359375) (-7.905528545379638e-06, 1.5703125) (-7.875697135925293e-06, 1.572265625) (-7.810490608215332e-06, 1.57421875) (-7.70959711074829e-06, 1.576171875) (-7.573034763336182e-06, 1.578125) (-7.401134490966796e-06, 1.580078125) (-7.194500923156738e-06, 1.58203125) (-6.953964710235595e-06, 1.583984375) (-6.6805515289306634e-06, 1.5859375) (-6.375440597534179e-06, 1.587890625) (-6.0399451255798335e-06, 1.58984375) (-5.6754989624023436e-06, 1.591796875) (-5.283658981323242e-06, 1.59375) (-4.866118431091308e-06, 1.595703125) (-4.424737453460693e-06, 1.59765625) (-3.961551189422607e-06, 1.599609375) (-3.4787659645080565e-06, 1.6015625) (-2.9787354469299316e-06, 1.603515625) (-2.4639170169830323e-06, 1.60546875) (-1.936830163002014e-06, 1.607421875) (-1.4000242948532103e-06, 1.609375) (-8.56042206287384e-07, 1.611328125) (-3.074046671390533e-07, 1.61328125) (2.433890849351883e-07, 1.615234375) (7.938480377197265e-07, 1.6171875) (1.3414617776870726e-06, 1.619140625) (1.8836715221405027e-06, 1.62109375) (2.417865753173828e-06, 1.623046875) (2.9413933753967283e-06, 1.625) (3.4515938758850097e-06, 1.626953125) (3.9458518028259275e-06, 1.62890625) (4.421656608581543e-06, 1.630859375) (4.876667976379395e-06, 1.6328125) (5.308780670166015e-06, 1.634765625) (5.716170310974121e-06, 1.63671875) (6.097317218780518e-06, 1.638671875) (6.450999736785889e-06, 1.640625) (6.7762784957885735e-06, 1.642578125) (7.072462081909179e-06, 1.64453125) (7.339088439941406e-06, 1.646484375) (7.575907230377197e-06, 1.6484375) (7.782872676849366e-06, 1.650390625) (7.960147380828858e-06, 1.65234375) (8.108123779296875e-06, 1.654296875) (8.227431297302246e-06, 1.65625) (8.318957328796386e-06, 1.658203125) (8.383838653564452e-06, 1.66015625) (8.42343521118164e-06, 1.662109375) (8.439289093017578e-06, 1.6640625) (8.433069229125976e-06, 1.666015625) (8.406517028808593e-06, 1.66796875) (8.36138916015625e-06, 1.669921875) (8.299423217773436e-06, 1.671875) (8.222314834594727e-06, 1.673828125) (8.131718635559081e-06, 1.67578125) (8.029278755187988e-06, 1.677734375) (7.916666030883789e-06, 1.6796875) (7.795594215393066e-06, 1.681640625) (7.66783332824707e-06, 1.68359375) (7.535197734832764e-06, 1.685546875) (7.399509906768799e-06, 1.6875) (7.262566089630126e-06, 1.689453125) (7.126080513000488e-06, 1.69140625) (6.991622447967529e-06, 1.693359375) (6.8605494499206536e-06, 1.6953125) (6.733969688415527e-06, 1.697265625) (6.612720489501953e-06, 1.69921875) (6.497395992279052e-06, 1.701171875) (6.388377666473389e-06, 1.703125) (6.285845756530761e-06, 1.705078125) (6.1897969245910645e-06, 1.70703125) (6.100047588348388e-06, 1.708984375) (6.016225814819336e-06, 1.7109375) (5.937789916992187e-06, 1.712890625) (5.864013671875e-06, 1.71484375) (5.793941497802734e-06, 1.716796875) (5.726368904113769e-06, 1.71875) (5.659867286682128e-06, 1.720703125) (5.592818260192871e-06, 1.72265625) (5.523502826690674e-06, 1.724609375) (5.450183868408203e-06, 1.7265625) (5.371140480041503e-06, 1.728515625) (5.284727096557617e-06, 1.73046875) (5.189436912536621e-06, 1.732421875) (5.083948135375976e-06, 1.734375) (4.967138290405273e-06, 1.736328125) (4.838086128234863e-06, 1.73828125) (4.696006298065185e-06, 1.740234375) (4.540191650390625e-06, 1.7421875) (4.370042324066162e-06, 1.744140625) (4.185084819793701e-06, 1.74609375) (3.985013246536255e-06, 1.748046875) (3.7697386741638183e-06, 1.75) (3.5393526554107663e-06, 1.751953125) (3.294157028198242e-06, 1.75390625) (3.0347113609313962e-06, 1.755859375) (2.7618718147277832e-06, 1.7578125) (2.4768428802490233e-06, 1.759765625) (2.1811437606811522e-06, 1.76171875) (1.8764728307723999e-06, 1.763671875) (1.5646309852600098e-06, 1.765625) (1.2475850582122802e-06, 1.767578125) (9.274544715881347e-07, 1.76953125) (6.065490841865539e-07, 1.771484375) (2.873842716217041e-07, 1.7734375) (-2.7469217777252195e-08, 1.775390625) (-3.353793621063232e-07, 1.77734375) (-6.335219144821167e-07, 1.779296875) (-9.188361167907715e-07, 1.78125) (-1.1881005764007568e-06, 1.783203125) (-1.4379931688308716e-06, 1.78515625) (-1.665262699127197e-06, 1.787109375) (-1.866875648498535e-06, 1.7890625) (-2.039909839630127e-06, 1.791015625) (-2.1815619468688964e-06, 1.79296875) (-2.289222240447998e-06, 1.794921875) (-2.360525131225586e-06, 1.796875) (-2.393418788909912e-06, 1.798828125) (-2.3861711025238036e-06, 1.80078125) (-2.337246894836426e-06, 1.802734375) (-2.2451727390289304e-06, 1.8046875) (-2.1086499691009523e-06, 1.806640625) (-1.9266486167907714e-06, 1.80859375) (-1.698572278022766e-06, 1.810546875) (-1.4243323802947997e-06, 1.8125) (-1.1041175127029418e-06, 1.814453125) (-7.383828759193421e-07, 1.81640625) (-3.278728723526001e-07, 1.818359375) (1.2629739940166472e-07, 1.8203125) (6.224583387374878e-07, 1.822265625) (1.158494710922241e-06, 1.82421875) (1.7321894168853759e-06, 1.826171875) (2.3413777351379393e-06, 1.828125) (2.9836852550506592e-06, 1.830078125) (3.656494379043579e-06, 1.83203125) (4.3568477630615235e-06, 1.833984375) (5.0814080238342285e-06, 1.8359375) (5.82691478729248e-06, 1.837890625) (6.590198516845702e-06, 1.83984375) (7.3678278923034665e-06, 1.841796875) (8.155932426452636e-06, 1.84375) (8.950379371643065e-06, 1.845703125) (9.746868133544921e-06, 1.84765625) (1.0541147232055664e-05, 1.849609375) (1.1329311370849608e-05, 1.8515625) (1.2107393264770507e-05, 1.853515625) (1.2871168136596679e-05, 1.85546875) (1.3616321563720702e-05, 1.857421875) (1.4338573455810546e-05, 1.859375) (1.5033574104309082e-05, 1.861328125) (1.569693565368652e-05, 1.86328125) (1.6323989868164063e-05, 1.865234375) (1.6909360885620118e-05, 1.8671875) (1.7447582244873047e-05, 1.869140625) (1.7933551788330077e-05, 1.87109375) (1.8362560272216796e-05, 1.873046875) (1.8730422973632812e-05, 1.875) (1.903336715698242e-05, 1.876953125) (1.9267930984497068e-05, 1.87890625) (1.9431503295898438e-05, 1.880859375) (1.9522741317749022e-05, 1.8828125) (1.9540735244750976e-05, 1.884765625) (1.948457908630371e-05, 1.88671875) (1.935281753540039e-05, 1.888671875) (1.914315414428711e-05, 1.890625) (1.885409927368164e-05, 1.892578125) (1.8485166549682615e-05, 1.89453125) (1.8036117553710938e-05, 1.896484375) (1.750694465637207e-05, 1.8984375) (1.689731979370117e-05, 1.900390625) (1.6206180572509765e-05, 1.90234375) (1.5434766769409178e-05, 1.904296875) (1.458737564086914e-05, 1.90625) (1.3666492462158203e-05, 1.908203125) (1.267305850982666e-05, 1.91015625) (1.1605051040649414e-05, 1.912109375) (1.0456560134887694e-05, 1.9140625) (9.226261138916016e-06, 1.916015625) (7.919455528259277e-06, 1.91796875) (6.543920040130615e-06, 1.919921875) (5.109046459197998e-06, 1.921875) (3.627087116241455e-06, 1.923828125) (2.1126132011413573e-06, 1.92578125) (5.884698033332825e-07, 1.927734375) (-9.124000072479248e-07, 1.9296875) (-2.358234405517578e-06, 1.931640625) (-3.719399929046631e-06, 1.93359375) (-4.972527503967285e-06, 1.935546875) (-6.100541591644287e-06, 1.9375) (-7.07702350616455e-06, 1.939453125) (-7.868363380432129e-06, 1.94140625) (-8.43649959564209e-06, 1.943359375) (-8.74128246307373e-06, 1.9453125) (-8.758563995361328e-06, 1.947265625) (-8.483476638793945e-06, 1.94921875) (-7.913878440856933e-06, 1.951171875) (-7.0474362373352045e-06, 1.953125) (-5.898516654968261e-06, 1.955078125) (-4.496079921722412e-06, 1.95703125) (-2.8963572978973386e-06, 1.958984375) (-1.1847572326660156e-06, 1.9609375) (5.658410787582397e-07, 1.962890625) (2.295732498168945e-06, 1.96484375) (3.949337005615234e-06, 1.966796875) (5.471355438232422e-06, 1.96875) (6.787222385406494e-06, 1.970703125) (7.810181617736815e-06, 1.97265625) (8.460695266723633e-06, 1.974609375) (8.675922393798827e-06, 1.9765625) (8.41990566253662e-06, 1.978515625) (7.695575714111328e-06, 1.98046875) (6.519946575164795e-06, 1.982421875) (4.912343502044678e-06, 1.984375) (2.939260959625244e-06, 1.986328125) (6.962219476699828e-07, 1.98828125) (-1.6903961896896362e-06, 1.990234375) (-4.035840988159179e-06, 1.9921875) (-6.161802291870117e-06, 1.994140625) (-7.904956340789794e-06, 1.99609375) (-9.065249443054198e-06, 1.998046875) (-9.409128189086913e-06, 2.0) (-8.704123497009277e-06, 2.001953125) (-6.658169746398926e-06, 2.00390625) (-2.944087505340576e-06, 2.005859375) (2.6200885772705077e-06, 2.0078125) (1.0089035987854003e-05, 2.009765625) (1.9356472015380858e-05, 2.01171875) (3.0100698471069336e-05, 2.013671875) (4.2015262603759766e-05, 2.015625) (5.4894226074218746e-05, 2.017578125) (6.840471649169921e-05, 2.01953125) (8.210998535156249e-05, 2.021484375) (9.590805053710937e-05, 2.0234375) (0.00011004215240478515, 2.025390625) (0.00012518142700195312, 2.02734375) (0.0001424752197265625, 2.029296875) (0.00016276559448242186, 2.03125) (0.00018631414794921875, 2.033203125) (0.0002133271789550781, 2.03515625) (0.00024388415527343748, 2.037109375) (0.00027719519042968747, 2.0390625) (0.00031169763183593746, 2.041015625) (0.00034495251464843746, 2.04296875) (0.00037357186889648434, 2.044921875) (0.0003946065979003906, 2.046875) (0.0004060125122070312, 2.048828125) (0.00040586151123046875, 2.05078125) (0.0003925634155273437, 2.052734375) (0.0003659279174804687, 2.0546875) (0.0003269852294921875, 2.056640625) (0.00027809344482421873, 2.05859375) (0.00022305731201171874, 2.060546875) (0.00016558953857421875, 2.0625) (0.00010885005950927734, 2.064453125) (5.631324768066406e-05, 2.06640625) (1.1436049461364746e-05, 2.068359375) (-2.361521530151367e-05, 2.0703125) (-4.785293579101562e-05, 2.072265625) (-6.151123809814453e-05, 2.07421875) (-6.619425201416015e-05, 2.076171875) (-6.368647003173828e-05, 2.078125) (-5.5663635253906246e-05, 2.080078125) (-4.444374847412109e-05, 2.08203125) (-3.2712226867675777e-05, 2.083984375) (-2.2357326507568357e-05, 2.0859375) (-1.4484916687011718e-05, 2.087890625) (-9.500329971313476e-06, 2.08984375) (-7.00792646408081e-06, 2.091796875) (-6.544073104858398e-06, 2.09375) (-7.720938205718993e-06, 2.095703125) (-9.708403587341307e-06, 2.09765625) (-1.13741455078125e-05, 2.099609375) (-1.2022207260131835e-05, 2.1015625) (-1.1393520355224608e-05, 2.103515625) (-9.551109313964843e-06, 2.10546875) (-6.913577079772949e-06, 2.107421875) (-3.844297409057617e-06, 2.109375) (-5.73739469051361e-07, 2.111328125) (2.528625726699829e-06, 2.11328125) (5.006842136383057e-06, 2.115234375) (6.595453262329101e-06, 2.1171875) (7.1928844451904295e-06, 2.119140625) (6.835089683532714e-06, 2.12109375) (5.724835395812988e-06, 2.123046875) (4.037283897399902e-06, 2.125) (1.8848332166671752e-06, 2.126953125) (-5.871045589447022e-07, 2.12890625) (-3.2294702529907226e-06, 2.130859375) (-5.916632652282715e-06, 2.1328125) (-8.511287689208983e-06, 2.134765625) (-1.0901553153991698e-05, 2.13671875) (-1.304012107849121e-05, 2.138671875) (-1.4888286590576171e-05, 2.140625) (-1.6413578033447266e-05, 2.142578125) (-1.7603879928588866e-05, 2.14453125) (-1.8439651489257813e-05, 2.146484375) (-1.8915119171142577e-05, 2.1484375) (-1.905733871459961e-05, 2.150390625) (-1.890359306335449e-05, 2.15234375) (-1.8492311477661133e-05, 2.154296875) (-1.7864456176757813e-05, 2.15625) (-1.7053165435791013e-05, 2.158203125) (-1.6087512969970704e-05, 2.16015625) (-1.5005618095397948e-05, 2.162109375) (-1.384971809387207e-05, 2.1640625) (-1.2665713310241699e-05, 2.166015625) (-1.150053310394287e-05, 2.16796875) (-1.0385716438293456e-05, 2.169921875) (-9.341440200805663e-06, 2.171875) (-8.38350772857666e-06, 2.173828125) (-7.521831512451172e-06, 2.17578125) (-6.764738082885742e-06, 2.177734375) (-6.115585327148438e-06, 2.1796875) (-5.5665345191955566e-06, 2.181640625) (-5.104178428649902e-06, 2.18359375) (-4.718666076660156e-06, 2.185546875) (-4.403056144714355e-06, 2.1875) (-4.153250694274902e-06, 2.189453125) (-3.967323064804077e-06, 2.19140625) (-3.839257001876831e-06, 2.193359375) (-3.7612578868865964e-06, 2.1953125) (-3.7269396781921384e-06, 2.197265625) (-3.7299494743347167e-06, 2.19921875) (-3.7658190727233883e-06, 2.201171875) (-3.831698417663574e-06, 2.203125) (-3.924304008483886e-06, 2.205078125) (-4.0407943725585935e-06, 2.20703125) (-4.180030345916748e-06, 2.208984375) (-4.341957569122314e-06, 2.2109375) (-4.527833938598632e-06, 2.212890625) (-4.739991188049316e-06, 2.21484375) (-4.979257106781006e-06, 2.216796875) (-5.245284557342529e-06, 2.21875) (-5.537535667419434e-06, 2.220703125) (-5.8549313545227045e-06, 2.22265625) (-6.196531295776367e-06, 2.224609375) (-6.561663627624511e-06, 2.2265625) (-6.949267387390137e-06, 2.228515625) (-7.3581614494323726e-06, 2.23046875) (-7.787981510162352e-06, 2.232421875) (-8.23891258239746e-06, 2.234375) (-8.711479187011719e-06, 2.236328125) (-9.20667839050293e-06, 2.23828125) (-9.725383758544922e-06, 2.240234375) (-1.0268403053283691e-05, 2.2421875) (-1.0836833953857422e-05, 2.244140625) (-1.1431792259216308e-05, 2.24609375) (-1.2054187774658202e-05, 2.248046875) (-1.270488452911377e-05, 2.25) (-1.3384660720825195e-05, 2.251953125) (-1.4094146728515625e-05, 2.25390625) (-1.4834132194519043e-05, 2.255859375) (-1.560532760620117e-05, 2.2578125) (-1.6408063888549805e-05, 2.259765625) (-1.7242523193359373e-05, 2.26171875) (-1.8108688354492188e-05, 2.263671875) (-1.9006221771240234e-05, 2.265625) (-1.9934532165527342e-05, 2.267578125) (-2.0892648696899412e-05, 2.26953125) (-2.1879011154174804e-05, 2.271484375) (-2.2891632080078123e-05, 2.2734375) (-2.3928213119506836e-05, 2.275390625) (-2.4986045837402343e-05, 2.27734375) (-2.6062181472778318e-05, 2.279296875) (-2.715345573425293e-05, 2.28125) (-2.825637626647949e-05, 2.283203125) (-2.9367279052734372e-05, 2.28515625) (-3.0482385635375975e-05, 2.287109375) (-3.1597763061523435e-05, 2.2890625) (-3.270935821533203e-05, 2.291015625) (-3.381302261352539e-05, 2.29296875) (-3.490425872802734e-05, 2.294921875) (-3.597837829589844e-05, 2.296875) (-3.703056716918945e-05, 2.298828125) (-3.8055904388427734e-05, 2.30078125) (-3.904947662353515e-05, 2.302734375) (-4.00064697265625e-05, 2.3046875) (-4.0922088623046875e-05, 2.306640625) (-4.1791679382324215e-05, 2.30859375) (-4.261088943481445e-05, 2.310546875) (-4.3375595092773437e-05, 2.3125) (-4.40819206237793e-05, 2.314453125) (-4.472629928588867e-05, 2.31640625) (-4.5305389404296874e-05, 2.318359375) (-4.5816146850585935e-05, 2.3203125) (-4.625591278076172e-05, 2.322265625) (-4.662237548828125e-05, 2.32421875) (-4.6913700103759765e-05, 2.326171875) (-4.712856292724609e-05, 2.328125) (-4.726620101928711e-05, 2.330078125) (-4.732647705078125e-05, 2.33203125) (-4.730989074707031e-05, 2.333984375) (-4.721753311157226e-05, 2.3359375) (-4.705110931396484e-05, 2.337890625) (-4.6812911987304684e-05, 2.33984375) (-4.650570678710937e-05, 2.341796875) (-4.613272094726562e-05, 2.34375) (-4.569758224487304e-05, 2.345703125) (-4.520425415039062e-05, 2.34765625) (-4.465699005126953e-05, 2.349609375) (-4.4060302734375e-05, 2.3515625) (-4.341901397705078e-05, 2.353515625) (-4.2738250732421875e-05, 2.35546875) (-4.202335357666015e-05, 2.357421875) (-4.127988052368164e-05, 2.359375) (-4.0513298034667966e-05, 2.361328125) (-3.9728790283203126e-05, 2.36328125) (-3.893183898925781e-05, 2.365234375) (-3.8128200531005854e-05, 2.3671875) (-3.732307052612304e-05, 2.369140625) (-3.65214729309082e-05, 2.37109375) (-3.572758865356445e-05, 2.373046875) (-3.494381713867187e-05, 2.375) (-3.417491912841797e-05, 2.376953125) (-3.342855072021484e-05, 2.37890625) (-3.271061706542969e-05, 2.380859375) (-3.202610778808593e-05, 2.3828125) (-3.137876129150391e-05, 2.384765625) (-3.076757431030273e-05, 2.38671875) (-3.0196081161499024e-05, 2.388671875) (-2.967652130126953e-05, 2.390625) (-2.9207557678222656e-05, 2.392578125) (-2.8773786544799805e-05, 2.39453125) (-2.8363555908203123e-05, 2.396484375) (-2.796257781982422e-05, 2.3984375) (-2.7569299697875976e-05, 2.400390625) (-2.7209503173828124e-05, 2.40234375) (-2.68885383605957e-05, 2.404296875) (-2.6577960968017576e-05, 2.40625) (-2.629288864135742e-05, 2.408203125) (-2.6091501235961914e-05, 2.41015625) (-2.6017654418945312e-05, 2.412109375) (-2.6119594573974607e-05, 2.4140625) (-2.640442657470703e-05, 2.416015625) (-2.6794574737548828e-05, 2.41796875) (-2.725943565368652e-05, 2.419921875) (-2.787495994567871e-05, 2.421875) (-2.8567523956298825e-05, 2.423828125) (-2.904204177856445e-05, 2.42578125) (-2.9215188980102536e-05, 2.427734375) (-2.917755889892578e-05, 2.4296875) (-2.8888879776000974e-05, 2.431640625) (-2.8634925842285156e-05, 2.43359375) (-2.7916568756103515e-05, 2.435546875) (-2.4906972885131836e-05, 2.4375) (-1.98447265625e-05, 2.439453125) (-1.4462121009826659e-05, 2.44140625) (-1.1376338958740234e-05, 2.443359375) (-1.574032402038574e-05, 2.4453125) (-2.7647701263427733e-05, 2.447265625) (-4.181827163696289e-05, 2.44921875) (-5.313295745849609e-05, 2.451171875) (-5.43035888671875e-05, 2.453125) (-4.430378723144531e-05, 2.455078125) (-3.013844871520996e-05, 2.45703125) (-1.7261074066162108e-05, 2.458984375) (-1.1386404991149902e-05, 2.4609375) (-1.3960071563720702e-05, 2.462890625) (-1.977582550048828e-05, 2.46484375) (-2.5494150161743164e-05, 2.466796875) (-2.9003158569335935e-05, 2.46875) (-2.9466506958007812e-05, 2.470703125) (-2.8990291595458983e-05, 2.47265625) (-2.8637840270996094e-05, 2.474609375) (-2.8312017440795897e-05, 2.4765625) (-2.8104030609130858e-05, 2.478515625) (-2.7706586837768553e-05, 2.48046875) (-2.7013284683227537e-05, 2.482421875) (-2.6315052032470703e-05, 2.484375) (-2.5711891174316405e-05, 2.486328125) (-2.515450096130371e-05, 2.48828125) (-2.4650974273681638e-05, 2.490234375) (-2.4217845916748045e-05, 2.4921875) (-2.3846427917480467e-05, 2.494140625) (-2.3525783538818357e-05, 2.49609375) (-2.323226547241211e-05, 2.498046875) (-2.291832160949707e-05, 2.5) (-2.2567316055297852e-05, 2.501953125) (-2.2202987670898438e-05, 2.50390625) (-2.1834287643432617e-05, 2.505859375) (-2.14586067199707e-05, 2.5078125) (-2.107750129699707e-05, 2.509765625) (-2.068923568725586e-05, 2.51171875) (-2.0295089721679686e-05, 2.513671875) (-1.9902210235595704e-05, 2.515625) (-1.9513029098510742e-05, 2.517578125) (-1.9124820709228515e-05, 2.51953125) (-1.873664855957031e-05, 2.521484375) (-1.834844207763672e-05, 2.5234375) (-1.7960243225097656e-05, 2.525390625) (-1.7573173522949216e-05, 2.52734375) (-1.7187910079956054e-05, 2.529296875) (-1.680454635620117e-05, 2.53125) (-1.642336654663086e-05, 2.533203125) (-1.604469108581543e-05, 2.53515625) (-1.5668806076049804e-05, 2.537109375) (-1.529596519470215e-05, 2.5390625) (-1.4926301956176757e-05, 2.541015625) (-1.4559789657592772e-05, 2.54296875) (-1.419624137878418e-05, 2.544921875) (-1.3835309982299803e-05, 2.546875) (-1.3476532936096191e-05, 2.548828125) (-1.3119329452514647e-05, 2.55078125) (-1.2763033866882324e-05, 2.552734375) (-1.2406944274902343e-05, 2.5546875) (-1.2050402641296386e-05, 2.556640625) (-1.1692845344543456e-05, 2.55859375) (-1.1333847045898437e-05, 2.560546875) (-1.0973102569580077e-05, 2.5625) (-1.0610424041748047e-05, 2.564453125) (-1.0245736122131347e-05, 2.56640625) (-9.879090309143066e-06, 2.568359375) (-9.51066493988037e-06, 2.5703125) (-9.140738487243652e-06, 2.572265625) (-8.769636154174804e-06, 2.57421875) (-8.397706985473632e-06, 2.576171875) (-8.025315284729004e-06, 2.578125) (-7.65285301208496e-06, 2.580078125) (-7.2807354927062984e-06, 2.58203125) (-6.909382820129394e-06, 2.583984375) (-6.539168834686279e-06, 2.5859375) (-6.17038869857788e-06, 2.587890625) (-5.803257942199707e-06, 2.58984375) (-5.437926769256592e-06, 2.591796875) (-5.074488639831543e-06, 2.59375) (-4.712990283966064e-06, 2.595703125) (-4.3534297943115235e-06, 2.59765625) (-3.9957828521728515e-06, 2.599609375) (-3.640078544616699e-06, 2.6015625) (-3.2864701747894286e-06, 2.603515625) (-2.935283660888672e-06, 2.60546875) (-2.5870475769042968e-06, 2.607421875) (-2.242486238479614e-06, 2.609375) (-1.902513027191162e-06, 2.611328125) (-1.5682388544082642e-06, 2.61328125) (-1.2409634590148925e-06, 2.615234375) (-9.221245646476745e-07, 2.6171875) (-6.132405996322632e-07, 2.619140625) (-3.1583741307258605e-07, 2.62109375) (-3.1391896307468414e-08, 2.623046875) (2.386681735515594e-07, 2.625) (4.929657876491547e-07, 2.626953125) (7.301992177963257e-07, 2.62890625) (9.491602182388305e-07, 2.630859375) (1.1487611532211304e-06, 2.6328125) (1.3280508518218993e-06, 2.634765625) (1.4861605167388916e-06, 2.63671875) (1.6222654581069946e-06, 2.638671875) (1.7356148958206177e-06, 2.640625) (1.8255317211151123e-06, 2.642578125) (1.8914318084716796e-06, 2.64453125) (1.932831048965454e-06, 2.646484375) (1.9492557048797606e-06, 2.6484375) (1.9401910305023193e-06, 2.650390625) (1.90511155128479e-06, 2.65234375) (1.8434793949127197e-06, 2.654296875) (1.7547438144683836e-06, 2.65625) (1.6383798122406004e-06, 2.658203125) (1.493847370147705e-06, 2.66015625) (1.3205950260162354e-06, 2.662109375) (1.1182039976119995e-06, 2.6640625) (8.864471912384033e-07, 2.666015625) (6.253521442413329e-07, 2.66796875) (3.3529624342918394e-07, 2.669921875) (1.696626842021942e-08, 2.671875) (-3.2866525650024415e-07, 2.673828125) (-7.002741694450378e-07, 2.67578125) (-1.0961998701095581e-06, 2.677734375) (-1.514472723007202e-06, 2.6796875) (-1.9527869224548338e-06, 2.681640625) (-2.408630847930908e-06, 2.68359375) (-2.879404067993164e-06, 2.685546875) (-3.3623433113098142e-06, 2.6875) (-3.854532718658447e-06, 2.689453125) (-4.352945327758789e-06, 2.69140625) (-4.854415893554688e-06, 2.693359375) (-5.355781078338622e-06, 2.6953125) (-5.854012012481689e-06, 2.697265625) (-6.346080303192139e-06, 2.69921875) (-6.8289084434509275e-06, 2.701171875) (-7.299490928649902e-06, 2.703125) (-7.754834651947021e-06, 2.705078125) (-8.192059516906739e-06, 2.70703125) (-8.608484268188477e-06, 2.708984375) (-9.001388549804687e-06, 2.7109375) (-9.367946624755859e-06, 2.712890625) (-9.705340385437011e-06, 2.71484375) (-1.0010678291320801e-05, 2.716796875) (-1.0280988693237305e-05, 2.71875) (-1.0513364791870116e-05, 2.720703125) (-1.0704771995544434e-05, 2.72265625) (-1.0852045059204102e-05, 2.724609375) (-1.0952207565307616e-05, 2.7265625) (-1.1002418518066405e-05, 2.728515625) (-1.1000081062316895e-05, 2.73046875) (-1.094314670562744e-05, 2.732421875) (-1.0829890251159667e-05, 2.734375) (-1.0658853530883789e-05, 2.736328125) (-1.0429059028625488e-05, 2.73828125) (-1.013990306854248e-05, 2.740234375) (-9.791191101074218e-06, 2.7421875) (-9.383417129516602e-06, 2.744140625) (-8.917455673217772e-06, 2.74609375) (-8.394315719604492e-06, 2.748046875) (-7.815435409545897e-06, 2.75) (-7.182682037353515e-06, 2.751953125) (-6.49830150604248e-06, 2.75390625) (-5.765070915222168e-06, 2.755859375) (-4.985965251922607e-06, 2.7578125) (-4.1637697219848634e-06, 2.759765625) (-3.3014521598815917e-06, 2.76171875) (-2.4023151397705076e-06, 2.763671875) (-1.4697091579437255e-06, 2.765625) (-5.072094202041625e-07, 2.767578125) (4.81559157371521e-07, 2.76953125) (1.4931683540344238e-06, 2.771484375) (2.5239129066467284e-06, 2.7734375) (3.5696067810058594e-06, 2.775390625) (4.625886917114258e-06, 2.77734375) (5.688128471374512e-06, 2.779296875) (6.7510452270507806e-06, 2.78125) (7.809100151062012e-06, 2.783203125) (8.85616111755371e-06, 2.78515625) (9.885039329528808e-06, 2.787109375) (1.0888423919677734e-05, 2.7890625) (1.185879898071289e-05, 2.791015625) (1.2788114547729492e-05, 2.79296875) (1.3668636322021484e-05, 2.794921875) (1.4493419647216797e-05, 2.796875) (1.5255751609802246e-05, 2.798828125) (1.5949996948242187e-05, 2.80078125) (1.65718994140625e-05, 2.802734375) (1.711674880981445e-05, 2.8046875) (1.75804386138916e-05, 2.806640625) (1.795978546142578e-05, 2.80859375) (1.8250511169433594e-05, 2.810546875) (1.8448627471923826e-05, 2.8125) (1.8550899505615233e-05, 2.814453125) (1.8552820205688474e-05, 2.81640625) (1.845064353942871e-05, 2.818359375) (1.82431526184082e-05, 2.8203125) (1.7928812026977538e-05, 2.822265625) (1.7508594512939454e-05, 2.82421875) (1.6987762451171875e-05, 2.826171875) (1.636824035644531e-05, 2.828125) (1.5650012016296386e-05, 2.830078125) (1.4832117080688475e-05, 2.83203125) (1.390796661376953e-05, 2.833984375) (1.2874048233032225e-05, 2.8359375) (1.1732799530029296e-05, 2.837890625) (1.0484735488891602e-05, 2.83984375) (9.132730484008789e-06, 2.841796875) (7.687445640563964e-06, 2.84375) (6.1643781661987305e-06, 2.845703125) (4.59147834777832e-06, 2.84765625) (3.0078201293945313e-06, 2.849609375) (1.4445888996124266e-06, 2.8515625) (-7.14477002620697e-08, 2.853515625) (-1.5171879529953003e-06, 2.85546875) (-2.8812127113342283e-06, 2.857421875) (-4.143345832824707e-06, 2.859375) (-5.2730636596679684e-06, 2.861328125) (-6.242349624633789e-06, 2.86328125) (-7.015567302703857e-06, 2.865234375) (-7.561854839324951e-06, 2.8671875) (-7.868966102600097e-06, 2.869140625) (-7.92168140411377e-06, 2.87109375) (-7.702241420745849e-06, 2.873046875) (-7.215552330017089e-06, 2.875) (-6.492043018341064e-06, 2.876953125) (-5.596768856048584e-06, 2.87890625) (-4.625915050506592e-06, 2.880859375) (-3.659981250762939e-06, 2.8828125) (-2.7449283599853516e-06, 2.884765625) (-1.904263973236084e-06, 2.88671875) (-1.1604030132293701e-06, 2.888671875) (-5.698148012161255e-07, 2.890625) (-2.1398943662643432e-07, 2.892578125) (-1.7971029877662657e-07, 2.89453125) (-5.485167503356934e-07, 2.896484375) (-1.3382213115692138e-06, 2.8984375) (-2.5571260452270505e-06, 2.900390625) (-4.266478538513184e-06, 2.90234375) (-6.443973541259766e-06, 2.904296875) (-8.973611831665039e-06, 2.90625) (-1.1639167785644531e-05, 2.908203125) (-1.3988332748413085e-05, 2.91015625) (-1.555429458618164e-05, 2.912109375) (-1.615830612182617e-05, 2.9140625) (-1.5681753158569336e-05, 2.916015625) (-1.4028841018676757e-05, 2.91796875) (-1.1414636611938476e-05, 2.919921875) (-7.971476078033446e-06, 2.921875) (-3.853209972381592e-06, 2.923828125) (2.1622562408447264e-07, 2.92578125) (3.6453804969787595e-06, 2.927734375) (6.371863365173339e-06, 2.9296875) (8.337530136108398e-06, 2.931640625) (9.926068305969238e-06, 2.93359375) (1.2241504669189453e-05, 2.935546875) (1.595133876800537e-05, 2.9375) (2.16097412109375e-05, 2.939453125) (3.060689926147461e-05, 2.94140625) (4.4010150909423826e-05, 2.943359375) (6.249280166625977e-05, 2.9453125) (8.698315429687499e-05, 2.947265625) (0.00011725485229492187, 2.94921875) (0.0001519075012207031, 2.951171875) (0.00019005099487304686, 2.953125) (0.00023070574951171874, 2.955078125) (0.000271900390625, 2.95703125) (0.00031173663330078124, 2.958984375) (0.0003479627990722656, 2.9609375) (0.00037752917480468747, 2.962890625) (0.000398546142578125, 2.96484375) (0.000410306396484375, 2.966796875) (0.0004118547668457031, 2.96875) (0.0004023700561523437, 2.970703125) (0.0003829073791503906, 2.97265625) (0.0003548737182617187, 2.974609375) (0.0003190726623535156, 2.9765625) (0.0002784669189453125, 2.978515625) (0.00023337884521484374, 2.98046875) (0.00018329550170898437, 2.982421875) (0.00013352442932128907, 2.984375) (8.788665008544921e-05, 2.986328125) (5.100143814086914e-05, 2.98828125) (2.8157407760620115e-05, 2.990234375) (1.570923137664795e-05, 2.9921875) (9.4268798828125e-06, 2.994140625) (6.167662620544434e-06, 2.99609375) (1.3425235748291015e-06, 2.998046875) (-4.074803829193115e-06, 3.0) (-8.665363311767578e-06, 3.001953125) (-1.3010443687438964e-05, 3.00390625) (-1.6574628829956054e-05, 3.005859375) (-2.037053680419922e-05, 3.0078125) (-2.5140766143798827e-05, 3.009765625) (-3.023481559753418e-05, 3.01171875) (-3.517185592651367e-05, 3.013671875) (-3.917964935302734e-05, 3.015625) (-4.1714916229248044e-05, 3.017578125) (-4.2657951354980466e-05, 3.01953125) (-4.194496536254883e-05, 3.021484375) (-3.9716545104980465e-05, 3.0234375) (-3.627643585205078e-05, 3.025390625) (-3.2020362854003905e-05, 3.02734375) (-2.7476945877075194e-05, 3.029296875) (-2.3162799835205076e-05, 3.03125) (-1.9376731872558592e-05, 3.033203125) (-1.6293277740478516e-05, 3.03515625) (-1.3997951507568359e-05, 3.037109375) (-1.2487150192260742e-05, 3.0390625) (-1.1765098571777343e-05, 3.041015625) (-1.179981803894043e-05, 3.04296875) (-1.2483396530151366e-05, 3.044921875) (-1.3685627937316894e-05, 3.046875) (-1.5290706634521484e-05, 3.048828125) (-1.7203727722167968e-05, 3.05078125) (-1.9362173080444334e-05, 3.052734375) (-2.1704317092895507e-05, 3.0546875) (-2.413159370422363e-05, 3.056640625) (-2.6523708343505857e-05, 3.05859375) (-2.8758127212524414e-05, 3.060546875) (-3.0741058349609374e-05, 3.0625) (-3.242284393310547e-05, 3.064453125) (-3.377926254272461e-05, 3.06640625) (-3.4795257568359376e-05, 3.068359375) (-3.546250915527344e-05, 3.0703125) (-3.578364562988281e-05, 3.072265625) (-3.578009033203125e-05, 3.07421875) (-3.549314880371094e-05, 3.076171875) (-3.496571350097656e-05, 3.078125) (-3.423400497436523e-05, 3.080078125) (-3.332917022705078e-05, 3.08203125) (-3.227932357788086e-05, 3.083984375) (-3.1121723175048825e-05, 3.0859375) (-2.9903923034667967e-05, 3.087890625) (-2.867900276184082e-05, 3.08984375) (-2.7493654251098633e-05, 3.091796875) (-2.6380027770996093e-05, 3.09375) (-2.5368759155273436e-05, 3.095703125) (-2.4480905532836912e-05, 3.09765625) (-2.3730091094970703e-05, 3.099609375) (-2.312868309020996e-05, 3.1015625) (-2.2667186737060546e-05, 3.103515625) (-2.232105827331543e-05, 3.10546875) (-2.2087894439697265e-05, 3.107421875) (-2.1969608306884766e-05, 3.109375) (-2.192671012878418e-05, 3.111328125) (-2.192945098876953e-05, 3.11328125) (-2.1954809188842773e-05, 3.115234375) (-2.196591567993164e-05, 3.1171875) (-2.1976903915405272e-05, 3.119140625) (-2.2026275634765624e-05, 3.12109375) (-2.207758331298828e-05, 3.123046875) (-2.2074619293212888e-05, 3.125) (-2.2137903213500975e-05, 3.126953125) (-2.2410972595214842e-05, 3.12890625) (-2.279934501647949e-05, 3.130859375) (-2.3308399200439453e-05, 3.1328125) (-2.396365928649902e-05, 3.134765625) (-2.44422607421875e-05, 3.13671875) (-2.5611488342285154e-05, 3.138671875) (-2.8313625335693358e-05, 3.140625) (-3.13411750793457e-05, 3.142578125) (-3.432635498046875e-05, 3.14453125) (-3.505220413208008e-05, 3.146484375) (-3.0865930557250976e-05, 3.1484375) (-2.4699039459228513e-05, 3.150390625) (-1.8504426956176757e-05, 3.15234375) (-1.5190995216369629e-05, 3.154296875) (-1.8756431579589843e-05, 3.15625) (-2.5662647247314453e-05, 3.158203125) (-3.291093444824219e-05, 3.16015625) (-3.844697952270508e-05, 3.162109375) (-3.8875675201416015e-05, 3.1640625) (-3.662496185302734e-05, 3.166015625) (-3.415590667724609e-05, 3.16796875) (-3.2016117095947264e-05, 3.169921875) (-3.170587921142578e-05, 3.171875) (-3.235512924194336e-05, 3.173828125) (-3.284466552734375e-05, 3.17578125) (-3.338792037963867e-05, 3.177734375) (-3.384212875366211e-05, 3.1796875) (-3.428190612792969e-05, 3.181640625) (-3.4933502197265624e-05, 3.18359375) (-3.564762115478515e-05, 3.185546875) (-3.630422592163086e-05, 3.1875) (-3.694124603271484e-05, 3.189453125) (-3.7565727233886714e-05, 3.19140625) (-3.8161674499511714e-05, 3.193359375) (-3.873006057739258e-05, 3.1953125) (-3.927705001831054e-05, 3.197265625) (-3.98043098449707e-05, 3.19921875) (-4.0330467224121095e-05, 3.201171875) (-4.087799835205078e-05, 3.203125) (-4.143318176269531e-05, 3.205078125) (-4.1982318878173824e-05, 3.20703125) (-4.252588653564453e-05, 3.208984375) (-4.305932998657226e-05, 3.2109375) (-4.357932662963867e-05, 3.212890625) (-4.4084308624267574e-05, 3.21484375) (-4.456765365600586e-05, 3.216796875) (-4.5022457122802735e-05, 3.21875) (-4.544659423828125e-05, 3.220703125) (-4.583750152587891e-05, 3.22265625) (-4.619130706787109e-05, 3.224609375) (-4.650483703613281e-05, 3.2265625) (-4.677417755126953e-05, 3.228515625) (-4.699538421630859e-05, 3.23046875) (-4.716529083251953e-05, 3.232421875) (-4.7280914306640626e-05, 3.234375) (-4.733956146240234e-05, 3.236328125) (-4.7338996887207026e-05, 3.23828125) (-4.727732467651367e-05, 3.240234375) (-4.7153076171875e-05, 3.2421875) (-4.696521759033203e-05, 3.244140625) (-4.671315765380859e-05, 3.24609375) (-4.6396720886230465e-05, 3.248046875) (-4.601615524291992e-05, 3.25) (-4.557209777832031e-05, 3.251953125) (-4.5065547943115234e-05, 3.25390625) (-4.4497913360595704e-05, 3.255859375) (-4.387098693847656e-05, 3.2578125) (-4.318696594238281e-05, 3.259765625) (-4.2448444366455075e-05, 3.26171875) (-4.165838623046875e-05, 3.263671875) (-4.0820091247558594e-05, 3.265625) (-3.993716812133789e-05, 3.267578125) (-3.9013442993164064e-05, 3.26953125) (-3.805294418334961e-05, 3.271484375) (-3.705979919433594e-05, 3.2734375) (-3.603820419311523e-05, 3.275390625) (-3.499238586425781e-05, 3.27734375) (-3.3926548004150386e-05, 3.279296875) (-3.284489440917969e-05, 3.28125) (-3.1751609802246094e-05, 3.283203125) (-3.0650835037231445e-05, 3.28515625) (-2.9546684265136717e-05, 3.287109375) (-2.844319915771484e-05, 3.2890625) (-2.7344322204589843e-05, 3.291015625) (-2.625386047363281e-05, 3.29296875) (-2.5175445556640623e-05, 3.294921875) (-2.4112472534179685e-05, 3.296875) (-2.306808853149414e-05, 3.298828125) (-2.2045158386230468e-05, 3.30078125) (-2.1046268463134764e-05, 3.302734375) (-2.0073715209960936e-05, 3.3046875) (-1.9129543304443358e-05, 3.306640625) (-1.8215576171875e-05, 3.30859375) (-1.733344841003418e-05, 3.310546875) (-1.6484622955322266e-05, 3.3125) (-1.567040252685547e-05, 3.314453125) (-1.4891910552978515e-05, 3.31640625) (-1.4150104522705078e-05, 3.318359375) (-1.3445757865905761e-05, 3.3203125) (-1.2779455184936522e-05, 3.322265625) (-1.2151581764221191e-05, 3.32421875) (-1.1562319755554198e-05, 3.326171875) (-1.1011673927307128e-05, 3.328125) (-1.0499502182006835e-05, 3.330078125) (-1.002556037902832e-05, 3.33203125) (-9.589523315429687e-06, 3.333984375) (-9.19101905822754e-06, 3.3359375) (-8.829626083374023e-06, 3.337890625) (-8.5048770904541e-06, 3.33984375) (-8.216260910034179e-06, 3.341796875) (-7.963212966918944e-06, 3.34375) (-7.745089530944823e-06, 3.345703125) (-7.5611553192138664e-06, 3.34765625) (-7.410572052001953e-06, 3.349609375) (-7.2924165725708005e-06, 3.3515625) (-7.205702781677246e-06, 3.353515625) (-7.149413108825683e-06, 3.35546875) (-7.122522354125976e-06, 3.357421875) (-7.124008178710937e-06, 3.359375) (-7.152866363525391e-06, 3.361328125) (-7.208103656768799e-06, 3.36328125) (-7.288742065429687e-06, 3.365234375) (-7.3937973976135255e-06, 3.3671875) (-7.522241115570068e-06, 3.369140625) (-7.672966480255126e-06, 3.37109375) (-7.844755172729491e-06, 3.373046875) (-8.036259651184082e-06, 3.375) (-8.246009826660156e-06, 3.376953125) (-8.472421646118163e-06, 3.37890625) (-8.71380615234375e-06, 3.380859375) (-8.968366622924805e-06, 3.3828125) (-9.234212875366211e-06, 3.384765625) (-9.50937843322754e-06, 3.38671875) (-9.791825294494628e-06, 3.388671875) (-1.0079450607299805e-05, 3.390625) (-1.037006664276123e-05, 3.392578125) (-1.0661383628845215e-05, 3.39453125) (-1.0951010704040528e-05, 3.396484375) (-1.1236471176147461e-05, 3.3984375) (-1.1515230178833007e-05, 3.400390625) (-1.178472900390625e-05, 3.40234375) (-1.2042407035827636e-05, 3.404296875) (-1.2285737037658691e-05, 3.40625) (-1.2512269973754882e-05, 3.408203125) (-1.271966552734375e-05, 3.41015625) (-1.290572166442871e-05, 3.412109375) (-1.3068384170532226e-05, 3.4140625) (-1.3205738067626953e-05, 3.416015625) (-1.3315990447998047e-05, 3.41796875) (-1.3397474288940428e-05, 3.419921875) (-1.344864273071289e-05, 3.421875) (-1.3468074798583984e-05, 3.423828125) (-1.3454484939575194e-05, 3.42578125) (-1.3406720161437988e-05, 3.427734375) (-1.3323769569396972e-05, 3.4296875) (-1.3204797744750976e-05, 3.431640625) (-1.3049161911010742e-05, 3.43359375) (-1.285645866394043e-05, 3.435546875) (-1.2626524925231933e-05, 3.4375) (-1.2359447479248046e-05, 3.439453125) (-1.2055541038513183e-05, 3.44140625) (-1.1715372085571288e-05, 3.443359375) (-1.1339754104614258e-05, 3.4453125) (-1.092976474761963e-05, 3.447265625) (-1.0486730575561523e-05, 3.44921875) (-1.0012218475341796e-05, 3.451171875) (-9.508021354675292e-06, 3.453125) (-8.976179122924804e-06, 3.455078125) (-8.418981552124024e-06, 3.45703125) (-7.838971138000488e-06, 3.458984375) (-7.238926410675048e-06, 3.4609375) (-6.621820449829101e-06, 3.462890625) (-5.990784645080566e-06, 3.46484375) (-5.349078178405761e-06, 3.466796875) (-4.7000532150268555e-06, 3.46875) (-4.047110557556152e-06, 3.470703125) (-3.393656730651855e-06, 3.47265625) (-2.743052005767822e-06, 3.474609375) (-2.0985805988311767e-06, 3.4765625) (-1.4634416103363036e-06, 3.478515625) (-8.407491445541382e-07, 3.48046875) (-2.3353163897991178e-07, 3.482421875) (3.5527044534683226e-07, 3.484375) (9.228177070617675e-07, 3.486328125) (1.46638023853302e-06, 3.48828125) (1.9833269119262695e-06, 3.490234375) (2.471121311187744e-06, 3.4921875) (2.9273333549499512e-06, 3.494140625) (3.3496663570404053e-06, 3.49609375) (3.7359895706176754e-06, 3.498046875) (4.084372043609619e-06, 3.5) (4.3930850028991695e-06, 3.501953125) (4.660597801208496e-06, 3.50390625) (4.885599136352539e-06, 3.505859375) (5.067015647888183e-06, 3.5078125) (5.204037666320801e-06, 3.509765625) (5.296133995056152e-06, 3.51171875) (5.3430395126342774e-06, 3.513671875) (5.3447484970092774e-06, 3.515625) (5.30153226852417e-06, 3.517578125) (5.213969230651855e-06, 3.51953125) (5.0829620361328124e-06, 3.521484375) (4.909748554229736e-06, 3.5234375) (4.6958789825439455e-06, 3.525390625) (4.443170547485352e-06, 3.52734375) (4.1536841392517084e-06, 3.529296875) (3.8296971321105955e-06, 3.53125) (3.4736671447753906e-06, 3.533203125) (3.088191747665405e-06, 3.53515625) (2.675948143005371e-06, 3.537109375) (2.2396354675292966e-06, 3.5390625) (1.7819604873657225e-06, 3.541015625) (1.3056316375732422e-06, 3.54296875) (8.133681416511536e-07, 3.544921875) (3.079171180725098e-07, 3.546875) (-2.079654037952423e-07, 3.548828125) (-7.315428256988525e-07, 3.55078125) (-1.2600789070129393e-06, 3.552734375) (-1.7908322811126708e-06, 3.5546875) (-2.3210668563842774e-06, 3.556640625) (-2.8480455875396726e-06, 3.55859375) (-3.369082450866699e-06, 3.560546875) (-3.881609439849853e-06, 3.5625) (-4.383174896240234e-06, 3.564453125) (-4.8714165687561036e-06, 3.56640625) (-5.344089984893799e-06, 3.568359375) (-5.799057483673096e-06, 3.5703125) (-6.234314441680908e-06, 3.572265625) (-6.648061752319336e-06, 3.57421875) (-7.0386962890625e-06, 3.576171875) (-7.40478515625e-06, 3.578125) (-7.745100021362305e-06, 3.580078125) (-8.058650970458985e-06, 3.58203125) (-8.344720840454101e-06, 3.583984375) (-8.60293960571289e-06, 3.5859375) (-8.833270072937011e-06, 3.587890625) (-9.035932540893555e-06, 3.58984375) (-9.211353302001953e-06, 3.591796875) (-9.360140800476074e-06, 3.59375) (-9.483043670654297e-06, 3.595703125) (-9.580982208251953e-06, 3.59765625) (-9.654970169067383e-06, 3.599609375) (-9.706043243408203e-06, 3.6015625) (-9.735256195068358e-06, 3.603515625) (-9.743626594543456e-06, 3.60546875) (-9.732181549072265e-06, 3.607421875) (-9.70206069946289e-06, 3.609375) (-9.654460906982422e-06, 3.611328125) (-9.590542793273925e-06, 3.61328125) (-9.511455535888671e-06, 3.615234375) (-9.418305397033692e-06, 3.6171875) (-9.312108993530272e-06, 3.619140625) (-9.193967819213866e-06, 3.62109375) (-9.06497859954834e-06, 3.623046875) (-8.926082611083985e-06, 3.625) (-8.778118133544921e-06, 3.626953125) (-8.621865272521972e-06, 3.62890625) (-8.458038330078124e-06, 3.630859375) (-8.287405014038085e-06, 3.6328125) (-8.110780715942382e-06, 3.634765625) (-7.928821086883544e-06, 3.63671875) (-7.742033004760742e-06, 3.638671875) (-7.550810813903809e-06, 3.640625) (-7.355419635772705e-06, 3.642578125) (-7.156006813049316e-06, 3.64453125) (-6.952533245086669e-06, 3.646484375) (-6.744640827178955e-06, 3.6484375) (-6.531634330749512e-06, 3.650390625) (-6.312636852264404e-06, 3.65234375) (-6.086719036102295e-06, 3.654296875) (-5.853043556213378e-06, 3.65625) (-5.610838890075683e-06, 3.658203125) (-5.359218597412109e-06, 3.66015625) (-5.097310066223144e-06, 3.662109375) (-4.824282646179199e-06, 3.6640625) (-4.539380550384522e-06, 3.666015625) (-4.242145538330078e-06, 3.66796875) (-3.932255268096924e-06, 3.669921875) (-3.609227657318115e-06, 3.671875) (-3.2725677490234374e-06, 3.673828125) (-2.922032833099365e-06, 3.67578125) (-2.557558536529541e-06, 3.677734375) (-2.179422855377197e-06, 3.6796875) (-1.7883260250091551e-06, 3.681640625) (-1.3848358392715454e-06, 3.68359375) (-9.695504903793335e-07, 3.685546875) (-5.435277819633484e-07, 3.6875) (-1.0812118649482727e-07, 3.689453125) (3.3507049083709717e-07, 3.69140625) (7.841992378234863e-07, 3.693359375) (1.237485647201538e-06, 3.6953125) (1.6933187246322632e-06, 3.697265625) (2.149718999862671e-06, 3.69921875) (2.6041915416717527e-06, 3.701171875) (3.05406904220581e-06, 3.703125) (3.496488332748413e-06, 3.705078125) (3.928350687026977e-06, 3.70703125) (4.346305847167968e-06, 3.708984375) (4.746173381805419e-06, 3.7109375) (5.1226892471313474e-06, 3.712890625) (5.470048427581787e-06, 3.71484375) (5.782406806945801e-06, 3.716796875) (6.054052352905273e-06, 3.71875) (6.279417037963867e-06, 3.720703125) (6.453179359436035e-06, 3.72265625) (6.57032299041748e-06, 3.724609375) (6.626710891723632e-06, 3.7265625) (6.619329452514648e-06, 3.728515625) (6.546071052551269e-06, 3.73046875) (6.405473709106445e-06, 3.732421875) (6.1952891349792476e-06, 3.734375) (5.9125485420227046e-06, 3.736328125) (5.554333209991455e-06, 3.73828125) (5.117382049560547e-06, 3.740234375) (4.599123477935791e-06, 3.7421875) (3.998587369918823e-06, 3.744140625) (3.315556526184082e-06, 3.74609375) (2.5502424240112303e-06, 3.748046875) (1.7063918113708496e-06, 3.75) (7.904306054115295e-07, 3.751953125) (-1.929132342338562e-07, 3.75390625) (-1.238849401473999e-06, 3.755859375) (-2.345947742462158e-06, 3.7578125) (-3.51786470413208e-06, 3.759765625) (-4.756202697753906e-06, 3.76171875) (-6.060583114624023e-06, 3.763671875) (-7.429671287536621e-06, 3.765625) (-8.858210563659667e-06, 3.767578125) (-1.0333577156066894e-05, 3.76953125) (-1.1836761474609374e-05, 3.771484375) (-1.3340533256530761e-05, 3.7734375) (-1.4810430526733398e-05, 3.775390625) (-1.621622848510742e-05, 3.77734375) (-1.7529518127441404e-05, 3.779296875) (-1.8728708267211913e-05, 3.78125) (-1.98004150390625e-05, 3.783203125) (-2.072336196899414e-05, 3.78515625) (-2.1475149154663084e-05, 3.787109375) (-2.203005790710449e-05, 3.7890625) (-2.2354534149169923e-05, 3.791015625) (-2.242291259765625e-05, 3.79296875) (-2.221649932861328e-05, 3.794921875) (-2.1713581085205077e-05, 3.796875) (-2.0898677825927733e-05, 3.798828125) (-1.9787841796875e-05, 3.80078125) (-1.8420698165893553e-05, 3.802734375) (-1.6860038757324218e-05, 3.8046875) (-1.51939058303833e-05, 3.806640625) (-1.3478297233581542e-05, 3.80859375) (-1.1745208740234374e-05, 3.810546875) (-1.0036199569702147e-05, 3.8125) (-8.394645690917969e-06, 3.814453125) (-6.889299392700195e-06, 3.81640625) (-5.607249259948731e-06, 3.818359375) (-4.623822212219238e-06, 3.8203125) (-3.979343175888061e-06, 3.822265625) (-3.728564739227295e-06, 3.82421875) (-3.959631443023681e-06, 3.826171875) (-4.682182312011719e-06, 3.828125) (-5.8196296691894526e-06, 3.830078125) (-7.123819351196289e-06, 3.83203125) (-8.1507511138916e-06, 3.833984375) (-8.452932357788085e-06, 3.8359375) (-7.703343868255614e-06, 3.837890625) (-5.704973220825195e-06, 3.83984375) (-2.3344378471374512e-06, 3.841796875) (2.273228883743286e-06, 3.84375) (7.794224739074707e-06, 3.845703125) (1.3661540031433105e-05, 3.84765625) (1.8907733917236328e-05, 3.849609375) (2.2620220184326172e-05, 3.8515625) (2.418180465698242e-05, 3.853515625) (2.343474197387695e-05, 3.85546875) (2.076564598083496e-05, 3.857421875) (1.7186988830566407e-05, 3.859375) (1.4052365303039551e-05, 3.861328125) (1.293778610229492e-05, 3.86328125) (1.589504337310791e-05, 3.865234375) (2.496810150146484e-05, 3.8671875) (4.198757171630859e-05, 3.869140625) (6.801658630371094e-05, 3.87109375) (0.00010283474731445312, 3.873046875) (0.0001450945281982422, 3.875) (0.0001927108154296875, 3.876953125) (0.00024328358459472656, 3.87890625) (0.0002939654541015625, 3.880859375) (0.0003413927917480469, 3.8828125) (0.0003817161254882812, 3.884765625) (0.00041159283447265624, 3.88671875) (0.0004291042785644531, 3.888671875) (0.00043364160156249997, 3.890625) (0.00042569244384765625, 3.892578125) (0.0004060570068359375, 3.89453125) (0.0003757492980957031, 3.896484375) (0.0003369011840820312, 3.8984375) (0.0002928462219238281, 3.900390625) (0.0002471595764160156, 3.90234375) (0.00020279869079589842, 3.904296875) (0.00016168502807617187, 3.90625) (0.0001247314453125, 3.908203125) (9.285475158691406e-05, 3.91015625) (6.716761779785156e-05, 3.912109375) (4.7803466796875e-05, 3.9140625) (3.384259796142578e-05, 3.916015625) (2.371100616455078e-05, 3.91796875) (1.564432430267334e-05, 3.919921875) (8.647174835205077e-06, 3.921875) (2.4650468826293943e-06, 3.923828125) (-3.3080797195434567e-06, 3.92578125) (-9.35243797302246e-06, 3.927734375) (-1.5979856491088868e-05, 3.9296875) (-2.3082462310791016e-05, 3.931640625) (-3.0005043029785154e-05, 3.93359375) (-3.57068977355957e-05, 3.935546875) (-3.96945915222168e-05, 3.9375) (-4.199148941040039e-05, 3.939453125) (-4.265909576416016e-05, 3.94140625) (-4.175761795043945e-05, 3.943359375) (-3.936737823486328e-05, 3.9453125) (-3.562770080566406e-05, 3.947265625) (-3.098269653320313e-05, 3.94921875) (-2.6131309509277343e-05, 3.951171875) (-2.1566682815551757e-05, 3.953125) (-1.7548072814941406e-05, 3.955078125) (-1.4210864067077636e-05, 3.95703125) (-1.1571963310241698e-05, 3.958984375) (-9.674404144287108e-06, 3.9609375) (-8.589040756225586e-06, 3.962890625) (-8.296525001525878e-06, 3.96484375) (-8.690546035766602e-06, 3.966796875) (-9.653475761413574e-06, 3.96875) (-1.107415771484375e-05, 3.970703125) (-1.286469841003418e-05, 3.97265625) (-1.4971454620361328e-05, 3.974609375) (-1.732769012451172e-05, 3.9765625) (-1.983265686035156e-05, 3.978515625) (-2.236529541015625e-05, 3.98046875) (-2.479370880126953e-05, 3.982421875) (-2.6999773025512695e-05, 3.984375) (-2.8905857086181638e-05, 3.986328125) (-3.0468467712402344e-05, 3.98828125) (-3.16638069152832e-05, 3.990234375) (-3.247769927978515e-05, 3.9921875) (-3.290433883666992e-05, 3.994140625) (-3.295410537719727e-05, 3.99609375) (-3.265654754638672e-05, 3.998046875) (-3.2056808471679685e-05, 4.0) (-3.120066452026367e-05, 4.001953125) (-3.0127994537353514e-05, 4.00390625) (-2.8873199462890625e-05, 4.005859375) (-2.7469562530517577e-05, 4.0078125) (-2.5961078643798828e-05, 4.009765625) (-2.4400094985961913e-05, 4.01171875) (-2.284210968017578e-05, 4.013671875) (-2.133904266357422e-05, 4.015625) (-1.9925687789916993e-05, 4.017578125) (-1.862222671508789e-05, 4.01953125) (-1.744318389892578e-05, 4.021484375) (-1.6399297714233396e-05, 4.0234375) (-1.5496614456176758e-05, 4.025390625) (-1.473593521118164e-05, 4.02734375) (-1.4108815193176269e-05, 4.029296875) (-1.3599573135375976e-05, 4.03125) (-1.3197982788085936e-05, 4.033203125) (-1.2899189949035645e-05, 4.03515625) (-1.270193576812744e-05, 4.037109375) (-1.2608276367187499e-05, 4.0390625) (-1.2613727569580078e-05, 4.041015625) (-1.270927047729492e-05, 4.04296875) (-1.2887019157409668e-05, 4.044921875) (-1.3138843536376952e-05, 4.046875) (-1.3462684631347656e-05, 4.048828125) (-1.386229133605957e-05, 4.05078125) (-1.4335962295532225e-05, 4.052734375) (-1.487839126586914e-05, 4.0546875) (-1.5485188484191892e-05, 4.056640625) (-1.6149354934692383e-05, 4.05859375) (-1.6869430541992185e-05, 4.060546875) (-1.764979553222656e-05, 4.0625) (-1.8487232208251953e-05, 4.064453125) (-1.937517547607422e-05, 4.06640625) (-2.03028564453125e-05, 4.068359375) (-2.1251596450805663e-05, 4.0703125) (-2.2211292266845702e-05, 4.072265625) (-2.3177724838256834e-05, 4.07421875) (-2.4144575119018555e-05, 4.076171875) (-2.511006927490234e-05, 4.078125) (-2.6055587768554687e-05, 4.080078125) (-2.6946836471557617e-05, 4.08203125) (-2.775763702392578e-05, 4.083984375) (-2.845917510986328e-05, 4.0859375) (-2.905220031738281e-05, 4.087890625) (-2.9579277038574216e-05, 4.08984375) (-3.006429672241211e-05, 4.091796875) (-3.052273941040039e-05, 4.09375) (-3.097051239013672e-05, 4.095703125) (-3.1378456115722655e-05, 4.09765625) (-3.177887725830078e-05, 4.099609375) (-3.2298927307128906e-05, 4.1015625) (-3.292018127441406e-05, 4.103515625) (-3.3509437561035155e-05, 4.10546875) (-3.3931762695312496e-05, 4.107421875) (-3.396463012695312e-05, 4.109375) (-3.3596817016601564e-05, 4.111328125) (-3.312630081176758e-05, 4.11328125) (-3.265906906127929e-05, 4.115234375) (-3.211292266845703e-05, 4.1171875) (-3.16170597076416e-05, 4.119140625) (-3.1343822479248046e-05, 4.12109375) (-3.163221931457519e-05, 4.123046875) (-3.314809799194336e-05, 4.125) (-3.595878601074219e-05, 4.126953125) (-3.948896026611328e-05, 4.12890625) (-4.3319313049316406e-05, 4.130859375) (-4.70450210571289e-05, 4.1328125) (-5.022254943847656e-05, 4.134765625) (-5.265631103515625e-05, 4.13671875) (-5.372834014892578e-05, 4.138671875) (-5.2299282073974606e-05, 4.140625) (-4.802502059936523e-05, 4.142578125) (-4.1238796234130855e-05, 4.14453125) (-3.249849700927734e-05, 4.146484375) (-2.2855619430541992e-05, 4.1484375) (-1.3092395782470703e-05, 4.150390625) (-3.49756121635437e-06, 4.15234375) (5.134418964385986e-06, 4.154296875) (1.1594182968139649e-05, 4.15625) (1.5178468704223632e-05, 4.158203125) (1.548410987854004e-05, 4.16015625) (1.273613166809082e-05, 4.162109375) (8.02369499206543e-06, 4.1640625) (2.0397841930389403e-06, 4.166015625) (-4.966408252716064e-06, 4.16796875) (-1.2472885131835938e-05, 4.169921875) (-1.9899282455444335e-05, 4.171875) (-2.670356750488281e-05, 4.173828125) (-3.2231678009033205e-05, 4.17578125) (-3.6428226470947265e-05, 4.177734375) (-3.9922286987304684e-05, 4.1796875) (-4.306069946289062e-05, 4.181640625) (-4.595452499389648e-05, 4.18359375) (-4.867850112915039e-05, 4.185546875) (-5.10982437133789e-05, 4.1875) (-5.320282363891601e-05, 4.189453125) (-5.518539047241211e-05, 4.19140625) (-5.6964931488037107e-05, 4.193359375) (-5.820047760009765e-05, 4.1953125) (-5.867507934570312e-05, 4.197265625) (-5.8253681182861324e-05, 4.19921875) (-5.692011260986328e-05, 4.201171875) (-5.485454940795898e-05, 4.203125) (-5.2191123962402343e-05, 4.205078125) (-4.89693374633789e-05, 4.20703125) (-4.529452514648437e-05, 4.208984375) (-4.1316154479980466e-05, 4.2109375) (-3.7156490325927736e-05, 4.212890625) (-3.2942806243896485e-05, 4.21484375) (-2.87726936340332e-05, 4.216796875) (-2.468953514099121e-05, 4.21875) (-2.0758163452148436e-05, 4.220703125) (-1.70722599029541e-05, 4.22265625) (-1.3710834503173828e-05, 4.224609375) (-1.0746306419372559e-05, 4.2265625) (-8.232688903808594e-06, 4.228515625) (-6.18349266052246e-06, 4.23046875) (-4.595058441162109e-06, 4.232421875) (-3.4474401473999023e-06, 4.234375) (-2.6896097660064697e-06, 4.236328125) (-2.2615234851837158e-06, 4.23828125) (-2.097400188446045e-06, 4.240234375) (-2.1212570667266846e-06, 4.2421875) (-2.2791252136230467e-06, 4.244140625) (-2.538231611251831e-06, 4.24609375) (-2.867710828781128e-06, 4.248046875) (-3.247460842132568e-06, 4.25) (-3.6574940681457517e-06, 4.251953125) (-4.065773010253906e-06, 4.25390625) (-4.4486150741577145e-06, 4.255859375) (-4.791488647460937e-06, 4.2578125) (-5.0778961181640625e-06, 4.259765625) (-5.2990465164184565e-06, 4.26171875) (-5.451250076293945e-06, 4.263671875) (-5.532031059265136e-06, 4.265625) (-5.553797721862793e-06, 4.267578125) (-5.539860248565674e-06, 4.26953125) (-5.515693664550781e-06, 4.271484375) (-5.510341167449951e-06, 4.2734375) (-5.543153762817383e-06, 4.275390625) (-5.6211996078491205e-06, 4.27734375) (-5.749282836914062e-06, 4.279296875) (-5.927750110626221e-06, 4.28125) (-6.153714179992675e-06, 4.283203125) (-6.425901889801025e-06, 4.28515625) (-6.738773345947266e-06, 4.287109375) (-7.082244873046875e-06, 4.2890625) (-7.450663566589355e-06, 4.291015625) (-7.840908527374266e-06, 4.29296875) (-8.250370025634765e-06, 4.294921875) (-8.678912162780761e-06, 4.296875) (-9.123051643371581e-06, 4.298828125) (-9.575057983398436e-06, 4.30078125) (-1.002761459350586e-05, 4.302734375) (-1.047353172302246e-05, 4.3046875) (-1.0906702041625976e-05, 4.306640625) (-1.1323389053344726e-05, 4.30859375) (-1.1720142364501953e-05, 4.310546875) (-1.2093575477600097e-05, 4.3125) (-1.2442173957824706e-05, 4.314453125) (-1.2765881538391113e-05, 4.31640625) (-1.3065706253051758e-05, 4.318359375) (-1.3343752861022948e-05, 4.3203125) (-1.3600833892822265e-05, 4.322265625) (-1.3836281776428223e-05, 4.32421875) (-1.4049222946166991e-05, 4.326171875) (-1.4238341331481934e-05, 4.328125) (-1.4402334213256835e-05, 4.330078125) (-1.4540157318115233e-05, 4.33203125) (-1.4650382995605467e-05, 4.333984375) (-1.4731287956237792e-05, 4.3359375) (-1.4781874656677245e-05, 4.337890625) (-1.4801826477050781e-05, 4.33984375) (-1.479132080078125e-05, 4.341796875) (-1.47511625289917e-05, 4.34375) (-1.4682196617126464e-05, 4.345703125) (-1.4585124969482421e-05, 4.34765625) (-1.4460834503173827e-05, 4.349609375) (-1.4310320854187012e-05, 4.3515625) (-1.4134510040283202e-05, 4.353515625) (-1.3934223175048827e-05, 4.35546875) (-1.371015167236328e-05, 4.357421875) (-1.3462743759155273e-05, 4.359375) (-1.31924409866333e-05, 4.361328125) (-1.289987564086914e-05, 4.36328125) (-1.2585718154907227e-05, 4.365234375) (-1.2250653266906739e-05, 4.3671875) (-1.189546775817871e-05, 4.369140625) (-1.1520980834960938e-05, 4.37109375) (-1.1128059387207031e-05, 4.373046875) (-1.0717717170715332e-05, 4.375) (-1.0290977478027344e-05, 4.376953125) (-9.848806381225585e-06, 4.37890625) (-9.39232063293457e-06, 4.380859375) (-8.922803878784179e-06, 4.3828125) (-8.441768646240235e-06, 4.384765625) (-7.951056003570556e-06, 4.38671875) (-7.452724456787109e-06, 4.388671875) (-6.949048042297363e-06, 4.390625) (-6.442619800567627e-06, 4.392578125) (-5.936290264129638e-06, 4.39453125) (-5.433112144470215e-06, 4.396484375) (-4.936323165893554e-06, 4.3984375) (-4.449099063873291e-06, 4.400390625) (-3.9744987487792965e-06, 4.40234375) (-3.5155346393585203e-06, 4.404296875) (-3.0750756263732907e-06, 4.40625) (-2.655862808227539e-06, 4.408203125) (-2.260535478591919e-06, 4.41015625) (-1.8915212154388427e-06, 4.412109375) (-1.551044225692749e-06, 4.4140625) (-1.2412309646606446e-06, 4.416015625) (-9.640886187553406e-07, 4.41796875) (-7.214986681938171e-07, 4.419921875) (-5.152496695518493e-07, 4.421875) (-3.4697023034095763e-07, 4.423828125) (-2.1811075508594512e-07, 4.42578125) (-1.2998344004154206e-07, 4.427734375) (-8.372782915830611e-08, 4.4296875) (-8.029235899448394e-08, 4.431640625) (-1.2043221294879912e-07, 4.43359375) (-2.0467227697372434e-07, 4.435546875) (-3.3329930901527405e-07, 4.4375) (-5.063731670379638e-07, 4.439453125) (-7.237074971199035e-07, 4.44140625) (-9.848592281341552e-07, 4.443359375) (-1.289133310317993e-06, 4.4453125) (-1.6355509757995606e-06, 4.447265625) (-2.022839784622192e-06, 4.44921875) (-2.4494390487670895e-06, 4.451171875) (-2.91346263885498e-06, 4.453125) (-3.412680864334106e-06, 4.455078125) (-3.944532871246338e-06, 4.45703125) (-4.506113529205322e-06, 4.458984375) (-5.094193935394287e-06, 4.4609375) (-5.705278873443603e-06, 4.462890625) (-6.335644721984863e-06, 4.46484375) (-6.981389999389648e-06, 4.466796875) (-7.638523578643798e-06, 4.46875) (-8.303027153015137e-06, 4.470703125) (-8.970915794372558e-06, 4.47265625) (-9.638311386108397e-06, 4.474609375) (-1.0301473617553711e-05, 4.4765625) (-1.095682430267334e-05, 4.478515625) (-1.1600984573364257e-05, 4.48046875) (-1.2230762481689452e-05, 4.482421875) (-1.2843149185180664e-05, 4.484375) (-1.343532371520996e-05, 4.486328125) (-1.400462245941162e-05, 4.48828125) (-1.4548589706420897e-05, 4.490234375) (-1.5065000534057616e-05, 4.4921875) (-1.555183696746826e-05, 4.494140625) (-1.6007307052612304e-05, 4.49609375) (-1.6429874420166013e-05, 4.498046875) (-1.6818237304687498e-05, 4.5) (-1.7171356201171873e-05, 4.501953125) (-1.748847198486328e-05, 4.50390625) (-1.7769014358520505e-05, 4.505859375) (-1.801254653930664e-05, 4.5078125) (-1.821879768371582e-05, 4.509765625) (-1.8387645721435545e-05, 4.51171875) (-1.8519161224365235e-05, 4.513671875) (-1.8613636016845702e-05, 4.515625) (-1.867158508300781e-05, 4.517578125) (-1.8693756103515626e-05, 4.51953125) (-1.8681175231933594e-05, 4.521484375) (-1.8635204315185546e-05, 4.5234375) (-1.855751609802246e-05, 4.525390625) (-1.8450052261352538e-05, 4.52734375) (-1.831494140625e-05, 4.529296875) (-1.8154417037963868e-05, 4.53125) (-1.7970714569091797e-05, 4.533203125) (-1.7766042709350585e-05, 4.53515625) (-1.7542572021484375e-05, 4.537109375) (-1.7302289962768553e-05, 4.5390625) (-1.704695510864258e-05, 4.541015625) (-1.6778167724609376e-05, 4.54296875) (-1.649730682373047e-05, 4.544921875) (-1.620561599731445e-05, 4.546875) (-1.5904333114624022e-05, 4.548828125) (-1.5594388008117674e-05, 4.55078125) (-1.527631378173828e-05, 4.552734375) (-1.4950811386108398e-05, 4.5546875) (-1.4618304252624512e-05, 4.556640625) (-1.4278692245483398e-05, 4.55859375) (-1.3932384490966797e-05, 4.560546875) (-1.3578558921813965e-05, 4.5625) (-1.3215341567993163e-05, 4.564453125) (-1.2843607902526856e-05, 4.56640625) (-1.2464466094970702e-05, 4.568359375) (-1.2077348709106444e-05, 4.5703125) (-1.1683917999267578e-05, 4.572265625) (-1.128422451019287e-05, 4.57421875) (-1.087278938293457e-05, 4.576171875) (-1.0451972961425781e-05, 4.578125) (-1.0026473999023437e-05, 4.580078125) (-9.585730552673339e-06, 4.58203125) (-9.12385082244873e-06, 4.583984375) (-8.638916969299316e-06, 4.5859375) (-8.11637020111084e-06, 4.587890625) (-7.559325218200683e-06, 4.58984375) (-6.994421958923339e-06, 4.591796875) (-6.4162492752075195e-06, 4.59375) (-5.817053794860839e-06, 4.595703125) (-5.2403011322021486e-06, 4.59765625) (-4.701338768005371e-06, 4.599609375) (-4.20220422744751e-06, 4.6015625) (-3.788560390472412e-06, 4.603515625) (-3.452609062194824e-06, 4.60546875) (-3.111393928527832e-06, 4.607421875) (-2.7684149742126463e-06, 4.609375) (-2.455252170562744e-06, 4.611328125) (-2.0110769271850584e-06, 4.61328125) (-1.3117294311523438e-06, 4.615234375) (-5.074667334556579e-07, 4.6171875) (4.370681345462799e-07, 4.619140625) (1.6018309593200684e-06, 4.62109375) (2.508390188217163e-06, 4.623046875) (3.8801679611206055e-06, 4.625) (6.6836175918579095e-06, 4.626953125) (9.656848907470703e-06, 4.62890625) (1.2383577346801757e-05, 4.630859375) (1.2931425094604491e-05, 4.6328125) (7.581482887268066e-06, 4.634765625) (-1.5903470516204833e-06, 4.63671875) (-1.1216022491455078e-05, 4.638671875) (-1.788294219970703e-05, 4.640625) (-1.4975622177124023e-05, 4.642578125) (-3.1714587211608885e-06, 4.64453125) (1.1134729385375976e-05, 4.646484375) (2.3621906280517578e-05, 4.6484375) (2.7508960723876953e-05, 4.650390625) (2.0806972503662107e-05, 4.65234375) (1.0030616760253906e-05, 4.654296875) (-8.857932090759277e-07, 4.65625) (-8.08331298828125e-06, 4.658203125) (-8.644726753234863e-06, 4.66015625) (-6.4521083831787104e-06, 4.662109375) (-4.047218799591064e-06, 4.6640625) (-2.185953140258789e-06, 4.666015625) (-2.465590476989746e-06, 4.66796875) (-3.66527247428894e-06, 4.669921875) (-4.67267894744873e-06, 4.671875) (-5.849641799926758e-06, 4.673828125) (-7.005047798156738e-06, 4.67578125) (-8.218905448913575e-06, 4.677734375) (-9.759769439697266e-06, 4.6796875) (-1.1453222274780272e-05, 4.681640625) (-1.314252758026123e-05, 4.68359375) (-1.4855448722839355e-05, 4.685546875) (-1.6576698303222655e-05, 4.6875) (-1.8238496780395507e-05, 4.689453125) (-1.9805395126342772e-05, 4.69140625) (-2.125628852844238e-05, 4.693359375) (-2.254948043823242e-05, 4.6953125) (-2.3687358856201172e-05, 4.697265625) (-2.471358108520508e-05, 4.69921875) (-2.5595516204833983e-05, 4.701171875) (-2.6265417098999023e-05, 4.703125) (-2.671726417541504e-05, 4.705078125) (-2.697060775756836e-05, 4.70703125) (-2.7040559768676756e-05, 4.708984375) (-2.6959213256835938e-05, 4.7109375) (-2.6716176986694336e-05, 4.712890625) (-2.6232624053955076e-05, 4.71484375) (-2.5503944396972655e-05, 4.716796875) (-2.4647666931152343e-05, 4.71875) (-2.3619136810302733e-05, 4.720703125) (-2.2140941619873045e-05, 4.72265625) (-2.0183107376098633e-05, 4.724609375) (-1.791249465942383e-05, 4.7265625) (-1.5356205940246583e-05, 4.728515625) (-1.2915298461914062e-05, 4.73046875) (-1.0091800689697266e-05, 4.732421875) (-4.954629898071289e-06, 4.734375) (2.047373056411743e-06, 4.736328125) (8.878854751586913e-06, 4.73828125) (1.2564984321594238e-05, 4.740234375) (7.51735496520996e-06, 4.7421875) (-5.983710289001465e-06, 4.744140625) (-2.182727241516113e-05, 4.74609375) (-3.403834152221679e-05, 4.748046875) (-3.4427307128906245e-05, 4.75) (-2.18421573638916e-05, 4.751953125) (-3.533478736877441e-06, 4.75390625) (1.4512980461120605e-05, 4.755859375) (2.572826385498047e-05, 4.7578125) (2.8173091888427734e-05, 4.759765625) (2.6342260360717774e-05, 4.76171875) (2.294647216796875e-05, 4.763671875) (1.986351776123047e-05, 4.765625) (1.7185880661010742e-05, 4.767578125) (1.2193002700805664e-05, 4.76953125) (4.381200790405273e-06, 4.771484375) (-5.146449089050293e-06, 4.7734375) (-1.4863124847412109e-05, 4.775390625) (-2.16837100982666e-05, 4.77734375) (-2.326700782775879e-05, 4.779296875) (-1.8005149841308592e-05, 4.78125) (-3.152501106262207e-06, 4.783203125) (2.2492244720458983e-05, 4.78515625) (5.7336917877197264e-05, 4.787109375) (9.97089385986328e-05, 4.7890625) (0.00014722412109375, 4.791015625) (0.0001996748352050781, 4.79296875) (0.0002612346496582031, 4.794921875) (0.00033215084838867184, 4.796875) (0.00040719091796875, 4.798828125) (0.000474419677734375, 4.80078125) (0.0005164857177734375, 4.802734375) (0.0005242463989257812, 4.8046875) (0.0004973546142578125, 4.806640625) (0.0004435382385253906, 4.80859375) (0.0003761695861816406, 4.810546875) (0.0003020554809570312, 4.8125) (0.0002249840545654297, 4.814453125) (0.00014941322326660156, 4.81640625) (7.979170227050781e-05, 4.818359375) (2.3697071075439452e-05, 4.8203125) (-1.1979083061218261e-05, 4.822265625) (-2.6737768173217773e-05, 4.82421875) (-2.5663356781005857e-05, 4.826171875) (-1.3956435203552246e-05, 4.828125) (9.118351936340331e-07, 4.830078125) (1.2369680404663085e-05, 4.83203125) (1.877225875854492e-05, 4.833984375) (1.6061655044555664e-05, 4.8359375) (4.421938896179199e-06, 4.837890625) (-1.0755014419555664e-05, 4.83984375) (-2.657795715332031e-05, 4.841796875) (-3.788464736938476e-05, 4.84375) (-4.2412757873535155e-05, 4.845703125) (-4.319142150878906e-05, 4.84765625) (-4.166905975341797e-05, 4.849609375) (-3.978037261962891e-05, 4.8515625) (-3.839835357666015e-05, 4.853515625) (-3.56147575378418e-05, 4.85546875) (-3.1046350479125973e-05, 4.857421875) (-2.5466102600097655e-05, 4.859375) (-1.9764413833618164e-05, 4.861328125) (-1.573562240600586e-05, 4.86328125) (-1.4129075050354003e-05, 4.865234375) (-1.4185821533203125e-05, 4.8671875) (-1.5479801177978515e-05, 4.869140625) (-1.7745122909545897e-05, 4.87109375) (-2.049143409729004e-05, 4.873046875) (-2.3497156143188476e-05, 4.875) (-2.6298654556274414e-05, 4.876953125) (-2.7990598678588866e-05, 4.87890625) (-2.8429279327392578e-05, 4.880859375) (-2.818038558959961e-05, 4.8828125) (-2.7510602951049802e-05, 4.884765625) (-2.6795726776123045e-05, 4.88671875) (-2.652231216430664e-05, 4.888671875) (-2.6572050094604492e-05, 4.890625) (-2.687672805786133e-05, 4.892578125) (-2.7823329925537107e-05, 4.89453125) (-2.901728820800781e-05, 4.896484375) (-3.0447887420654297e-05, 4.8984375) (-3.359191513061523e-05, 4.900390625) (-3.803087615966797e-05, 4.90234375) (-4.209608459472656e-05, 4.904296875) (-4.360810470581054e-05, 4.90625) (-3.72371940612793e-05, 4.908203125) (-2.1421453475952146e-05, 4.91015625) (-1.3926677703857422e-06, 4.912109375) (1.6124034881591796e-05, 4.9140625) (2.149509048461914e-05, 4.916015625) (9.021924018859863e-06, 4.91796875) (-1.4815330505371094e-05, 4.919921875) (-3.9622978210449215e-05, 4.921875) (-5.4815517425537105e-05, 4.923828125) (-5.214132690429687e-05, 4.92578125) (-3.5512512207031246e-05, 4.927734375) (-1.4971570968627929e-05, 4.9296875) (1.983394622802734e-06, 4.931640625) (9.014670372009277e-06, 4.93359375) (6.682080745697022e-06, 4.935546875) (1.1008455753326416e-06, 4.9375) (-4.4506320953369136e-06, 4.939453125) (-7.760239601135253e-06, 4.94140625) (-8.245638847351074e-06, 4.943359375) (-8.03898048400879e-06, 4.9453125) (-7.907476425170898e-06, 4.947265625) (-7.679530143737793e-06, 4.94921875) (-7.521979808807373e-06, 4.951171875) (-7.143948078155517e-06, 4.953125) (-6.436556816101074e-06, 4.955078125) (-5.7050619125366205e-06, 4.95703125) (-5.0626263618469235e-06, 4.958984375) (-4.492458343505859e-06, 4.9609375) (-4.056259155273437e-06, 4.962890625) (-3.7821848392486572e-06, 4.96484375) (-3.627216577529907e-06, 4.966796875) (-3.5602338314056397e-06, 4.96875) (-3.5561830997467037e-06, 4.970703125) (-3.5731868743896483e-06, 4.97265625) (-3.613636493682861e-06, 4.974609375) (-3.7171669006347656e-06, 4.9765625) (-3.891329050064087e-06, 4.978515625) (-4.121396541595459e-06, 4.98046875) (-4.39246654510498e-06, 4.982421875) (-4.689107418060302e-06, 4.984375) (-5.002424716949463e-06, 4.986328125) (-5.3319263458251955e-06, 4.98828125) (-5.672783851623535e-06, 4.990234375) (-6.005171298980713e-06, 4.9921875) (-6.314189910888672e-06, 4.994140625) (-6.608420848846435e-06, 4.99609375) (-6.901253700256347e-06, 4.998046875) (-7.205370903015136e-06, 5.0) (-7.533194541931152e-06, 5.001953125) (-7.874725341796874e-06, 5.00390625) (-8.209264755249022e-06, 5.005859375) (-8.5472412109375e-06, 5.0078125) (-8.9029483795166e-06, 5.009765625) (-9.245468139648437e-06, 5.01171875) (-9.552793502807616e-06, 5.013671875) (-9.807497024536133e-06, 5.015625) (-9.98082160949707e-06, 5.017578125) (-1.0099764823913574e-05, 5.01953125) (-1.0217674255371094e-05, 5.021484375) (-1.0311095237731933e-05, 5.0234375) (-1.0332979202270507e-05, 5.025390625) (-1.04144287109375e-05, 5.02734375) (-1.0708011627197265e-05, 5.029296875) (-1.1120072364807128e-05, 5.03125) (-1.1659005165100098e-05, 5.033203125) (-1.2353442192077636e-05, 5.03515625) (-1.2870954513549805e-05, 5.037109375) (-1.410455322265625e-05, 5.0390625) (-1.6922592163085936e-05, 5.041015625) (-2.0080360412597655e-05, 5.04296875) (-2.3199928283691407e-05, 5.044921875) (-2.3995935440063477e-05, 5.046875) (-1.973239517211914e-05, 5.048828125) (-1.3432936668395996e-05, 5.05078125) (-7.111234664916992e-06, 5.052734375) (-3.7670912742614746e-06, 5.0546875) (-7.522424697875976e-06, 5.056640625) (-1.4723944664001464e-05, 5.05859375) (-2.2273918151855467e-05, 5.060546875) (-2.804804229736328e-05, 5.0625) (-2.8538646697998046e-05, 5.064453125) (-2.6245151519775388e-05, 5.06640625) (-2.370098304748535e-05, 5.068359375) (-2.146558952331543e-05, 5.0703125) (-2.1081352233886718e-05, 5.072265625) (-2.1645545959472655e-05, 5.07421875) (-2.1998764038085937e-05, 5.076171875) (-2.235665702819824e-05, 5.078125) (-2.2567668914794922e-05, 5.080078125) (-2.2705059051513672e-05, 5.08203125) (-2.2998910903930663e-05, 5.083984375) (-2.329232406616211e-05, 5.0859375) (-2.345916748046875e-05, 5.087890625) (-2.3536893844604493e-05, 5.08984375) (-2.353172492980957e-05, 5.091796875) (-2.3426870346069336e-05, 5.09375) (-2.3223842620849608e-05, 5.095703125) (-2.293025779724121e-05, 5.09765625) (-2.2550004959106445e-05, 5.099609375) (-2.210529136657715e-05, 5.1015625) (-2.162289810180664e-05, 5.103515625) (-2.10927734375e-05, 5.10546875) (-2.0505456924438476e-05, 5.107421875) (-1.9866708755493164e-05, 5.109375) (-1.917768096923828e-05, 5.111328125) (-1.8441349029541016e-05, 5.11328125) (-1.7662961959838867e-05, 5.115234375) (-1.6842981338500975e-05, 5.1171875) (-1.598218822479248e-05, 5.119140625) (-1.5086938858032226e-05, 5.12109375) (-1.416360855102539e-05, 5.123046875) (-1.3217555046081542e-05, 5.125) (-1.2254998207092285e-05, 5.126953125) (-1.1281439781188965e-05, 5.12890625) (-1.0302249908447264e-05, 5.130859375) (-9.323402404785157e-06, 5.1328125) (-8.350685119628906e-06, 5.134765625) (-7.389681339263916e-06, 5.13671875) (-6.445880889892578e-06, 5.138671875) (-5.524547576904297e-06, 5.140625) (-4.630774974822998e-06, 5.142578125) (-3.76949667930603e-06, 5.14453125) (-2.945481777191162e-06, 5.146484375) (-2.163328170776367e-06, 5.1484375) (-1.4273990392684937e-06, 5.150390625) (-7.417634725570678e-07, 5.15234375) (-1.1015585064888e-07, 5.154296875) (4.640497267246246e-07, 5.15625) (9.778649806976318e-07, 5.158203125) (1.4287095069885253e-06, 5.16015625) (1.8144253492355345e-06, 5.162109375) (2.133289337158203e-06, 5.1640625) (2.384002685546875e-06, 5.166015625) (2.565685510635376e-06, 5.16796875) (2.6778860092163083e-06, 5.169921875) (2.7206192016601562e-06, 5.171875) (2.6944127082824706e-06, 5.173828125) (2.6003470420837403e-06, 5.17578125) (2.4400959014892577e-06, 5.177734375) (2.215946674346924e-06, 5.1796875) (1.9308061599731445e-06, 5.181640625) (1.5881876945495604e-06, 5.18359375) (1.1921706199645995e-06, 5.185546875) (7.473284006118774e-07, 5.1875) (2.5864338874816896e-07, 5.189453125) (-2.685832977294922e-07, 5.19140625) (-8.288271427154541e-07, 5.193359375) (-1.4164214134216307e-06, 5.1953125) (-2.025620937347412e-06, 5.197265625) (-2.650656223297119e-06, 5.19921875) (-3.2857680320739744e-06, 5.201171875) (-3.92523193359375e-06, 5.203125) (-4.563385009765625e-06, 5.205078125) (-5.1946473121643065e-06, 5.20703125) (-5.813539505004882e-06, 5.208984375) (-6.414709091186523e-06, 5.2109375) (-6.992957592010497e-06, 5.212890625) (-7.543270111083984e-06, 5.21484375) (-8.060863494873046e-06, 5.216796875) (-8.54122257232666e-06, 5.21875) (-8.980123519897461e-06, 5.220703125) (-9.373644828796387e-06, 5.22265625) (-9.718193054199218e-06, 5.224609375) (-1.0010515213012695e-05, 5.2265625) (-1.0247730255126953e-05, 5.228515625) (-1.0427356719970703e-05, 5.23046875) (-1.0547342300415039e-05, 5.232421875) (-1.0606082916259765e-05, 5.234375) (-1.0602478981018066e-05, 5.236328125) (-1.0535959243774413e-05, 5.23828125) (-1.0406535148620604e-05, 5.240234375) (-1.0214828491210938e-05, 5.2421875) (-9.962078094482421e-06, 5.244140625) (-9.650138854980468e-06, 5.24609375) (-9.281447410583496e-06, 5.248046875) (-8.85897445678711e-06, 5.25) (-8.386173248291016e-06, 5.251953125) (-7.866921424865723e-06, 5.25390625) (-7.3054571151733395e-06, 5.255859375) (-6.70630931854248e-06, 5.2578125) (-6.0742282867431635e-06, 5.259765625) (-5.414119720458984e-06, 5.26171875) (-4.7310037612915035e-06, 5.263671875) (-4.029993057250977e-06, 5.265625) (-3.3162512779235836e-06, 5.267578125) (-2.5949656963348387e-06, 5.26953125) (-1.8713113069534302e-06, 5.271484375) (-1.1504184007644653e-06, 5.2734375) (-4.3735286593437194e-07, 5.275390625) (2.628948092460632e-07, 5.27734375) (9.454423189163207e-07, 5.279296875) (1.6055457592010498e-06, 5.28125) (2.2386236190795896e-06, 5.283203125) (2.840290069580078e-06, 5.28515625) (3.4063768386840818e-06, 5.287109375) (3.932952404022217e-06, 5.2890625) (4.416356086730957e-06, 5.291015625) (4.8532295227050775e-06, 5.29296875) (5.240550041198731e-06, 5.294921875) (5.575665950775146e-06, 5.296875) (5.856330871582031e-06, 5.298828125) (6.080722808837891e-06, 5.30078125) (6.2474684715271e-06, 5.302734375) (6.355678081512451e-06, 5.3046875) (6.4049592018127436e-06, 5.306640625) (6.395430564880371e-06, 5.30859375) (6.327709197998047e-06, 5.310546875) (6.202880382537842e-06, 5.3125) (6.022469520568848e-06, 5.314453125) (5.788425445556641e-06, 5.31640625) (5.5030779838562005e-06, 5.318359375) (5.169110774993896e-06, 5.3203125) (4.789499759674072e-06, 5.322265625) (4.367454528808593e-06, 5.32421875) (3.906381130218506e-06, 5.326171875) (3.409865617752075e-06, 5.328125) (2.881638765335083e-06, 5.330078125) (2.3255541324615477e-06, 5.33203125) (1.7455508708953858e-06, 5.333984375) (1.1456128358840942e-06, 5.3359375) (5.297567844390869e-07, 5.337890625) (-9.797501564025879e-08, 5.33984375) (-7.335413694381714e-07, 5.341796875) (-1.3729219436645508e-06, 5.34375) (-2.0121450424194337e-06, 5.345703125) (-2.6473360061645506e-06, 5.34765625) (-3.2747411727905274e-06, 5.349609375) (-3.890742778778076e-06, 5.3515625) (-4.491900444030761e-06, 5.353515625) (-5.074969291687012e-06, 5.35546875) (-5.636932373046875e-06, 5.357421875) (-6.175036907196044e-06, 5.359375) (-6.6868147850036615e-06, 5.361328125) (-7.170080184936523e-06, 5.36328125) (-7.622950553894043e-06, 5.365234375) (-8.043855667114257e-06, 5.3671875) (-8.431561470031738e-06, 5.369140625) (-8.785189628601073e-06, 5.37109375) (-9.10420799255371e-06, 5.373046875) (-9.388410568237305e-06, 5.375) (-9.637921333312988e-06, 5.376953125) (-9.85318374633789e-06, 5.37890625) (-1.0034955978393554e-05, 5.380859375) (-1.0184307098388671e-05, 5.3828125) (-1.0302566528320311e-05, 5.384765625) (-1.0391284942626952e-05, 5.38671875) (-1.0452234268188476e-05, 5.388671875) (-1.0487391471862793e-05, 5.390625) (-1.04989013671875e-05, 5.392578125) (-1.0489063262939452e-05, 5.39453125) (-1.0460285186767578e-05, 5.396484375) (-1.0415026664733887e-05, 5.3984375) (-1.0355817794799805e-05, 5.400390625) (-1.0285249710083007e-05, 5.40234375) (-1.0205911636352538e-05, 5.404296875) (-1.0120394706726074e-05, 5.40625) (-1.003125e-05, 5.408203125) (-9.940935134887695e-06, 5.41015625) (-9.851825714111327e-06, 5.412109375) (-9.766210556030272e-06, 5.4140625) (-9.6862154006958e-06, 5.416015625) (-9.613780975341796e-06, 5.41796875) (-9.550633430480956e-06, 5.419921875) (-9.498249053955078e-06, 5.421875) (-9.457897186279296e-06, 5.423828125) (-9.430646896362305e-06, 5.42578125) (-9.417346954345702e-06, 5.427734375) (-9.418642044067382e-06, 5.4296875) (-9.434916496276855e-06, 5.431640625) (-9.466314315795898e-06, 5.43359375) (-9.512812614440918e-06, 5.435546875) (-9.574230194091797e-06, 5.4375) (-9.650146484375e-06, 5.439453125) (-9.739935874938965e-06, 5.44140625) (-9.842721939086913e-06, 5.443359375) (-9.95732593536377e-06, 5.4453125) (-1.0082440376281739e-05, 5.447265625) (-1.0216604232788085e-05, 5.44921875) (-1.0358082771301269e-05, 5.451171875) (-1.0504932403564453e-05, 5.453125) (-1.0655044555664062e-05, 5.455078125) (-1.0806133270263672e-05, 5.45703125) (-1.0955886840820313e-05, 5.458984375) (-1.1102044105529785e-05, 5.4609375) (-1.124224853515625e-05, 5.462890625) (-1.1374055862426757e-05, 5.46484375) (-1.1495054244995117e-05, 5.466796875) (-1.160286521911621e-05, 5.46875) (-1.1695192337036132e-05, 5.470703125) (-1.1769891738891601e-05, 5.47265625) (-1.1824844360351563e-05, 5.474609375) (-1.1857910156249999e-05, 5.4765625) (-1.1867118835449219e-05, 5.478515625) (-1.1850769996643066e-05, 5.48046875) (-1.1807521820068359e-05, 5.482421875) (-1.173639678955078e-05, 5.484375) (-1.1636569023132324e-05, 5.486328125) (-1.1507353782653807e-05, 5.48828125) (-1.1348264694213866e-05, 5.490234375) (-1.1159016609191894e-05, 5.4921875) (-1.0939654350280762e-05, 5.494140625) (-1.0690465927124024e-05, 5.49609375) (-1.0411642074584961e-05, 5.498046875) (-1.0103359222412109e-05, 5.5) (-9.766040802001952e-06, 5.501953125) (-9.400280952453613e-06, 5.50390625) (-9.007001876831054e-06, 5.505859375) (-8.587601661682128e-06, 5.5078125) (-8.14346408843994e-06, 5.509765625) (-7.676044940948485e-06, 5.51171875) (-7.18733549118042e-06, 5.513671875) (-6.679688453674316e-06, 5.515625) (-6.155762672424316e-06, 5.517578125) (-5.618610382080078e-06, 5.51953125) (-5.071288108825683e-06, 5.521484375) (-4.516689777374267e-06, 5.5234375) (-3.957980632781983e-06, 5.525390625) (-3.398722648620605e-06, 5.52734375) (-2.842628002166748e-06, 5.529296875) (-2.293585777282715e-06, 5.53125) (-1.7556444406509398e-06, 5.533203125) (-1.2328567504882811e-06, 5.53515625) (-7.29737639427185e-07, 5.537109375) (-2.514678835868835e-07, 5.5390625) (1.9658640027046202e-07, 5.541015625) (6.093109846115112e-07, 5.54296875) (9.820175170898437e-07, 5.544921875) (1.310442805290222e-06, 5.546875) (1.5908373594284057e-06, 5.548828125) (1.8197100162506102e-06, 5.55078125) (1.9942712783813477e-06, 5.552734375) (2.112683534622192e-06, 5.5546875) (2.1732256412506103e-06, 5.556640625) (2.1740999221801758e-06, 5.55859375) (2.11314058303833e-06, 5.560546875) (1.9878766536712647e-06, 5.5625) (1.7958931922912596e-06, 5.564453125) (1.5347814559936523e-06, 5.56640625) (1.2020142078399658e-06, 5.568359375) (7.951765060424804e-07, 5.5703125) (3.1312096118927e-07, 5.572265625) (-2.442965805530548e-07, 5.57421875) (-8.750379681587219e-07, 5.576171875) (-1.5752012729644774e-06, 5.578125) (-2.3432884216308594e-06, 5.580078125) (-3.1784222126007078e-06, 5.58203125) (-4.081330299377441e-06, 5.583984375) (-5.055651664733887e-06, 5.5859375) (-6.100987911224365e-06, 5.587890625) (-7.213074207305908e-06, 5.58984375) (-8.388230323791503e-06, 5.591796875) (-9.621294975280762e-06, 5.59375) (-1.0900486946105956e-05, 5.595703125) (-1.2209540367126465e-05, 5.59765625) (-1.3523170471191405e-05, 5.599609375) (-1.4805343627929688e-05, 5.6015625) (-1.6027322769165037e-05, 5.603515625) (-1.7165740966796874e-05, 5.60546875) (-1.819893264770508e-05, 5.607421875) (-1.9109909057617186e-05, 5.609375) (-1.9871971130371092e-05, 5.611328125) (-2.0454309463500975e-05, 5.61328125) (-2.0827754974365233e-05, 5.615234375) (-2.0962480545043943e-05, 5.6171875) (-2.0841152191162107e-05, 5.619140625) (-2.045561408996582e-05, 5.62109375) (-1.9791765213012696e-05, 5.623046875) (-1.8837520599365235e-05, 5.625) (-1.760639190673828e-05, 5.626953125) (-1.612877082824707e-05, 5.62890625) (-1.4465105056762695e-05, 5.630859375) (-1.2710962295532226e-05, 5.6328125) (-1.092913818359375e-05, 5.634765625) (-9.165422439575196e-06, 5.63671875) (-7.4712872505187984e-06, 5.638671875) (-5.8814802169799804e-06, 5.640625) (-4.4717502593994135e-06, 5.642578125) (-3.346281051635742e-06, 5.64453125) (-2.5741612911224362e-06, 5.646484375) (-2.1994829177856443e-06, 5.6484375) (-2.23238468170166e-06, 5.650390625) (-2.6341071128845212e-06, 5.65234375) (-3.420476675033569e-06, 5.654296875) (-4.683474540710449e-06, 5.65625) (-6.347623348236084e-06, 5.658203125) (-8.182257652282714e-06, 5.66015625) (-9.911800384521485e-06, 5.662109375) (-1.11536865234375e-05, 5.6640625) (-1.1732719421386718e-05, 5.666015625) (-1.174677276611328e-05, 5.66796875) (-1.1097509384155272e-05, 5.669921875) (-9.44107437133789e-06, 5.671875) (-6.615705013275146e-06, 5.673828125) (-2.68304443359375e-06, 5.67578125) (2.1137783527374267e-06, 5.677734375) (7.162681102752685e-06, 5.6796875) (1.2222664833068847e-05, 5.681640625) (1.775267219543457e-05, 5.68359375) (2.4012718200683593e-05, 5.685546875) (3.094319534301758e-05, 5.6875) (3.859793472290039e-05, 5.689453125) (4.716290283203125e-05, 5.69140625) (5.723428344726562e-05, 5.693359375) (7.0178955078125e-05, 5.6953125) (8.705572509765625e-05, 5.697265625) (0.00010788714599609375, 5.69921875) (0.00013256521606445313, 5.701171875) (0.00016093905639648438, 5.703125) (0.00019266009521484373, 5.705078125) (0.0002272826690673828, 5.70703125) (0.00026344046020507813, 5.708984375) (0.0002984404296875, 5.7109375) (0.0003293704833984375, 5.712890625) (0.0003539443359375, 5.71484375) (0.00037025140380859376, 5.716796875) (0.0003768393859863281, 5.71875) (0.00037243246459960934, 5.720703125) (0.0003559151916503906, 5.72265625) (0.00032758471679687496, 5.724609375) (0.0002893663330078125, 5.7265625) (0.00024408261108398437, 5.728515625) (0.00019492697143554686, 5.73046875) (0.0001448767395019531, 5.732421875) (9.657257843017578e-05, 5.734375) (5.2899875640869136e-05, 5.736328125) (1.6631126403808594e-05, 5.73828125) (-1.0734781265258788e-05, 5.740234375) (-2.89490966796875e-05, 5.7421875) (-3.883259582519531e-05, 5.744140625) (-4.2044548034667966e-05, 5.74609375) (-4.015904235839844e-05, 5.748046875) (-3.4755531311035155e-05, 5.75) (-2.7940820693969726e-05, 5.751953125) (-2.1733560562133787e-05, 5.75390625) (-1.7469400405883788e-05, 5.755859375) (-1.58444709777832e-05, 5.7578125) (-1.6716934204101563e-05, 5.759765625) (-1.9509700775146485e-05, 5.76171875) (-2.393918991088867e-05, 5.763671875) (-2.936587905883789e-05, 5.765625) (-3.467883682250977e-05, 5.767578125) (-3.913575744628906e-05, 5.76953125) (-4.1964889526367184e-05, 5.771484375) (-4.3627887725830075e-05, 5.7734375) (-4.625026321411133e-05, 5.775390625) (-4.9765724182128905e-05, 5.77734375) (-5.2795772552490234e-05, 5.779296875) (-5.28173713684082e-05, 5.78125) (-4.4852287292480465e-05, 5.783203125) (-2.972373580932617e-05, 5.78515625) (-1.3041069984436035e-05, 5.787109375) (-3.5616874694824216e-07, 5.7890625) (6.258400678634643e-07, 5.791015625) (-1.0236516952514648e-05, 5.79296875) (-2.5558502197265623e-05, 5.794921875) (-3.9592258453369136e-05, 5.796875) (-4.606019973754882e-05, 5.798828125) (-4.402399063110352e-05, 5.80078125) (-3.8917911529541016e-05, 5.802734375) (-3.401417541503906e-05, 5.8046875) (-3.161509895324707e-05, 5.806640625) (-3.2281410217285154e-05, 5.80859375) (-3.369843292236328e-05, 5.810546875) (-3.482247161865234e-05, 5.8125) (-3.56645393371582e-05, 5.814453125) (-3.612649536132812e-05, 5.81640625) (-3.653244781494141e-05, 5.818359375) (-3.6950981140136716e-05, 5.8203125) (-3.7089691162109374e-05, 5.822265625) (-3.687715911865234e-05, 5.82421875) (-3.639202880859375e-05, 5.826171875) (-3.566340637207031e-05, 5.828125) (-3.470761108398437e-05, 5.830078125) (-3.3561386108398434e-05, 5.83203125) (-3.22603645324707e-05, 5.833984375) (-3.085122489929199e-05, 5.8359375) (-2.9412778854370117e-05, 5.837890625) (-2.7992515563964844e-05, 5.83984375) (-2.6600063323974607e-05, 5.841796875) (-2.5264862060546873e-05, 5.84375) (-2.4017208099365235e-05, 5.845703125) (-2.2873092651367186e-05, 5.84765625) (-2.1848102569580076e-05, 5.849609375) (-2.0947250366210936e-05, 5.8515625) (-2.0163719177246093e-05, 5.853515625) (-1.949454116821289e-05, 5.85546875) (-1.8936023712158203e-05, 5.857421875) (-1.847732162475586e-05, 5.859375) (-1.811074638366699e-05, 5.861328125) (-1.783014678955078e-05, 5.86328125) (-1.7628599166870115e-05, 5.865234375) (-1.7502410888671875e-05, 5.8671875) (-1.744649314880371e-05, 5.869140625) (-1.7453184127807616e-05, 5.87109375) (-1.751498794555664e-05, 5.873046875) (-1.7623846054077146e-05, 5.875) (-1.7772375106811523e-05, 5.876953125) (-1.7955142974853514e-05, 5.87890625) (-1.816719627380371e-05, 5.880859375) (-1.8403835296630857e-05, 5.8828125) (-1.8661472320556638e-05, 5.884765625) (-1.8937076568603514e-05, 5.88671875) (-1.922878646850586e-05, 5.888671875) (-1.953604507446289e-05, 5.890625) (-1.9857284545898437e-05, 5.892578125) (-2.0189937591552732e-05, 5.89453125) (-2.0531276702880857e-05, 5.896484375) (-2.087823486328125e-05, 5.8984375) (-2.1228227615356444e-05, 5.900390625) (-2.157940673828125e-05, 5.90234375) (-2.1929794311523436e-05, 5.904296875) (-2.2277339935302733e-05, 5.90625) (-2.2620697021484374e-05, 5.908203125) (-2.2959014892578126e-05, 5.91015625) (-2.3291881561279296e-05, 5.912109375) (-2.361948204040527e-05, 5.9140625) (-2.3942062377929687e-05, 5.916015625) (-2.4259757995605467e-05, 5.91796875) (-2.457293891906738e-05, 5.919921875) (-2.4882211685180662e-05, 5.921875) (-2.5188405990600584e-05, 5.923828125) (-2.5492733001708985e-05, 5.92578125) (-2.5796627044677732e-05, 5.927734375) (-2.610147666931152e-05, 5.9296875) (-2.6408641815185547e-05, 5.931640625) (-2.6719505310058593e-05, 5.93359375) (-2.7035415649414062e-05, 5.935546875) (-2.7357583999633787e-05, 5.9375) (-2.7687015533447264e-05, 5.939453125) (-2.8024295806884763e-05, 5.94140625) (-2.836966323852539e-05, 5.943359375) (-2.8723133087158203e-05, 5.9453125) (-2.908450698852539e-05, 5.947265625) (-2.945334434509277e-05, 5.94921875) (-2.9828891754150388e-05, 5.951171875) (-3.0210046768188474e-05, 5.953125) (-3.0595451354980464e-05, 5.955078125) (-3.0983547210693355e-05, 5.95703125) (-3.137247848510742e-05, 5.958984375) (-3.1760066986083985e-05, 5.9609375) (-3.214382553100586e-05, 5.962890625) (-3.2520935058593746e-05, 5.96484375) (-3.2888389587402345e-05, 5.966796875) (-3.324308013916015e-05, 5.96875) (-3.358170318603515e-05, 5.970703125) (-3.3900802612304686e-05, 5.97265625) (-3.419688034057617e-05, 5.974609375) (-3.446640014648437e-05, 5.9765625) (-3.4705902099609375e-05, 5.978515625) (-3.491207122802734e-05, 5.98046875) (-3.508168029785156e-05, 5.982421875) (-3.521154403686523e-05, 5.984375) (-3.529859924316406e-05, 5.986328125) (-3.5339889526367185e-05, 5.98828125) (-3.5332653045654296e-05, 5.990234375) (-3.527438735961914e-05, 5.9921875) (-3.516287994384765e-05, 5.994140625) (-3.4996181488037105e-05, 5.99609375) (-3.4772689819335935e-05, 5.998046875) (-3.4491210937499996e-05, 6.0) (-3.4151023864746095e-05, 6.001953125) (-3.375196075439453e-05, 6.00390625) (-3.3294288635253905e-05, 6.005859375) (-3.2778724670410156e-05, 6.0078125) (-3.220642852783203e-05, 6.009765625) (-3.1578964233398436e-05, 6.01171875) (-3.089838981628418e-05, 6.013671875) (-3.016720962524414e-05, 6.015625) (-2.9388355255126952e-05, 6.017578125) (-2.8565143585205078e-05, 6.01953125) (-2.7701297760009765e-05, 6.021484375) (-2.680095863342285e-05, 6.0234375) (-2.586865997314453e-05, 6.025390625) (-2.490933609008789e-05, 6.02734375) (-2.3928176879882813e-05, 6.029296875) (-2.29305419921875e-05, 6.03125) (-2.192192840576172e-05, 6.033203125) (-2.090789794921875e-05, 6.03515625) (-1.9894031524658202e-05, 6.037109375) (-1.8885883331298826e-05, 6.0390625) (-1.7888872146606445e-05, 6.041015625) (-1.6908237457275388e-05, 6.04296875) (-1.5949042320251466e-05, 6.044921875) (-1.5016157150268554e-05, 6.046875) (-1.4114274978637695e-05, 6.048828125) (-1.3247857093811035e-05, 6.05078125) (-1.2421077728271483e-05, 6.052734375) (-1.1637748718261718e-05, 6.0546875) (-1.0901311874389649e-05, 6.056640625) (-1.0214811325073242e-05, 6.05859375) (-9.580872535705566e-06, 6.060546875) (-9.001659393310547e-06, 6.0625) (-8.478820800781249e-06, 6.064453125) (-8.013469696044922e-06, 6.06640625) (-7.606229782104492e-06, 6.068359375) (-7.2572679519653315e-06, 6.0703125) (-6.9663252830505366e-06, 6.072265625) (-6.732726097106933e-06, 6.07421875) (-6.555352210998535e-06, 6.076171875) (-6.43265151977539e-06, 6.078125) (-6.362673759460449e-06, 6.080078125) (-6.343099594116211e-06, 6.08203125) (-6.371252059936523e-06, 6.083984375) (-6.444091796875e-06, 6.0859375) (-6.558215618133545e-06, 6.087890625) (-6.709888458251953e-06, 6.08984375) (-6.895124435424804e-06, 6.091796875) (-7.10977029800415e-06, 6.09375) (-7.349566459655761e-06, 6.095703125) (-7.610188961029052e-06, 6.09765625) (-7.887288093566893e-06, 6.099609375) (-8.17653465270996e-06, 6.1015625) (-8.473695755004882e-06, 6.103515625) (-8.774682998657227e-06, 6.10546875) (-9.07557487487793e-06, 6.107421875) (-9.372615814208984e-06, 6.109375) (-9.662216186523437e-06, 6.111328125) (-9.940979957580567e-06, 6.11328125) (-1.020577049255371e-05, 6.115234375) (-1.045375919342041e-05, 6.1171875) (-1.0682456970214842e-05, 6.119140625) (-1.0889729499816894e-05, 6.12109375) (-1.1073804855346679e-05, 6.123046875) (-1.1233306884765625e-05, 6.125) (-1.1367279052734375e-05, 6.126953125) (-1.147519016265869e-05, 6.12890625) (-1.155689239501953e-05, 6.130859375) (-1.1612571716308593e-05, 6.1328125) (-1.164268970489502e-05, 6.134765625) (-1.1647962570190429e-05, 6.13671875) (-1.1629349708557128e-05, 6.138671875) (-1.1588042259216308e-05, 6.140625) (-1.1525420188903808e-05, 6.142578125) (-1.1443032264709473e-05, 6.14453125) (-1.1342572212219238e-05, 6.146484375) (-1.1225873947143554e-05, 6.1484375) (-1.109491729736328e-05, 6.150390625) (-1.0951807022094726e-05, 6.15234375) (-1.0798714637756348e-05, 6.154296875) (-1.0637826919555664e-05, 6.15625) (-1.0471289634704589e-05, 6.158203125) (-1.0301179885864258e-05, 6.16015625) (-1.0129491806030273e-05, 6.162109375) (-9.958118438720703e-06, 6.1640625) (-9.788815498352051e-06, 6.166015625) (-9.623169898986816e-06, 6.16796875) (-9.462602615356445e-06, 6.169921875) (-9.308374404907227e-06, 6.171875) (-9.161600112915039e-06, 6.173828125) (-9.023242950439453e-06, 6.17578125) (-8.894064903259277e-06, 6.177734375) (-8.774589538574218e-06, 6.1796875) (-8.665075302124022e-06, 6.181640625) (-8.56550407409668e-06, 6.18359375) (-8.475564956665039e-06, 6.185546875) (-8.39466381072998e-06, 6.1875) (-8.321900367736815e-06, 6.189453125) (-8.256089210510253e-06, 6.19140625) (-8.195816040039062e-06, 6.193359375) (-8.139493942260741e-06, 6.1953125) (-8.085432052612304e-06, 6.197265625) (-8.031875610351562e-06, 6.19921875) (-7.97703742980957e-06, 6.201171875) (-7.91911506652832e-06, 6.203125) (-7.856328010559082e-06, 6.205078125) (-7.786943912506103e-06, 6.20703125) (-7.709293365478515e-06, 6.208984375) (-7.621786594390869e-06, 6.2109375) (-7.522919178009033e-06, 6.212890625) (-7.411290645599365e-06, 6.21484375) (-7.285643100738525e-06, 6.216796875) (-7.144908428192138e-06, 6.21875) (-6.988237380981445e-06, 6.220703125) (-6.815014839172363e-06, 6.22265625) (-6.62485408782959e-06, 6.224609375) (-6.417581558227539e-06, 6.2265625) (-6.193235397338867e-06, 6.228515625) (-5.952062606811523e-06, 6.23046875) (-5.6944952011108395e-06, 6.232421875) (-5.42112922668457e-06, 6.234375) (-5.132702350616455e-06, 6.236328125) (-4.83009147644043e-06, 6.23828125) (-4.514341831207275e-06, 6.240234375) (-4.186694145202637e-06, 6.2421875) (-3.848598480224609e-06, 6.244140625) (-3.5017228126525877e-06, 6.24609375) (-3.147952079772949e-06, 6.248046875) (-2.7893791198730467e-06, 6.25) (-2.4282941818237303e-06, 6.251953125) (-2.067153215408325e-06, 6.25390625) (-1.7085208892822264e-06, 6.255859375) (-1.3550115823745726e-06, 6.2578125) (-1.0092490911483763e-06, 6.259765625) (-6.738235354423523e-07, 6.26171875) (-3.5126635432243347e-07, 6.263671875) (-4.4039227068424226e-08, 6.265625) (2.4549707770347596e-07, 6.267578125) (5.151071548461914e-07, 6.26953125) (7.626820206642151e-07, 6.271484375) (9.86263334751129e-07, 6.2734375) (1.184065818786621e-06, 6.275390625) (1.3544940948486327e-06, 6.27734375) (1.4961891174316406e-06, 6.279296875) (1.608062982559204e-06, 6.28125) (1.6893013715744017e-06, 6.283203125) (1.739359736442566e-06, 6.28515625) (1.7579383850097656e-06, 6.287109375) (1.7449526786804198e-06, 6.2890625) (1.700525164604187e-06, 6.291015625) (1.624964952468872e-06, 6.29296875) (1.5187278985977172e-06, 6.294921875) (1.3824000358581542e-06, 6.296875) (1.2166825532913207e-06, 6.298828125) (1.0223891735076903e-06, 6.30078125) (8.00493597984314e-07, 6.302734375) (5.521442890167236e-07, 6.3046875) (2.7863723039627073e-07, 6.306640625) (-1.857810467481613e-08, 