(3.907803726196289e-05, 0.0) (3.627668762207031e-05, 0.001953125) (3.3431945800781246e-05, 0.00390625) (3.0553728103637695e-05, 0.005859375) (2.765191650390625e-05, 0.0078125) (2.4736351013183592e-05, 0.009765625) (2.181680107116699e-05, 0.01171875) (1.890288734436035e-05, 0.013671875) (1.6003992080688476e-05, 0.015625) (1.3129139900207519e-05, 0.017578125) (1.0286913871765136e-05, 0.01953125) (7.485390663146972e-06, 0.021484375) (4.732097625732422e-06, 0.0234375) (2.033960819244385e-06, 0.025390625) (-6.02728009223938e-07, 0.02734375) (-3.172321319580078e-06, 0.029296875) (-5.669772148132324e-06, 0.03125) (-8.090580940246582e-06, 0.033203125) (-1.0430742263793946e-05, 0.03515625) (-1.2686695098876953e-05, 0.037109375) (-1.4855332374572752e-05, 0.0390625) (-1.6933998107910156e-05, 0.041015625) (-1.8920471191406248e-05, 0.04296875) (-2.081296157836914e-05, 0.044921875) (-2.2610084533691406e-05, 0.046875) (-2.431085968017578e-05, 0.048828125) (-2.591474151611328e-05, 0.05078125) (-2.742159652709961e-05, 0.052734375) (-2.8831680297851562e-05, 0.0546875) (-3.014559555053711e-05, 0.056640625) (-3.136423873901367e-05, 0.05859375) (-3.2488807678222654e-05, 0.060546875) (-3.352082824707031e-05, 0.0625) (-3.446213150024414e-05, 0.064453125) (-3.5314891815185544e-05, 0.06640625) (-3.6081577301025386e-05, 0.068359375) (-3.676494598388672e-05, 0.0703125) (-3.73680305480957e-05, 0.072265625) (-3.789413452148437e-05, 0.07421875) (-3.8346733093261716e-05, 0.076171875) (-3.872939300537109e-05, 0.078125) (-3.904568481445312e-05, 0.080078125) (-3.929907989501953e-05, 0.08203125) (-3.949287414550781e-05, 0.083984375) (-3.963013076782226e-05, 0.0859375) (-3.9713661193847656e-05, 0.087890625) (-3.9745998382568356e-05, 0.08984375) (-3.97293701171875e-05, 0.091796875) (-3.966572952270508e-05, 0.09375) (-3.955674743652343e-05, 0.095703125) (-3.940379333496094e-05, 0.09765625) (-3.920798492431641e-05, 0.099609375) (-3.897014617919922e-05, 0.1015625) (-3.869083023071289e-05, 0.103515625) (-3.8370296478271485e-05, 0.10546875) (-3.8008567810058594e-05, 0.107421875) (-3.760543823242187e-05, 0.109375) (-3.716051483154297e-05, 0.111328125) (-3.667323303222656e-05, 0.11328125) (-3.614290618896484e-05, 0.115234375) (-3.556874465942383e-05, 0.1171875) (-3.494988632202148e-05, 0.119140625) (-3.428541564941406e-05, 0.12109375) (-3.357429504394531e-05, 0.123046875) (-3.28152961730957e-05, 0.125) (-3.2007091522216794e-05, 0.126953125) (-3.114815902709961e-05, 0.12890625) (-3.0236778259277342e-05, 0.130859375) (-2.927105712890625e-05, 0.1328125) (-2.824888229370117e-05, 0.134765625) (-2.7167995452880857e-05, 0.13671875) (-2.6026126861572264e-05, 0.138671875) (-2.4821063995361326e-05, 0.140625) (-2.3550634384155274e-05, 0.142578125) (-2.2212734222412107e-05, 0.14453125) (-2.080545425415039e-05, 0.146484375) (-1.9327129364013672e-05, 0.1484375) (-1.7776330947875977e-05, 0.150390625) (-1.615189743041992e-05, 0.15234375) (-1.4452888488769531e-05, 0.154296875) (-1.2678594589233397e-05, 0.15625) (-1.0828700065612792e-05, 0.158203125) (-8.903417587280274e-06, 0.16015625) (-6.9034585952758785e-06, 0.162109375) (-4.830050468444824e-06, 0.1640625) (-2.6850125789642333e-06, 0.166015625) (-4.7069966793060303e-07, 0.16796875) (1.8101093769073486e-06, 0.169921875) (4.1542367935180664e-06, 0.171875) (6.558127880096435e-06, 0.173828125) (9.018016815185546e-06, 0.17578125) (1.1529924392700195e-05, 0.177734375) (1.4089585304260254e-05, 0.1796875) (1.669261932373047e-05, 0.181640625) (1.9334444046020506e-05, 0.18359375) (2.2009878158569335e-05, 0.185546875) (2.4713191986083985e-05, 0.1875) (2.7438304901123047e-05, 0.189453125) (3.0178546905517575e-05, 0.19140625) (3.2926834106445313e-05, 0.193359375) (3.567579650878906e-05, 0.1953125) (3.841758728027344e-05, 0.197265625) (4.11441650390625e-05, 0.19921875) (4.384747695922852e-05, 0.201171875) (4.651923751831055e-05, 0.203125) (4.9150478363037104e-05, 0.205078125) (5.173152542114258e-05, 0.20703125) (5.4252155303955075e-05, 0.208984375) (5.6701957702636716e-05, 0.2109375) (5.906987762451172e-05, 0.212890625) (6.13437042236328e-05, 0.21484375) (6.351058959960938e-05, 0.216796875) (6.555677032470702e-05, 0.21875) (6.746886444091796e-05, 0.220703125) (6.923477935791015e-05, 0.22265625) (7.084194946289063e-05, 0.224609375) (7.227664184570312e-05, 0.2265625) (7.352444458007812e-05, 0.228515625) (7.457048797607422e-05, 0.23046875) (7.5399658203125e-05, 0.232421875) (7.599835968017578e-05, 0.234375) (7.635449218749999e-05, 0.236328125) (7.645559692382813e-05, 0.23828125) (7.629058837890624e-05, 0.240234375) (7.584964752197266e-05, 0.2421875) (7.512464141845703e-05, 0.244140625) (7.411131286621093e-05, 0.24609375) (7.280765533447265e-05, 0.248046875) (7.12133560180664e-05, 0.25) (6.932611846923828e-05, 0.251953125) (6.714341735839843e-05, 0.25390625) (6.466730499267578e-05, 0.255859375) (6.190367889404297e-05, 0.2578125) (5.8865631103515625e-05, 0.259765625) (5.557121276855469e-05, 0.26171875) (5.203807830810547e-05, 0.263671875) (4.8281913757324215e-05, 0.265625) (4.4319965362548824e-05, 0.267578125) (4.016521072387695e-05, 0.26953125) (3.582816314697265e-05, 0.271484375) (3.1337377548217775e-05, 0.2734375) (2.6718143463134764e-05, 0.275390625) (2.1988388061523437e-05, 0.27734375) (1.717757797241211e-05, 0.279296875) (1.2303377151489258e-05, 0.28125) (7.386669158935546e-06, 0.283203125) (2.4969995021820067e-06, 0.28515625) (-2.3021254539489745e-06, 0.287109375) (-7.020831108093261e-06, 0.2890625) (-1.1679177284240722e-05, 0.291015625) (-1.6306682586669922e-05, 0.29296875) (-2.0936218261718748e-05, 0.294921875) (-2.5505126953124998e-05, 0.296875) (-2.9904085159301757e-05, 0.298828125) (-3.411494445800781e-05, 0.30078125) (-3.8135910034179686e-05, 0.302734375) (-4.176565170288086e-05, 0.3046875) (-4.476185607910156e-05, 0.306640625) (-4.714318084716797e-05, 0.30859375) (-4.891375732421875e-05, 0.310546875) (-5.016423034667969e-05, 0.3125) (-5.151931762695312e-05, 0.314453125) (-5.221699523925781e-05, 0.31640625) (-5.1498722076416015e-05, 0.318359375) (-5.1075691223144526e-05, 0.3203125) (-5.151878356933593e-05, 0.322265625) (-5.574908447265625e-05, 0.32421875) (-6.69056396484375e-05, 0.326171875) (-8.076097106933594e-05, 0.328125) (-9.427496337890624e-05, 0.330078125) (-0.00010285097503662108, 0.33203125) (-0.00010062350463867188, 0.333984375) (-9.16918716430664e-05, 0.3359375) (-7.952823638916015e-05, 0.337890625) (-6.667385101318359e-05, 0.33984375) (-5.806541442871093e-05, 0.341796875) (-5.145185089111328e-05, 0.34375) (-4.454555511474609e-05, 0.345703125) (-3.7911300659179685e-05, 0.34765625) (-3.068686294555664e-05, 0.349609375) (-2.4978458404541014e-05, 0.3515625) (-2.3517814636230467e-05, 0.353515625) (-2.6868675231933593e-05, 0.35546875) (-3.5234142303466796e-05, 0.357421875) (-4.8037826538085934e-05, 0.359375) (-6.42808837890625e-05, 0.361328125) (-8.30852813720703e-05, 0.36328125) (-0.00010353659057617188, 0.365234375) (-0.00012390725708007812, 0.3671875) (-0.00014127102661132813, 0.369140625) (-0.00015255262756347655, 0.37109375) (-0.00015484786987304686, 0.373046875) (-0.00014562142944335937, 0.375) (-0.00012263834381103514, 0.376953125) (-8.361199188232421e-05, 0.37890625) (-2.6429367065429688e-05, 0.380859375) (5.0113262176513666e-05, 0.3828125) (0.00014375735473632812, 0.384765625) (0.0002493026275634766, 0.38671875) (0.00036143832397460935, 0.388671875) (0.00047418139648437496, 0.390625) (0.0005855308837890625, 0.392578125) (0.0006972247314453125, 0.39453125) (0.0008051714477539063, 0.396484375) (0.000902239501953125, 0.3984375) (0.0009756712036132812, 0.400390625) (0.0010059652099609375, 0.40234375) (0.0009836948852539062, 0.404296875) (0.0009075479736328125, 0.40625) (0.0007827736206054687, 0.408203125) (0.0006263123779296875, 0.41015625) (0.0004530431518554687, 0.412109375) (0.00027669677734374997, 0.4140625) (0.000113957275390625, 0.416015625) (-2.5078002929687498e-05, 0.41796875) (-0.00013415069580078123, 0.419921875) (-0.00021249868774414062, 0.421875) (-0.00026891418457031246, 0.423828125) (-0.00031141598510742185, 0.42578125) (-0.00034420504760742185, 0.427734375) (-0.00036770819091796873, 0.4296875) (-0.00037689071655273436, 0.431640625) (-0.0003692326965332031, 0.43359375) (-0.00034722052001953126, 0.435546875) (-0.0003154448852539062, 0.4375) (-0.00028048422241210935, 0.439453125) (-0.00024732040405273434, 0.44140625) (-0.00021802947998046874, 0.443359375) (-0.000194171142578125, 0.4453125) (-0.00017683303833007812, 0.447265625) (-0.0001662105255126953, 0.44921875) (-0.00016200212097167968, 0.451171875) (-0.0001632909240722656, 0.453125) (-0.00016830534362792968, 0.455078125) (-0.00017516030883789061, 0.45703125) (-0.00018227854919433594, 0.458984375) (-0.00018778970336914063, 0.4609375) (-0.00019011351013183592, 0.462890625) (-0.00018862338256835936, 0.46484375) (-0.00018313653564453123, 0.466796875) (-0.00017394317626953125, 0.46875) (-0.00016198178100585936, 0.470703125) (-0.00014826269531249998, 0.47265625) (-0.00013386361694335937, 0.474609375) (-0.00012022293090820312, 0.4765625) (-0.00010841555786132812, 0.478515625) (-9.893995666503905e-05, 0.48046875) (-9.208685302734375e-05, 0.482421875) (-8.777631378173827e-05, 0.484375) (-8.567804718017578e-05, 0.486328125) (-8.5501220703125e-05, 0.48828125) (-8.678306579589843e-05, 0.490234375) (-8.888150024414062e-05, 0.4921875) (-9.136459350585937e-05, 0.494140625) (-9.398139190673828e-05, 0.49609375) (-9.657464599609375e-05, 0.498046875) (-9.914347076416015e-05, 0.5) (-0.00010165447998046874, 0.501953125) (-0.00010399525451660156, 0.50390625) (-0.00010611871337890624, 0.505859375) (-0.0001080009765625, 0.5078125) (-0.00010958644104003906, 0.509765625) (-0.00011081837463378906, 0.51171875) (-0.00011160454559326172, 0.513671875) (-0.00011185265350341796, 0.515625) (-0.00011153903198242187, 0.517578125) (-0.00011068600463867187, 0.51953125) (-0.00010934542846679686, 0.521484375) (-0.00010758277893066406, 0.5234375) (-0.00010544716644287109, 0.525390625) (-0.00010298101806640625, 0.52734375) (-0.00010023196411132812, 0.529296875) (-9.724475097656249e-05, 0.53125) (-9.407435607910156e-05, 0.533203125) (-9.078131103515625e-05, 0.53515625) (-8.741286468505859e-05, 0.537109375) (-8.40252456665039e-05, 0.5390625) (-8.06807403564453e-05, 0.541015625) (-7.74446792602539e-05, 0.54296875) (-7.439688110351563e-05, 0.544921875) (-7.159548950195313e-05, 0.546875) (-6.906709289550781e-05, 0.548828125) (-6.68213882446289e-05, 0.55078125) (-6.485078430175781e-05, 0.552734375) (-6.314143371582031e-05, 0.5546875) (-6.168348312377929e-05, 0.556640625) (-6.0460643768310545e-05, 0.55859375) (-5.944667434692383e-05, 0.560546875) (-5.861878204345703e-05, 0.5625) (-5.79533576965332e-05, 0.564453125) (-5.7427406311035155e-05, 0.56640625) (-5.702421951293945e-05, 0.568359375) (-5.67186164855957e-05, 0.5703125) (-5.647852325439453e-05, 0.572265625) (-5.626775360107422e-05, 0.57421875) (-5.604342651367187e-05, 0.576171875) (-5.57714729309082e-05, 0.578125) (-5.542941665649414e-05, 0.580078125) (-5.499947357177734e-05, 0.58203125) (-5.446886825561523e-05, 0.583984375) (-5.382807922363281e-05, 0.5859375) (-5.3068065643310544e-05, 0.587890625) (-5.218529891967773e-05, 0.58984375) (-5.118276214599609e-05, 0.591796875) (-5.0060573577880855e-05, 0.59375) (-4.881630325317383e-05, 0.595703125) (-4.744618225097656e-05, 0.59765625) (-4.594409942626953e-05, 0.599609375) (-4.430726623535156e-05, 0.6015625) (-4.253621673583984e-05, 0.603515625) (-4.0632369995117186e-05, 0.60546875) (-3.859815597534179e-05, 0.607421875) (-3.6435413360595704e-05, 0.609375) (-3.414511108398438e-05, 0.611328125) (-3.172905349731445e-05, 0.61328125) (-2.9189580917358398e-05, 0.615234375) (-2.652842330932617e-05, 0.6171875) (-2.374715805053711e-05, 0.619140625) (-2.0846506118774413e-05, 0.62109375) (-1.782628059387207e-05, 0.623046875) (-1.4687939643859862e-05, 0.625) (-1.1434375762939452e-05, 0.626953125) (-8.068897247314452e-06, 0.62890625) (-4.595511436462402e-06, 0.630859375) (-1.0181559324264526e-06, 0.6328125) (2.6595330238342285e-06, 0.634765625) (6.4333720207214356e-06, 0.63671875) (1.0298745155334472e-05, 0.638671875) (1.4251592636108398e-05, 0.640625) (1.8288328170776366e-05, 0.642578125) (2.2405698776245116e-05, 0.64453125) (2.660077667236328e-05, 0.646484375) (3.087040710449219e-05, 0.6484375) (3.521115875244141e-05, 0.650390625) (3.961964416503906e-05, 0.65234375) (4.409243011474609e-05, 0.654296875) (4.86258544921875e-05, 0.65625) (5.321583938598633e-05, 0.658203125) (5.785776519775391e-05, 0.66015625) (6.254651260375977e-05, 0.662109375) (6.727658081054687e-05, 0.6640625) (7.204206848144531e-05, 0.666015625) (7.683657836914062e-05, 0.66796875) (8.165312194824218e-05, 0.669921875) (8.648411560058593e-05, 0.671875) (9.132144165039062e-05, 0.673828125) (9.615658569335938e-05, 0.67578125) (0.00010098049926757813, 0.677734375) (0.00010578359985351561, 0.6796875) (0.0001105557861328125, 0.681640625) (0.00011528639984130859, 0.68359375) (0.0001199642562866211, 0.685546875) (0.0001245777130126953, 0.6875) (0.00012911471557617188, 0.689453125) (0.00013356263732910157, 0.69140625) (0.00013790834045410155, 0.693359375) (0.00014213818359375, 0.6953125) (0.00014623812866210937, 0.697265625) (0.00015019369506835936, 0.69921875) (0.00015399015808105468, 0.701171875) (0.00015761239624023437, 0.703125) (0.00016104501342773436, 0.705078125) (0.00016427247619628905, 0.70703125) (0.0001672792510986328, 0.708984375) (0.00017005006408691407, 0.7109375) (0.00017256994628906248, 0.712890625) (0.00017482427978515624, 0.71484375) (0.00017679910278320312, 0.716796875) (0.00017848110961914062, 0.71875) (0.0001798579864501953, 0.720703125) (0.00018091847229003905, 0.72265625) (0.0001816523742675781, 0.724609375) (0.00018205082702636718, 0.7265625) (0.00018210629272460936, 0.728515625) (0.000181812744140625, 0.73046875) (0.00018116566467285157, 0.732421875) (0.00018016220092773437, 0.734375) (0.00017880104064941406, 0.736328125) (0.00017708251953124998, 0.73828125) (0.00017500856018066405, 0.740234375) (0.00017258270263671875, 0.7421875) (0.00016981002807617187, 0.744140625) (0.0001666972198486328, 0.74609375) (0.00016325248718261718, 0.748046875) (0.00015948556518554686, 0.75) (0.00015540777587890625, 0.751953125) (0.00015103204345703124, 0.75390625) (0.00014637286376953124, 0.755859375) (0.00014144631958007813, 0.7578125) (0.00013626995849609375, 0.759765625) (0.00013086280822753905, 0.76171875) (0.00012524522399902344, 0.763671875) (0.0001194388198852539, 0.765625) (0.00011346635437011718, 0.767578125) (0.00010735147094726562, 0.76953125) (0.00010111862182617187, 0.771484375) (9.479286193847656e-05, 0.7734375) (8.839974975585937e-05, 0.775390625) (8.196520996093749e-05, 0.77734375) (7.551528930664063e-05, 0.779296875) (6.907599639892578e-05, 0.78125) (6.267309951782226e-05, 0.783203125) (5.633195495605468e-05, 0.78515625) (5.007726669311523e-05, 0.787109375) (4.393292236328125e-05, 0.7890625) (3.7921783447265624e-05, 0.791015625) (3.2065483093261716e-05, 0.79296875) (2.6384307861328122e-05, 0.794921875) (2.0897090911865235e-05, 0.796875) (1.5621183395385743e-05, 0.798828125) (1.0572426795959473e-05, 0.80078125) (5.765110969543457e-06, 0.802734375) (1.2119462490081787e-06, 0.8046875) (-3.075937747955322e-06, 0.806640625) (-7.088992118835449e-06, 0.80859375) (-1.0819260597229003e-05, 0.810546875) (-1.426042079925537e-05, 0.8125) (-1.740785980224609e-05, 0.814453125) (-2.025873756408691e-05, 0.81640625) (-2.281201934814453e-05, 0.818359375) (-2.5068437576293943e-05, 0.8203125) (-2.703046417236328e-05, 0.822265625) (-2.8702259063720702e-05, 0.82421875) (-3.0089635848999022e-05, 0.826171875) (-3.1199987411499025e-05, 0.828125) (-3.2042198181152345e-05, 0.830078125) (-3.262651062011719e-05, 0.83203125) (-3.296445083618164e-05, 0.833984375) (-3.306872940063476e-05, 0.8359375) (-3.295316696166992e-05, 0.837890625) (-3.263267135620117e-05, 0.83984375) (-3.212304306030273e-05, 0.841796875) (-3.1440845489501955e-05, 0.84375) (-3.060321807861328e-05, 0.845703125) (-2.9627668380737302e-05, 0.84765625) (-2.853190231323242e-05, 0.849609375) (-2.7333635330200193e-05, 0.8515625) (-2.6050384521484376e-05, 0.853515625) (-2.4699268341064452e-05, 0.85546875) (-2.329687690734863e-05, 0.857421875) (-2.1859157562255857e-05, 0.859375) (-2.040140151977539e-05, 0.861328125) (-1.8938222885131837e-05, 0.86328125) (-1.7483539581298826e-05, 0.865234375) (-1.6050504684448242e-05, 0.8671875) (-1.4651500701904296e-05, 0.869140625) (-1.3298108100891113e-05, 0.87109375) (-1.20010986328125e-05, 0.873046875) (-1.0770401000976562e-05, 0.875) (-9.61503505706787e-06, 0.876953125) (-8.543037414550781e-06, 0.87890625) (-7.561445236206055e-06, 0.880859375) (-6.6763095855712884e-06, 0.8828125) (-5.892745018005371e-06, 0.884765625) (-5.214982986450195e-06, 0.88671875) (-4.6463832855224604e-06, 0.888671875) (-4.189438819885254e-06, 0.890625) (-3.845793008804321e-06, 0.892578125) (-3.6162600517272947e-06, 0.89453125) (-3.500838994979858e-06, 0.896484375) (-3.4987077713012693e-06, 0.8984375) (-3.608183145523071e-06, 0.900390625) (-3.826685190200805e-06, 0.90234375) (-4.150762557983398e-06, 0.904296875) (-4.576172828674317e-06, 0.90625) (-5.098008632659912e-06, 0.908203125) (-5.710834026336669e-06, 0.91015625) (-6.40880298614502e-06, 0.912109375) (-7.185761451721191e-06, 0.9140625) (-8.035378456115722e-06, 0.916015625) (-8.951272964477538e-06, 0.91796875) (-9.927114486694335e-06, 0.919921875) (-1.0956682205200195e-05, 0.921875) (-1.203384780883789e-05, 0.923828125) (-1.315255832672119e-05, 0.92578125) (-1.4306833267211914e-05, 0.927734375) (-1.549081802368164e-05, 0.9296875) (-1.6698802947998047e-05, 0.931640625) (-1.7925271987915038e-05, 0.93359375) (-1.91649055480957e-05, 0.935546875) (-2.0412574768066404e-05, 0.9375) (-2.1663370132446288e-05, 0.939453125) (-2.2912620544433594e-05, 0.94140625) (-2.4155902862548828e-05, 0.943359375) (-2.5388961791992188e-05, 0.9453125) (-2.6607646942138672e-05, 0.947265625) (-2.7807844161987305e-05, 0.94921875) (-2.898542213439941e-05, 0.951171875) (-3.0136268615722656e-05, 0.953125) (-3.125631332397461e-05, 0.955078125) (-3.2341590881347656e-05, 0.95703125) (-3.338827514648437e-05, 0.958984375) (-3.439276504516602e-05, 0.9609375) (-3.535176467895508e-05, 0.962890625) (-3.626239776611328e-05, 0.96484375) (-3.712226104736328e-05, 0.966796875) (-3.792941284179687e-05, 0.96875) (-3.8682304382324216e-05, 0.970703125) (-3.9379737854003906e-05, 0.97265625) (-4.002079010009765e-05, 0.974609375) (-4.060479354858398e-05, 0.9765625) (-4.1131351470947266e-05, 0.978515625) (-4.160024261474609e-05, 0.98046875) (-4.201143646240234e-05, 0.982421875) (-4.2365070343017576e-05, 0.984375) (-4.266150665283203e-05, 0.986328125) (-4.290134811401367e-05, 0.98828125) (-4.308548355102539e-05, 0.990234375) (-4.321500015258789e-05, 0.9921875) (-4.32911376953125e-05, 0.994140625) (-4.3315231323242186e-05, 0.99609375) (-4.328867721557617e-05, 0.998046875) (-4.321294403076172e-05, 1.0) (-4.3089599609374996e-05, 1.001953125) (-4.292028427124023e-05, 1.00390625) (-4.270679473876953e-05, 1.005859375) (-4.245116424560547e-05, 1.0078125) (-4.215573883056641e-05, 1.009765625) (-4.182330703735351e-05, 1.01171875) (-4.145713424682617e-05, 1.013671875) (-4.1060943603515626e-05, 1.015625) (-4.063886260986328e-05, 1.017578125) (-4.019534683227539e-05, 1.01953125) (-3.973509216308594e-05, 1.021484375) (-3.926297760009765e-05, 1.0234375) (-3.878393173217773e-05, 1.025390625) (-3.83028564453125e-05, 1.02734375) (-3.7824546813964845e-05, 1.029296875) (-3.735367584228516e-05, 1.03125) (-3.6894836425781246e-05, 1.033203125) (-3.645253753662109e-05, 1.03515625) (-3.603119659423828e-05, 1.037109375) (-3.5635101318359376e-05, 1.0390625) (-3.526833343505859e-05, 1.041015625) (-3.4934745788574215e-05, 1.04296875) (-3.463788604736328e-05, 1.044921875) (-3.438095855712891e-05, 1.046875) (-3.4166770935058594e-05, 1.048828125) (-3.39976806640625e-05, 1.05078125) (-3.387562942504883e-05, 1.052734375) (-3.380219268798828e-05, 1.0546875) (-3.377872085571289e-05, 1.056640625) (-3.380639266967773e-05, 1.05859375) (-3.388628005981445e-05, 1.060546875) (-3.401935577392578e-05, 1.0625) (-3.420648193359375e-05, 1.064453125) (-3.44483642578125e-05, 1.06640625) (-3.474549102783203e-05, 1.068359375) (-3.5098068237304684e-05, 1.0703125) (-3.5505863189697264e-05, 1.072265625) (-3.5968151092529295e-05, 1.07421875) (-3.6483642578125e-05, 1.076171875) (-3.7050540924072264e-05, 1.078125) (-3.766657257080078e-05, 1.080078125) (-3.832909774780273e-05, 1.08203125) (-3.9035133361816404e-05, 1.083984375) (-3.978142166137695e-05, 1.0859375) (-4.056446838378906e-05, 1.087890625) (-4.1380592346191405e-05, 1.08984375) (-4.22259521484375e-05, 1.091796875) (-4.309651184082031e-05, 1.09375) (-4.3988044738769526e-05, 1.095703125) (-4.489610290527343e-05, 1.09765625) (-4.5816070556640625e-05, 1.099609375) (-4.674326705932617e-05, 1.1015625) (-4.767304992675781e-05, 1.103515625) (-4.86009407043457e-05, 1.10546875) (-4.9522705078125e-05, 1.107421875) (-5.0434432983398435e-05, 1.109375) (-5.133256149291992e-05, 1.111328125) (-5.221390914916992e-05, 1.11328125) (-5.307566452026367e-05, 1.115234375) (-5.391520309448242e-05, 1.1171875) (-5.473003005981445e-05, 1.119140625) (-5.551758956909179e-05, 1.12109375) (-5.627521896362304e-05, 1.123046875) (-5.7000160217285155e-05, 1.125) (-5.7689544677734376e-05, 1.126953125) (-5.834048461914062e-05, 1.12890625) (-5.895002746582031e-05, 1.130859375) (-5.951530838012695e-05, 1.1328125) (-6.003358078002929e-05, 1.134765625) (-6.0502330780029294e-05, 1.13671875) (-6.091931915283203e-05, 1.138671875) (-6.1282470703125e-05, 1.140625) (-6.158980560302734e-05, 1.142578125) (-6.183940887451171e-05, 1.14453125) (-6.20293960571289e-05, 1.146484375) (-6.21579818725586e-05, 1.1484375) (-6.222350311279297e-05, 1.150390625) (-6.222448348999024e-05, 1.15234375) (-6.215963745117187e-05, 1.154296875) (-6.20279541015625e-05, 1.15625) (-6.182876968383788e-05, 1.158203125) (-6.156170654296875e-05, 1.16015625) (-6.122675323486328e-05, 1.162109375) (-6.0824073791503905e-05, 1.1640625) (-6.0353839874267575e-05, 1.166015625) (-5.981608200073242e-05, 1.16796875) (-5.921061325073242e-05, 1.169921875) (-5.853699111938476e-05, 1.171875) (-5.779454040527344e-05, 1.173828125) (-5.698242568969726e-05, 1.17578125) (-5.609954452514648e-05, 1.177734375) (-5.5144775390625e-05, 1.1796875) (-5.4117111206054684e-05, 1.181640625) (-5.301582336425781e-05, 1.18359375) (-5.184062194824219e-05, 1.185546875) (-5.059153747558593e-05, 1.1875) (-4.926883316040039e-05, 1.189453125) (-4.787311935424804e-05, 1.19140625) (-4.6405319213867186e-05, 1.193359375) (-4.4866603851318354e-05, 1.1953125) (-4.325840377807617e-05, 1.197265625) (-4.1582336425781245e-05, 1.19921875) (-3.984009170532226e-05, 1.201171875) (-3.803371047973633e-05, 1.203125) (-3.616569519042969e-05, 1.205078125) (-3.423893356323242e-05, 1.20703125) (-3.2256828308105466e-05, 1.208984375) (-3.022308349609375e-05, 1.2109375) (-2.8141542434692382e-05, 1.212890625) (-2.6016101837158202e-05, 1.21484375) (-2.38507022857666e-05, 1.216796875) (-2.1649208068847656e-05, 1.21875) (-1.9415409088134766e-05, 1.220703125) (-1.7153030395507813e-05, 1.22265625) (-1.4865571022033691e-05, 1.224609375) (-1.2556506156921385e-05, 1.2265625) (-1.0229625701904297e-05, 1.228515625) (-7.889203548431396e-06, 1.23046875) (-5.540056705474853e-06, 1.232421875) (-3.187496423721313e-06, 1.234375) (-8.372028470039368e-07, 1.236328125) (1.5048503875732422e-06, 1.23828125) (3.83200979232788e-06, 1.240234375) (6.1371822357177735e-06, 1.2421875) (8.413186073303222e-06, 1.244140625) (1.0652740478515624e-05, 1.24609375) (1.2848697662353515e-05, 1.248046875) (1.4993773460388184e-05, 1.25) (1.708028793334961e-05, 1.251953125) (1.910050392150879e-05, 1.25390625) (2.104698371887207e-05, 1.255859375) (2.2912189483642576e-05, 1.2578125) (2.468821334838867e-05, 1.259765625) (2.6366622924804686e-05, 1.26171875) (2.7937870025634765e-05, 1.263671875) (2.9392208099365233e-05, 1.265625) (3.072040176391602e-05, 1.267578125) (3.1912914276123046e-05, 1.26953125) (3.296003341674804e-05, 1.271484375) (3.38524169921875e-05, 1.2734375) (3.4580722808837886e-05, 1.275390625) (3.513637161254883e-05, 1.27734375) (3.5513183593749995e-05, 1.279296875) (3.570583724975586e-05, 1.28125) (3.570876312255859e-05, 1.283203125) (3.551691055297851e-05, 1.28515625) (3.51240005493164e-05, 1.287109375) (3.4522903442382814e-05, 1.2890625) (3.370881652832031e-05, 1.291015625) (3.267866516113281e-05, 1.29296875) (3.142996597290039e-05, 1.294921875) (2.9962472915649412e-05, 1.296875) (2.8276638031005858e-05, 1.298828125) (2.6375308990478516e-05, 1.30078125) (2.426835823059082e-05, 1.302734375) (2.1967369079589843e-05, 1.3046875) (1.9482860565185546e-05, 1.306640625) (1.682200050354004e-05, 1.30859375) (1.3983170509338379e-05, 1.310546875) (1.0963143348693846e-05, 1.3125) (7.764123439788819e-06, 1.314453125) (4.390240669250488e-06, 1.31640625) (8.484880328178405e-07, 1.318359375) (-2.846184730529785e-06, 1.3203125) (-6.6771373748779296e-06, 1.322265625) (-1.0619838714599609e-05, 1.32421875) (-1.4633014678955077e-05, 1.326171875) (-1.867302703857422e-05, 1.328125) (-2.2694437026977537e-05, 1.330078125) (-2.665342330932617e-05, 1.33203125) (-3.051904487609863e-05, 1.333984375) (-3.425950622558594e-05, 1.3359375) (-3.783478546142578e-05, 1.337890625) (-4.119350433349609e-05, 1.33984375) (-4.42673454284668e-05, 1.341796875) (-4.6985435485839845e-05, 1.34375) (-4.929101943969726e-05, 1.345703125) (-5.113515472412109e-05, 1.34765625) (-5.2478519439697264e-05, 1.349609375) (-5.3311203002929684e-05, 1.3515625) (-5.363849258422851e-05, 1.353515625) (-5.350081634521484e-05, 1.35546875) (-5.2979171752929684e-05, 1.357421875) (-5.215035247802734e-05, 1.359375) (-5.1109329223632813e-05, 1.361328125) (-4.996608734130859e-05, 1.36328125) (-4.882756805419922e-05, 1.365234375) (-4.782499694824218e-05, 1.3671875) (-4.709865570068359e-05, 1.369140625) (-4.6775390624999996e-05, 1.37109375) (-4.704427337646484e-05, 1.373046875) (-4.8161388397216795e-05, 1.375) (-5.029003143310547e-05, 1.376953125) (-5.346915054321289e-05, 1.37890625) (-5.7539398193359375e-05, 1.380859375) (-6.207137298583984e-05, 1.3828125) (-6.660099029541015e-05, 1.384765625) (-7.071047973632812e-05, 1.38671875) (-7.38529815673828e-05, 1.388671875) (-7.53826904296875e-05, 1.390625) (-7.480851745605468e-05, 1.392578125) (-7.19752960205078e-05, 1.39453125) (-6.742155456542969e-05, 1.396484375) (-6.237788391113281e-05, 1.3984375) (-5.8180816650390624e-05, 1.400390625) (-5.5966178894042964e-05, 1.40234375) (-5.6661537170410155e-05, 1.404296875) (-6.108615112304687e-05, 1.40625) (-6.979621887207031e-05, 1.408203125) (-8.257135009765625e-05, 1.41015625) (-9.766659545898438e-05, 1.412109375) (-0.00011201734924316406, 1.4140625) (-0.00012198442077636718, 1.416015625) (-0.00012371703338623046, 1.41796875) (-0.00011377154541015624, 1.419921875) (-8.886018371582031e-05, 1.421875) (-4.5473232269287106e-05, 1.423828125) (1.778436279296875e-05, 1.42578125) (9.849253082275391e-05, 1.427734375) (0.0001927126007080078, 1.4296875) (0.00029525241088867185, 1.431640625) (0.00040282513427734374, 1.43359375) (0.0005177297973632813, 1.435546875) (0.0006399633789062499, 1.4375) (0.0007633720703125, 1.439453125) (0.00087548779296875, 1.44140625) (0.0009551925048828124, 1.443359375) (0.0009836497802734375, 1.4453125) (0.0009537940673828124, 1.447265625) (0.0008683809814453125, 1.44921875) (0.0007398645019531249, 1.451171875) (0.000585232666015625, 1.453125) (0.00041812911987304687, 1.455078125) (0.00025160641479492186, 1.45703125) (9.982752227783203e-05, 1.458984375) (-2.6512826919555663e-05, 1.4609375) (-0.00012065470886230468, 1.462890625) (-0.00018294073486328124, 1.46484375) (-0.00022313957214355467, 1.466796875) (-0.0002514146575927734, 1.46875) (-0.0002736756286621094, 1.470703125) (-0.00029087261962890625, 1.47265625) (-0.0002980675048828125, 1.474609375) (-0.0002922242431640625, 1.4765625) (-0.0002754507446289062, 1.478515625) (-0.00025259860229492187, 1.48046875) (-0.00023024479675292966, 1.482421875) (-0.00021240649414062498, 1.484375) (-0.00019960527038574217, 1.486328125) (-0.00019124856567382813, 1.48828125) (-0.00018660159301757813, 1.490234375) (-0.00018542456054687498, 1.4921875) (-0.00018722808837890625, 1.494140625) (-0.00019063287353515625, 1.49609375) (-0.00019368856811523437, 1.498046875) (-0.00019473992919921874, 1.5) (-0.00019317517089843748, 1.501953125) (-0.00018914630126953125, 1.50390625) (-0.00018280078125, 1.505859375) (-0.0001740165557861328, 1.5078125) (-0.00016293511962890624, 1.509765625) (-0.00015013658142089842, 1.51171875) (-0.00013671688842773437, 1.513671875) (-0.0001240120391845703, 1.515625) (-0.0001128027114868164, 1.517578125) (-0.00010333834075927734, 1.51953125) (-9.574945068359375e-05, 1.521484375) (-9.01754150390625e-05, 1.5234375) (-8.66622543334961e-05, 1.525390625) (-8.513043212890625e-05, 1.52734375) (-8.523132324218749e-05, 1.529296875) (-8.634254455566406e-05, 1.53125) (-8.801433563232422e-05, 1.533203125) (-9.000387573242187e-05, 1.53515625) (-9.211791229248046e-05, 1.537109375) (-9.423637390136718e-05, 1.5390625) (-9.624980163574218e-05, 1.541015625) (-9.801984405517578e-05, 1.54296875) (-9.946456909179688e-05, 1.544921875) (-0.00010057597351074219, 1.546875) (-0.00010128950500488281, 1.548828125) (-0.00010151408386230468, 1.55078125) (-0.00010119524383544921, 1.552734375) (-0.00010027446746826171, 1.5546875) (-9.874211120605468e-05, 1.556640625) (-9.664371490478515e-05, 1.55859375) (-9.402423095703124e-05, 1.560546875) (-9.094744873046874e-05, 1.5625) (-8.750331115722656e-05, 1.564453125) (-8.377751922607421e-05, 1.56640625) (-7.98545913696289e-05, 1.568359375) (-7.581729125976562e-05, 1.5703125) (-7.171623992919922e-05, 1.572265625) (-6.75896987915039e-05, 1.57421875) (-6.349108123779296e-05, 1.576171875) (-5.947439575195312e-05, 1.578125) (-5.561123657226562e-05, 1.580078125) (-5.198385238647461e-05, 1.58203125) (-4.8641883850097654e-05, 1.583984375) (-4.561466598510742e-05, 1.5859375) (-4.292335891723633e-05, 1.587890625) (-4.05716438293457e-05, 1.58984375) (-3.855767822265625e-05, 1.591796875) (-3.687288284301758e-05, 1.59375) (-3.548791122436523e-05, 1.595703125) (-3.4365386962890625e-05, 1.59765625) (-3.347489166259766e-05, 1.599609375) (-3.2788883209228516e-05, 1.6015625) (-3.228859710693359e-05, 1.603515625) (-3.196123886108398e-05, 1.60546875) (-3.178323364257812e-05, 1.607421875) (-3.1725135803222656e-05, 1.609375) (-3.175197982788086e-05, 1.611328125) (-3.182127380371094e-05, 1.61328125) (-3.189967346191406e-05, 1.615234375) (-3.19616527557373e-05, 1.6171875) (-3.198125076293945e-05, 1.619140625) (-3.193666458129883e-05, 1.62109375) (-3.1809309005737305e-05, 1.623046875) (-3.1582637786865235e-05, 1.625) (-3.124870681762695e-05, 1.626953125) (-3.0805747985839845e-05, 1.62890625) (-3.0247833251953124e-05, 1.630859375) (-2.9566703796386717e-05, 1.6328125) (-2.8753295898437497e-05, 1.634765625) (-2.7796430587768555e-05, 1.63671875) (-2.6688564300537107e-05, 1.638671875) (-2.5425052642822266e-05, 1.640625) (-2.4001176834106443e-05, 1.642578125) (-2.2413938522338865e-05, 1.64453125) (-2.0660743713378905e-05, 1.646484375) (-1.8738887786865235e-05, 1.6484375) (-1.6647201538085938e-05, 1.650390625) (-1.4385494232177733e-05, 1.65234375) (-1.1953280448913574e-05, 1.654296875) (-9.350225448608397e-06, 1.65625) (-6.575620651245117e-06, 1.658203125) (-3.6280398368835446e-06, 1.66015625) (-5.078667402267456e-07, 1.662109375) (2.7827243804931637e-06, 1.6640625) (6.240747451782226e-06, 1.666015625) (9.861997604370117e-06, 1.66796875) (1.3641695022583008e-05, 1.669921875) (1.7574670791625975e-05, 1.671875) (2.1654615402221678e-05, 1.673828125) (2.5874160766601563e-05, 1.67578125) (3.022591400146484e-05, 1.677734375) (3.470248413085937e-05, 1.6796875) (3.92962646484375e-05, 1.681640625) (4.39997329711914e-05, 1.68359375) (4.8805107116699216e-05, 1.685546875) (5.370433807373047e-05, 1.6875) (5.868944931030273e-05, 1.689453125) (6.375247192382812e-05, 1.69140625) (6.888516235351562e-05, 1.693359375) (7.407910919189453e-05, 1.6953125) (7.932579040527344e-05, 1.697265625) (8.461640930175781e-05, 1.69921875) (8.994184875488281e-05, 1.701171875) (9.529269409179688e-05, 1.703125) (0.00010065899658203125, 1.705078125) (0.00010603046417236328, 1.70703125) (0.00011139654541015625, 1.708984375) (0.00011674638366699219, 1.7109375) (0.00012206878662109374, 1.712890625) (0.000127352294921875, 1.71484375) (0.00013258505249023436, 1.716796875) (0.00013775479125976563, 1.71875) (0.00014284904479980467, 1.720703125) (0.00014785499572753905, 1.72265625) (0.00015275961303710936, 1.724609375) (0.00015754968261718749, 1.7265625) (0.00016221185302734374, 1.728515625) (0.00016673268127441406, 1.73046875) (0.0001710988311767578, 1.732421875) (0.00017529702758789062, 1.734375) (0.00017931433105468749, 1.736328125) (0.0001831379852294922, 1.73828125) (0.00018675535583496093, 1.740234375) (0.00019015374755859373, 1.7421875) (0.00019332070922851562, 1.744140625) (0.0001962438507080078, 1.74609375) (0.00019891099548339844, 1.748046875) (0.0002013101806640625, 1.75) (0.00020342974853515623, 1.751953125) (0.00020525834655761718, 1.75390625) (0.00020678520202636717, 1.755859375) (0.00020800027465820312, 1.7578125) (0.00020889437866210937, 1.759765625) (0.00020945916748046873, 1.76171875) (0.00020968742370605468, 1.763671875) (0.00020957289123535154, 1.765625) (0.0002091105499267578, 1.767578125) (0.00020829664611816406, 1.76953125) (0.000207128662109375, 1.771484375) (0.00020560557556152342, 1.7734375) (0.00020372760009765623, 1.775390625) (0.00020149652099609374, 1.77734375) (0.00019891552734375, 1.779296875) (0.00019598934936523437, 1.78125) (0.00019272428894042968, 1.783203125) (0.00018912808227539062, 1.78515625) (0.00018520980834960937, 1.787109375) (0.00018097994995117187, 1.7890625) (0.00017645016479492186, 1.791015625) (0.00017163336181640624, 1.79296875) (0.0001665434112548828, 1.794921875) (0.00016119525146484373, 1.796875) (0.00015560467529296873, 1.798828125) (0.00014978843688964844, 1.80078125) (0.00014376411437988282, 1.802734375) (0.00013755023193359373, 1.8046875) (0.00013116607666015625, 1.806640625) (0.00012463180541992186, 1.80859375) (0.00011796827697753906, 1.810546875) (0.00011119693756103515, 1.8125) (0.00010433976745605469, 1.814453125) (9.741912841796875e-05, 1.81640625) (9.045761108398438e-05, 1.818359375) (8.347787475585937e-05, 1.8203125) (7.650250244140625e-05, 1.822265625) (6.95537872314453e-05, 1.82421875) (6.265370941162109e-05, 1.826171875) (5.582376480102539e-05, 1.828125) (4.9084823608398434e-05, 1.830078125) (4.245701217651367e-05, 1.83203125) (3.59595832824707e-05, 1.833984375) (2.961075210571289e-05, 1.8359375) (2.342759132385254e-05, 1.837890625) (1.7425935745239256e-05, 1.83984375) (1.1620265960693358e-05, 1.841796875) (6.023637771606445e-06, 1.84375) (6.476355791091919e-07, 1.845703125) (-4.497641086578369e-06, 1.84765625) (-9.403549194335938e-06, 1.849609375) (-1.4062854766845703e-05, 1.8515625) (-1.8469690322875976e-05, 1.853515625) (-2.26195068359375e-05, 1.85546875) (-2.650904846191406e-05, 1.857421875) (-3.0136314392089843e-05, 1.859375) (-3.3500541687011714e-05, 1.861328125) (-3.6602191925048824e-05, 1.86328125) (-3.9442955017089844e-05, 1.865234375) (-4.202573776245117e-05, 1.8671875) (-4.435467147827148e-05, 1.869140625) (-4.6435058593749995e-05, 1.87109375) (-4.827333831787109e-05, 1.873046875) (-4.9877010345458984e-05, 1.875) (-5.1254550933837885e-05, 1.876953125) (-5.241534805297851e-05, 1.87890625) (-5.33696060180664e-05, 1.880859375) (-5.412825012207031e-05, 1.8828125) (-5.4702854156494136e-05, 1.884765625) (-5.5105506896972654e-05, 1.88671875) (-5.534877777099609e-05, 1.888671875) (-5.5445594787597655e-05, 1.890625) (-5.5409172058105466e-05, 1.892578125) (-5.5252872467041015e-05, 1.89453125) (-5.499006652832031e-05, 1.896484375) (-5.46340446472168e-05, 1.8984375) (-5.4197853088378906e-05, 1.900390625) (-5.3694190979003904e-05, 1.90234375) (-5.3135292053222655e-05, 1.904296875) (-5.253289031982422e-05, 1.90625) (-5.1898105621337885e-05, 1.908203125) (-5.1241477966308594e-05, 1.91015625) (-5.057289886474609e-05, 1.912109375) (-4.9901683807373046e-05, 1.9140625) (-4.923652648925781e-05, 1.916015625) (-4.85855598449707e-05, 1.91796875) (-4.795632171630859e-05, 1.919921875) (-4.735575866699219e-05, 1.921875) (-4.679022979736328e-05, 1.923828125) (-4.6265495300292966e-05, 1.92578125) (-4.578668594360351e-05, 1.927734375) (-4.535834121704101e-05, 1.9296875) (-4.4984386444091796e-05, 1.931640625) (-4.466814422607422e-05, 1.93359375) (-4.441236877441406e-05, 1.935546875) (-4.4219276428222656e-05, 1.9375) (-4.409053421020508e-05, 1.939453125) (-4.402729797363281e-05, 1.94140625) (-4.403020858764648e-05, 1.943359375) (-4.4099411010742184e-05, 1.9453125) (-4.423453903198242e-05, 1.947265625) (-4.443473052978515e-05, 1.94921875) (-4.4698604583740233e-05, 1.951171875) (-4.5024295806884766e-05, 1.953125) (-4.5409488677978513e-05, 1.955078125) (-4.585145568847656e-05, 1.95703125) (-4.634710693359375e-05, 1.958984375) (-4.689308166503906e-05, 1.9609375) (-4.748579406738281e-05, 1.962890625) (-4.8121509552001954e-05, 1.96484375) (-4.879641342163086e-05, 1.966796875) (-4.9506641387939454e-05, 1.96875) (-5.024831390380859e-05, 1.970703125) (-5.1017578125e-05, 1.97265625) (-5.181057739257812e-05, 1.974609375) (-5.262348937988281e-05, 1.9765625) (-5.345252227783203e-05, 1.978515625) (-5.42939453125e-05, 1.98046875) (-5.514407730102539e-05, 1.982421875) (-5.5999336242675776e-05, 1.984375) (-5.6856204986572264e-05, 1.986328125) (-5.771127319335937e-05, 1.98828125) (-5.856123352050781e-05, 1.990234375) (-5.940287399291992e-05, 1.9921875) (-6.023305511474609e-05, 1.994140625) (-6.10487060546875e-05, 1.99609375) (-6.184677124023437e-05, 1.998046875) (-6.26242446899414e-05, 2.0) (-6.337817382812499e-05, 2.001953125) (-6.410566711425781e-05, 2.00390625) (-6.480394744873047e-05, 2.005859375) (-6.54703369140625e-05, 2.0078125) (-6.610234069824219e-05, 2.009765625) (-6.669773864746093e-05, 2.01171875) (-6.725452423095703e-05, 2.013671875) (-6.777106475830078e-05, 2.015625) (-6.824604797363281e-05, 2.017578125) (-6.867850494384765e-05, 2.01953125) (-6.906780242919921e-05, 2.021484375) (-6.94136734008789e-05, 2.0234375) (-6.971618652343749e-05, 2.025390625) (-6.997571563720703e-05, 2.02734375) (-7.019293212890624e-05, 2.029296875) (-7.036879730224609e-05, 2.03125) (-7.05044937133789e-05, 2.033203125) (-7.06014404296875e-05, 2.03515625) (-7.066131591796875e-05, 2.037109375) (-7.068594360351563e-05, 2.0390625) (-7.067738342285156e-05, 2.041015625) (-7.063774108886719e-05, 2.04296875) (-7.056928253173827e-05, 2.044921875) (-7.047428131103515e-05, 2.046875) (-7.03550796508789e-05, 2.048828125) (-7.021407318115234e-05, 2.05078125) (-7.00536880493164e-05, 2.052734375) (-6.987632751464844e-05, 2.0546875) (-6.968449401855468e-05, 2.056640625) (-6.948070526123047e-05, 2.05859375) (-6.926762390136719e-05, 2.060546875) (-6.904798889160156e-05, 2.0625) (-6.882464599609375e-05, 2.064453125) (-6.860050964355468e-05, 2.06640625) (-6.83785171508789e-05, 2.068359375) (-6.816163635253906e-05, 2.0703125) (-6.795279693603515e-05, 2.072265625) (-6.775485229492187e-05, 2.07421875) (-6.757048797607421e-05, 2.076171875) (-6.740219116210937e-05, 2.078125) (-6.725216674804687e-05, 2.080078125) (-6.712232971191406e-05, 2.08203125) (-6.701432037353515e-05, 2.083984375) (-6.692941284179688e-05, 2.0859375) (-6.68685073852539e-05, 2.087890625) (-6.683217620849609e-05, 2.08984375) (-6.682052612304688e-05, 2.091796875) (-6.683338928222656e-05, 2.09375) (-6.687021636962891e-05, 2.095703125) (-6.693016052246094e-05, 2.09765625) (-6.70120391845703e-05, 2.099609375) (-6.711439514160156e-05, 2.1015625) (-6.723548889160156e-05, 2.103515625) (-6.737340545654297e-05, 2.10546875) (-6.752612304687499e-05, 2.107421875) (-6.769152832031249e-05, 2.109375) (-6.7867431640625e-05, 2.111328125) (-6.805158996582031e-05, 2.11328125) (-6.824179077148437e-05, 2.115234375) (-6.8435791015625e-05, 2.1171875) (-6.863145446777343e-05, 2.119140625) (-6.882660675048828e-05, 2.12109375) (-6.901905822753905e-05, 2.123046875) (-6.920655822753906e-05, 2.125) (-6.938677978515625e-05, 2.126953125) (-6.95573959350586e-05, 2.12890625) (-6.971610260009766e-05, 2.130859375) (-6.98605499267578e-05, 2.1328125) (-6.99884033203125e-05, 2.134765625) (-7.0097412109375e-05, 2.13671875) (-7.018544769287109e-05, 2.138671875) (-7.025056457519531e-05, 2.140625) (-7.029109954833984e-05, 2.142578125) (-7.03056640625e-05, 2.14453125) (-7.029315185546875e-05, 2.146484375) (-7.025273895263672e-05, 2.1484375) (-7.018397521972656e-05, 2.150390625) (-7.008681488037109e-05, 2.15234375) (-6.996157073974609e-05, 2.154296875) (-6.980894470214844e-05, 2.15625) (-6.963000488281249e-05, 2.158203125) (-6.942613220214843e-05, 2.16015625) (-6.919911193847655e-05, 2.162109375) (-6.895108795166015e-05, 2.1640625) (-6.868457031249999e-05, 2.166015625) (-6.840233612060547e-05, 2.16796875) (-6.810733795166015e-05, 2.169921875) (-6.780265045166016e-05, 2.171875) (-6.749144744873046e-05, 2.173828125) (-6.717694854736328e-05, 2.17578125) (-6.686239624023437e-05, 2.177734375) (-6.65509033203125e-05, 2.1796875) (-6.624545288085937e-05, 2.181640625) (-6.594886016845702e-05, 2.18359375) (-6.566388702392578e-05, 2.185546875) (-6.539321136474609e-05, 2.1875) (-6.513945007324219e-05, 2.189453125) (-6.490509796142579e-05, 2.19140625) (-6.46925048828125e-05, 2.193359375) (-6.45038604736328e-05, 2.1953125) (-6.43411865234375e-05, 2.197265625) (-6.42063980102539e-05, 2.19921875) (-6.410107421875e-05, 2.201171875) (-6.402647399902344e-05, 2.203125) (-6.398341369628906e-05, 2.205078125) (-6.397227478027344e-05, 2.20703125) (-6.39930191040039e-05, 2.208984375) (-6.404522705078125e-05, 2.2109375) (-6.412802124023438e-05, 2.212890625) (-6.424005126953124e-05, 2.21484375) (-6.437945556640624e-05, 2.216796875) (-6.454385375976562e-05, 2.21875) (-6.473034667968749e-05, 2.220703125) (-6.4935546875e-05, 2.22265625) (-6.515550994873047e-05, 2.224609375) (-6.538568115234374e-05, 2.2265625) (-6.562083435058593e-05, 2.228515625) (-6.585518646240233e-05, 2.23046875) (-6.60824966430664e-05, 2.232421875) (-6.629618835449219e-05, 2.234375) (-6.64893798828125e-05, 2.236328125) (-6.665487670898437e-05, 2.23828125) (-6.678536224365234e-05, 2.240234375) (-6.68734130859375e-05, 2.2421875) (-6.691168975830078e-05, 2.244140625) (-6.689302825927734e-05, 2.24609375) (-6.681024169921875e-05, 2.248046875) (-6.665615844726562e-05, 2.25) (-6.642367553710938e-05, 2.251953125) (-6.61058349609375e-05, 2.25390625) (-6.569582366943359e-05, 2.255859375) (-6.518710327148437e-05, 2.2578125) (-6.457331848144531e-05, 2.259765625) (-6.38482208251953e-05, 2.26171875) (-6.300606536865234e-05, 2.263671875) (-6.204156875610352e-05, 2.265625) (-6.095001220703125e-05, 2.267578125) (-5.972736358642578e-05, 2.26953125) (-5.837014770507812e-05, 2.271484375) (-5.68753662109375e-05, 2.2734375) (-5.524063873291016e-05, 2.275390625) (-5.34642333984375e-05, 2.27734375) (-5.1545032501220704e-05, 2.279296875) (-4.948276138305664e-05, 2.28125) (-4.727786254882812e-05, 2.283203125) (-4.4931461334228517e-05, 2.28515625) (-4.2445613861083985e-05, 2.287109375) (-3.982335662841797e-05, 2.2890625) (-3.706885528564453e-05, 2.291015625) (-3.418747711181641e-05, 2.29296875) (-3.118547058105469e-05, 2.294921875) (-2.8069843292236326e-05, 2.296875) (-2.48485107421875e-05, 2.298828125) (-2.153025245666504e-05, 2.30078125) (-1.8124559402465818e-05, 2.302734375) (-1.4641651153564453e-05, 2.3046875) (-1.1092191696166992e-05, 2.306640625) (-7.4871382713317865e-06, 2.30859375) (-3.8381590843200685e-06, 2.310546875) (-1.5767645835876465e-07, 2.3125) (3.5413894653320313e-06, 2.314453125) (7.245711803436279e-06, 2.31640625) (1.0941343307495117e-05, 2.318359375) (1.4614006042480468e-05, 2.3203125) (1.8248825073242186e-05, 2.322265625) (2.1829833984375e-05, 2.32421875) (2.5340839385986327e-05, 2.326171875) (2.8765506744384766e-05, 2.328125) (3.2086906433105465e-05, 2.330078125) (3.528802490234375e-05, 2.33203125) (3.835206985473633e-05, 2.333984375) (4.126205825805664e-05, 2.3359375) (4.400173950195312e-05, 2.337890625) (4.655630493164062e-05, 2.33984375) (4.89111213684082e-05, 2.341796875) (5.1052700042724606e-05, 2.34375) (5.296897888183593e-05, 2.345703125) (5.464788818359375e-05, 2.34765625) (5.607847213745117e-05, 2.349609375) (5.725077056884765e-05, 2.3515625) (5.815462493896484e-05, 2.353515625) (5.8781520843505856e-05, 2.35546875) (5.912520980834961e-05, 2.357421875) (5.918055725097656e-05, 2.359375) (5.894593811035156e-05, 2.361328125) (5.842432785034179e-05, 2.36328125) (5.761922454833984e-05, 2.365234375) (5.653617477416992e-05, 2.3671875) (5.5181243896484374e-05, 2.369140625) (5.3556320190429685e-05, 2.37109375) (5.1665668487548825e-05, 2.373046875) (4.951554107666016e-05, 2.375) (4.710973358154297e-05, 2.376953125) (4.445500564575195e-05, 2.37890625) (4.156276702880859e-05, 2.380859375) (3.844950103759765e-05, 2.3828125) (3.514521789550781e-05, 2.384765625) (3.1691778182983396e-05, 2.38671875) (2.8131750106811523e-05, 2.388671875) (2.4511289596557617e-05, 2.390625) (2.087688064575195e-05, 2.392578125) (1.7268550872802735e-05, 2.39453125) (1.3731256484985351e-05, 2.396484375) (1.0311717987060546e-05, 2.3984375) (7.0549869537353514e-06, 2.400390625) (4.0151133537292475e-06, 2.40234375) (1.2433425188064574e-06, 2.404296875) (-1.2144668102264404e-06, 2.40625) (-3.30689001083374e-06, 2.408203125) (-4.987486839294433e-06, 2.41015625) (-6.22359561920166e-06, 2.412109375) (-7.005703926086425e-06, 2.4140625) (-7.372598171234131e-06, 2.416015625) (-7.404781341552734e-06, 2.41796875) (-7.1929893493652345e-06, 2.419921875) (-6.8264498710632324e-06, 2.421875) (-6.382786750793457e-06, 2.423828125) (-5.941168308258056e-06, 2.42578125) (-5.619747638702393e-06, 2.427734375) (-5.562309265136719e-06, 2.4296875) (-5.899137496948242e-06, 2.431640625) (-6.74114179611206e-06, 2.43359375) (-8.160107612609863e-06, 2.435546875) (-1.0261111259460448e-05, 2.4375) (-1.3247377395629882e-05, 2.439453125) (-1.7267024993896485e-05, 2.44140625) (-2.2301788330078126e-05, 2.443359375) (-2.807331085205078e-05, 2.4453125) (-3.405719757080078e-05, 2.447265625) (-3.971931457519531e-05, 2.44921875) (-4.462117004394531e-05, 2.451171875) (-4.825683975219726e-05, 2.453125) (-4.99550552368164e-05, 2.455078125) (-4.9170288085937496e-05, 2.45703125) (-4.571349334716797e-05, 2.458984375) (-4.014715576171875e-05, 2.4609375) (-3.36536750793457e-05, 2.462890625) (-2.7216762542724607e-05, 2.46484375) (-2.1882564544677734e-05, 2.466796875) (-1.8848812103271484e-05, 2.46875) (-1.8954433441162108e-05, 2.470703125) (-2.298618125915527e-05, 2.47265625) (-2.9851562499999998e-05, 2.474609375) (-3.5340885162353513e-05, 2.4765625) (-3.6671176910400387e-05, 2.478515625) (-3.258028411865234e-05, 2.48046875) (-2.3046583175659177e-05, 2.482421875) (-1.1343018531799316e-05, 2.484375) (6.114080429077148e-06, 2.486328125) (3.95360107421875e-05, 2.48828125) (9.640104675292968e-05, 2.490234375) (0.0001831633605957031, 2.4921875) (0.00029599468994140625, 2.494140625) (0.0004197793273925781, 2.49609375) (0.0005450679931640625, 2.498046875) (0.000666509521484375, 2.5) (0.00078001708984375, 2.501953125) (0.0008853701171875, 2.50390625) (0.000972151123046875, 2.505859375) (0.0010210643310546875, 2.5078125) (0.0010203032836914063, 2.509765625) (0.0009636608276367187, 2.51171875) (0.0008557172851562499, 2.513671875) (0.0007149638061523438, 2.515625) (0.0005570065307617187, 2.517578125) (0.00039634808349609375, 2.51953125) (0.00024867506408691407, 2.521484375) (0.00012120074462890624, 2.5234375) (1.9114057540893552e-05, 2.525390625) (-5.649537658691406e-05, 2.52734375) (-0.00011420181274414062, 2.529296875) (-0.00016090065002441405, 2.53125) (-0.00019989335632324218, 2.533203125) (-0.00023169647216796874, 2.53515625) (-0.00025054132080078124, 2.537109375) (-0.00025220693969726563, 2.5390625) (-0.00023823348999023436, 2.541015625) (-0.00021259750366210936, 2.54296875) (-0.00018131614685058594, 2.544921875) (-0.00014953759765625, 2.546875) (-0.00011930953979492187, 2.548828125) (-9.161427307128906e-05, 2.55078125) (-6.780782318115234e-05, 2.552734375) (-4.9364223480224605e-05, 2.5546875) (-3.692511749267578e-05, 2.556640625) (-3.037104225158691e-05, 2.55859375) (-2.8711107254028318e-05, 2.560546875) (-3.0205286026000976e-05, 2.5625) (-3.371749114990234e-05, 2.564453125) (-3.8287590026855466e-05, 2.56640625) (-4.235295104980469e-05, 2.568359375) (-4.463029479980468e-05, 2.5703125) (-4.444278335571289e-05, 2.572265625) (-4.1477722167968745e-05, 2.57421875) (-3.6150638580322265e-05, 2.576171875) (-2.9402284622192382e-05, 2.578125) (-2.1936153411865234e-05, 2.580078125) (-1.4556063652038573e-05, 2.58203125) (-8.373686790466307e-06, 2.583984375) (-4.135162830352783e-06, 2.5859375) (-2.2327158451080323e-06, 2.587890625) (-2.8426523208618164e-06, 2.58984375) (-5.724394798278808e-06, 2.591796875) (-1.0421480178833008e-05, 2.59375) (-1.6512191772460935e-05, 2.595703125) (-2.3437618255615234e-05, 2.59765625) (-3.0510503768920897e-05, 2.599609375) (-3.724671936035156e-05, 2.6015625) (-4.3338439941406246e-05, 2.603515625) (-4.857399368286133e-05, 2.60546875) (-5.288655090332031e-05, 2.607421875) (-5.623997497558594e-05, 2.609375) (-5.85815200805664e-05, 2.611328125) (-5.992895126342773e-05, 2.61328125) (-6.036084747314453e-05, 2.615234375) (-5.993373870849609e-05, 2.6171875) (-5.869899749755859e-05, 2.619140625) (-5.671459197998046e-05, 2.62109375) (-5.402680206298828e-05, 2.623046875) (-5.0718856811523435e-05, 2.625) (-4.692019653320312e-05, 2.626953125) (-4.2765968322753904e-05, 2.62890625) (-3.839743041992187e-05, 2.630859375) (-3.395072174072265e-05, 2.6328125) (-2.952215003967285e-05, 2.634765625) (-2.5189588546752928e-05, 2.63671875) (-2.1029132843017577e-05, 2.638671875) (-1.709225273132324e-05, 2.640625) (-1.3413555145263672e-05, 2.642578125) (-1.0016201019287108e-05, 2.64453125) (-6.900496959686279e-06, 2.646484375) (-4.058849811553955e-06, 2.6484375) (-1.4887640476226806e-06, 2.650390625) (8.204290866851806e-07, 2.65234375) (2.887195110321045e-06, 2.654296875) (4.731245517730713e-06, 2.65625) (6.384567260742187e-06, 2.658203125) (7.88493537902832e-06, 2.66015625) (9.270788192749023e-06, 2.662109375) (1.0583978652954101e-05, 2.6640625) (1.1855441093444824e-05, 2.666015625) (1.3105484008789063e-05, 2.66796875) (1.4351509094238281e-05, 2.669921875) (1.560476493835449e-05, 2.671875) (1.687197685241699e-05, 2.673828125) (1.8158172607421874e-05, 2.67578125) (1.9462202072143555e-05, 2.677734375) (2.0778850555419922e-05, 2.6796875) (2.210803985595703e-05, 2.681640625) (2.345155906677246e-05, 2.68359375) (2.4811122894287107e-05, 2.685546875) (2.6191219329833982e-05, 2.6875) (2.7593894958496094e-05, 2.689453125) (2.901924705505371e-05, 2.69140625) (3.0468143463134764e-05, 2.693359375) (3.1940353393554684e-05, 2.6953125) (3.3436134338378905e-05, 2.697265625) (3.4957611083984376e-05, 2.69921875) (3.650727844238281e-05, 2.701171875) (3.8087463378906246e-05, 2.703125) (3.9701305389404294e-05, 2.705078125) (4.135206985473633e-05, 2.70703125) (4.304366302490234e-05, 2.708984375) (4.4781253814697264e-05, 2.7109375) (4.6568717956542964e-05, 2.712890625) (4.840840911865234e-05, 2.71484375) (5.030207061767578e-05, 2.716796875) (5.225081634521484e-05, 2.71875) (5.4255912780761716e-05, 2.720703125) (5.6318965911865234e-05, 2.72265625) (5.8441253662109375e-05, 2.724609375) (6.062361145019531e-05, 2.7265625) (6.28674087524414e-05, 2.728515625) (6.517448425292969e-05, 2.73046875) (6.754708099365235e-05, 2.732421875) (6.998774719238281e-05, 2.734375) (7.249888610839843e-05, 2.736328125) (7.508258056640625e-05, 2.73828125) (7.77406997680664e-05, 2.740234375) (8.0474853515625e-05, 2.7421875) (8.328611755371094e-05, 2.744140625) (8.61751251220703e-05, 2.74609375) (8.914205932617187e-05, 2.748046875) (9.218640899658203e-05, 2.75) (9.530708312988281e-05, 2.751953125) (9.850259399414062e-05, 2.75390625) (0.00010177094268798828, 2.755859375) (0.00010510980224609375, 2.7578125) (0.00010851664733886718, 2.759765625) (0.0001119884262084961, 2.76171875) (0.0001155215835571289, 2.763671875) (0.0001191122589111328, 2.765625) (0.00012275616455078125, 2.767578125) (0.00012644852447509766, 2.76953125) (0.00013018417358398436, 2.771484375) (0.000133957275390625, 2.7734375) (0.00013776138305664063, 2.775390625) (0.0001415895080566406, 2.77734375) (0.00014543406677246094, 2.779296875) (0.0001492867736816406, 2.78125) (0.0001531387939453125, 2.783203125) (0.00015698057556152344, 2.78515625) (0.00016080191040039062, 2.787109375) (0.0001645919952392578, 2.7890625) (0.00016833929443359373, 2.791015625) (0.00017203146362304686, 2.79296875) (0.0001756555480957031, 2.794921875) (0.00017919805908203125, 2.796875) (0.0001826449737548828, 2.798828125) (0.00018598205566406248, 2.80078125) (0.0001891947021484375, 2.802734375) (0.00019226828002929687, 2.8046875) (0.00019518840026855469, 2.806640625) (0.00019794085693359374, 2.80859375) (0.00020051190185546873, 2.810546875) (0.00020288818359374998, 2.8125) (0.00020505690002441406, 2.814453125) (0.00020700570678710938, 2.81640625) (0.00020872290039062499, 2.818359375) (0.00021019732666015625, 2.8203125) (0.00021141845703124998, 2.822265625) (0.00021237631225585937, 2.82421875) (0.00021306163024902342, 2.826171875) (0.00021346591186523437, 2.828125) (0.00021358142089843748, 2.830078125) (0.00021340132141113281, 2.83203125) (0.00021291979980468748, 2.833984375) (0.00021213201904296875, 2.8359375) (0.0002110341339111328, 2.837890625) (0.0002096234436035156, 2.83984375) (0.00020789836120605468, 2.841796875) (0.0002058584747314453, 2.84375) (0.00020350456237792967, 2.845703125) (0.00020083850097656248, 2.84765625) (0.0001978634338378906, 2.849609375) (0.00019458374023437498, 2.8515625) (0.000191005126953125, 2.853515625) (0.00018713473510742186, 2.85546875) (0.00018298092651367187, 2.857421875) (0.00017855340576171874, 2.859375) (0.0001738631896972656, 2.861328125) (0.00016892237854003906, 2.86328125) (0.0001637442932128906, 2.865234375) (0.0001583431396484375, 2.8671875) (0.0001527340087890625, 2.869140625) (0.00014693252563476562, 2.87109375) (0.00014095501708984374, 2.873046875) (0.00013481826782226562, 2.875) (0.00012853948974609375, 2.876953125) (0.00012213639831542967, 2.87890625) (0.00011562692260742186, 2.880859375) (0.00010902931976318359, 2.8828125) (0.0001023620376586914, 2.884765625) (9.564374542236327e-05, 2.88671875) (8.889320373535156e-05, 2.888671875) (8.212918853759766e-05, 2.890625) (7.537028503417968e-05, 2.892578125) (6.863485717773437e-05, 2.89453125) (6.194092559814452e-05, 2.896484375) (5.530619049072265e-05, 2.8984375) (4.8747901916503903e-05, 2.900390625) (4.228286743164062e-05, 2.90234375) (3.5927326202392575e-05, 2.904296875) (2.969691276550293e-05, 2.90625) (2.3606613159179687e-05, 2.908203125) (1.7670726776123047e-05, 2.91015625) (1.190277099609375e-05, 2.912109375) (6.315348625183105e-06, 2.9140625) (9.200130701065063e-07, 2.916015625) (-4.272838115692139e-06, 2.91796875) (-9.254005432128907e-06, 2.919921875) (-1.4015516281127928e-05, 2.921875) (-1.8550638198852537e-05, 2.923828125) (-2.2853889465332032e-05, 2.92578125) (-2.69210262298584e-05, 2.927734375) (-3.0748991012573244e-05, 2.9296875) (-3.4335826873779295e-05, 2.931640625) (-3.768060302734375e-05, 2.93359375) (-4.078336334228515e-05, 2.935546875) (-4.3645126342773435e-05, 2.9375) (-4.626789855957031e-05, 2.939453125) (-4.865467071533203e-05, 2.94140625) (-5.080932998657226e-05, 2.943359375) (-5.273664093017578e-05, 2.9453125) (-5.4442176818847655e-05, 2.947265625) (-5.5932304382324215e-05, 2.94921875) (-5.7214118957519526e-05, 2.951171875) (-5.829535675048828e-05, 2.953125) (-5.918430709838867e-05, 2.955078125) (-5.988969421386719e-05, 2.95703125) (-6.042067718505859e-05, 2.958984375) (-6.078685760498046e-05, 2.9609375) (-6.099825286865234e-05, 2.962890625) (-6.106533813476563e-05, 2.96484375) (-6.0998954772949214e-05, 2.966796875) (-6.081027221679687e-05, 2.96875) (-6.0510734558105465e-05, 2.970703125) (-6.01120376586914e-05, 2.97265625) (-5.962599182128906e-05, 2.974609375) (-5.906444549560547e-05, 2.9765625) (-5.843910217285156e-05, 2.978515625) (-5.776136779785156e-05, 2.98046875) (-5.7042335510253905e-05, 2.982421875) (-5.6292675018310544e-05, 2.984375) (-5.552264022827148e-05, 2.986328125) (-5.474201965332031e-05, 2.98828125) (-5.396010208129882e-05, 2.990234375) (-5.31856460571289e-05, 2.9921875) (-5.242689514160156e-05, 2.994140625) (-5.169157028198242e-05, 2.99609375) (-5.098685836791992e-05, 2.998046875) (-5.031940078735351e-05, 3.0) (-4.969518661499023e-05, 3.001953125) (-4.9119544982910154e-05, 3.00390625) (-4.859716415405273e-05, 3.005859375) (-4.813211059570312e-05, 3.0078125) (-4.7727874755859374e-05, 3.009765625) (-4.738742446899414e-05, 3.01171875) (-4.711316680908203e-05, 3.013671875) (-4.6907028198242186e-05, 3.015625) (-4.6770492553710933e-05, 3.017578125) (-4.670459365844726e-05, 3.01953125) (-4.670993423461914e-05, 3.021484375) (-4.6786605834960936e-05, 3.0234375) (-4.6934181213378906e-05, 3.025390625) (-4.715156555175781e-05, 3.02734375) (-4.7437072753906246e-05, 3.029296875) (-4.7788425445556637e-05, 3.03125) (-4.820276641845703e-05, 3.033203125) (-4.867672348022461e-05, 3.03515625) (-4.920645904541015e-05, 3.037109375) (-4.9787746429443356e-05, 3.0390625) (-5.0416084289550776e-05, 3.041015625) (-5.108678436279297e-05, 3.04296875) (-5.179505157470703e-05, 3.044921875) (-5.2536022186279296e-05, 3.046875) (-5.330476379394531e-05, 3.048828125) (-5.409633636474609e-05, 3.05078125) (-5.490580368041992e-05, 3.052734375) (-5.5728340148925776e-05, 3.0546875) (-5.655926132202148e-05, 3.056640625) (-5.739407348632812e-05, 3.05859375) (-5.822851181030273e-05, 3.060546875) (-5.905863952636718e-05, 3.0625) (-5.98808479309082e-05, 3.064453125) (-6.0691978454589844e-05, 3.06640625) (-6.148926544189453e-05, 3.068359375) (-6.227037048339843e-05, 3.0703125) (-6.303327941894532e-05, 3.072265625) (-6.377632904052734e-05, 3.07421875) (-6.449813079833984e-05, 3.076171875) (-6.51976318359375e-05, 3.078125) (-6.587407684326172e-05, 3.080078125) (-6.652700805664062e-05, 3.08203125) (-6.715631866455078e-05, 3.083984375) (-6.776229858398437e-05, 3.0859375) (-6.834565734863281e-05, 3.087890625) (-6.890763854980469e-05, 3.08984375) (-6.944999694824219e-05, 3.091796875) (-6.997496795654297e-05, 3.09375) (-7.048527526855468e-05, 3.095703125) (-7.09840316772461e-05, 3.09765625) (-7.147471618652343e-05, 3.099609375) (-7.196115112304687e-05, 3.1015625) (-7.244741821289062e-05, 3.103515625) (-7.293780517578124e-05, 3.10546875) (-7.343672943115234e-05, 3.107421875) (-7.394876098632813e-05, 3.109375) (-7.447853851318359e-05, 3.111328125) (-7.503077697753906e-05, 3.11328125) (-7.56102066040039e-05, 3.115234375) (-7.622148132324218e-05, 3.1171875) (-7.686908721923827e-05, 3.119140625) (-7.755726623535156e-05, 3.12109375) (-7.82899169921875e-05, 3.123046875) (-7.907060241699219e-05, 3.125) (-7.990242004394531e-05, 3.126953125) (-8.078797912597656e-05, 3.12890625) (-8.172940063476563e-05, 3.130859375) (-8.272830963134766e-05, 3.1328125) (-8.378585815429688e-05, 3.134765625) (-8.490277099609375e-05, 3.13671875) (-8.607933044433593e-05, 3.138671875) (-8.731538391113281e-05, 3.140625) (-8.861032867431641e-05, 3.142578125) (-8.996304321289061e-05, 3.14453125) (-9.137194824218749e-05, 3.146484375) (-9.283489990234375e-05, 3.1484375) (-9.434929656982421e-05, 3.150390625) (-9.591191101074218e-05, 3.15234375) (-9.751903533935546e-05, 3.154296875) (-9.916647338867187e-05, 3.15625) (-0.00010084954833984374, 3.158203125) (-0.00010256326293945312, 3.16015625) (-0.00010430227661132813, 3.162109375) (-0.0001060609359741211, 3.1640625) (-0.00010783336639404296, 3.166015625) (-0.00010961343383789062, 3.16796875) (-0.00011139480590820313, 3.169921875) (-0.00011317105102539062, 3.171875) (-0.00011493556213378906, 3.173828125) (-0.00011668170166015625, 3.17578125) (-0.0001184028091430664, 3.177734375) (-0.00012009227752685546, 3.1796875) (-0.00012174367523193359, 3.181640625) (-0.0001233507843017578, 3.18359375) (-0.00012490775299072265, 3.185546875) (-0.00012640905761718749, 3.1875) (-0.000127849609375, 3.189453125) (-0.0001292247314453125, 3.19140625) (-0.00013053024291992187, 3.193359375) (-0.00013176242065429688, 3.1953125) (-0.00013291806030273437, 3.197265625) (-0.00013399444580078124, 3.19921875) (-0.00013498937988281248, 3.201171875) (-0.00013590115356445313, 3.203125) (-0.00013672869873046874, 3.205078125) (-0.00013747149658203123, 3.20703125) (-0.00013812965393066406, 3.208984375) (-0.00013870388793945312, 3.2109375) (-0.00013919546508789062, 3.212890625) (-0.00013960623168945312, 3.21484375) (-0.0001399385986328125, 3.216796875) (-0.00014019537353515625, 3.21875) (-0.00014037982177734376, 3.220703125) (-0.0001404954833984375, 3.22265625) (-0.0001405462646484375, 3.224609375) (-0.0001405363311767578, 3.2265625) (-0.0001404700012207031, 3.228515625) (-0.00014035191345214843, 3.23046875) (-0.0001401868438720703, 3.232421875) (-0.00013997970581054687, 3.234375) (-0.00013973548889160156, 3.236328125) (-0.00013945925903320313, 3.23828125) (-0.00013915599060058593, 3.240234375) (-0.00013883065795898436, 3.2421875) (-0.00013848809814453125, 3.244140625) (-0.0001381329803466797, 3.24609375) (-0.00013776963806152342, 3.248046875) (-0.00013740219116210937, 3.25) (-0.0001370344543457031, 3.251953125) (-0.00013666998291015625, 3.25390625) (-0.00013631198120117187, 3.255859375) (-0.0001359633026123047, 3.2578125) (-0.00013562638854980468, 3.259765625) (-0.00013530322265625, 3.26171875) (-0.00013499533081054687, 3.263671875) (-0.0001347036895751953, 3.265625) (-0.0001344288330078125, 3.267578125) (-0.0001341706085205078, 3.26953125) (-0.0001339283447265625, 3.271484375) (-0.00013370082092285156, 3.2734375) (-0.00013348617553710936, 3.275390625) (-0.0001332821044921875, 3.27734375) (-0.00013308590698242186, 3.279296875) (-0.00013289437866210936, 3.28125) (-0.00013270391845703123, 3.283203125) (-0.00013251065063476562, 3.28515625) (-0.00013231033325195312, 3.287109375) (-0.00013209848022460938, 3.2890625) (-0.00013187045288085936, 3.291015625) (-0.00013162142944335938, 3.29296875) (-0.00013134628295898438, 3.294921875) (-0.00013103997802734374, 3.296875) (-0.0001306972961425781, 3.298828125) (-0.00013031307983398438, 3.30078125) (-0.00012988236999511717, 3.302734375) (-0.00012940020751953124, 3.3046875) (-0.00012886169433593749, 3.306640625) (-0.00012826210021972656, 3.30859375) (-0.000127596923828125, 3.310546875) (-0.00012686187744140624, 3.3125) (-0.00012605288696289062, 3.314453125) (-0.00012516598510742188, 3.31640625) (-0.00012419720458984375, 3.318359375) (-0.00012314306640625, 3.3203125) (-0.00012200042724609374, 3.322265625) (-0.00012076658630371093, 3.32421875) (-0.0001194394073486328, 3.326171875) (-0.00011801715087890624, 3.328125) (-0.00011649858093261718, 3.330078125) (-0.00011488304138183594, 3.33203125) (-0.00011317055511474608, 3.333984375) (-0.0001113616943359375, 3.3359375) (-0.00010945769500732421, 3.337890625) (-0.0001074602813720703, 3.33984375) (-0.00010537160491943359, 3.341796875) (-0.0001031944808959961, 3.34375) (-0.00010093234252929687, 3.345703125) (-9.85892333984375e-05, 3.34765625) (-9.617000579833984e-05, 3.349609375) (-9.367990112304688e-05, 3.3515625) (-9.112452697753906e-05, 3.353515625) (-8.85101547241211e-05, 3.35546875) (-8.584369659423828e-05, 3.357421875) (-8.313247680664063e-05, 3.359375) (-8.038436889648437e-05, 3.361328125) (-7.760757446289062e-05, 3.36328125) (-7.481037902832031e-05, 3.365234375) (-7.200172424316406e-05, 3.3671875) (-6.919138336181641e-05, 3.369140625) (-6.638951110839843e-05, 3.37109375) (-6.360658645629882e-05, 3.373046875) (-6.085371398925781e-05, 3.375) (-5.814238357543945e-05, 3.376953125) (-5.548487854003906e-05, 3.37890625) (-5.28948974609375e-05, 3.380859375) (-5.0386444091796873e-05, 3.3828125) (-4.797362518310547e-05, 3.384765625) (-4.567121124267578e-05, 3.38671875) (-4.349428939819336e-05, 3.388671875) (-4.1457939147949214e-05, 3.390625) (-3.957760238647461e-05, 3.392578125) (-3.786800003051758e-05, 3.39453125) (-3.6342460632324214e-05, 3.396484375) (-3.5014450073242185e-05, 3.3984375) (-3.3896827697753905e-05, 3.400390625) (-3.300141906738281e-05, 3.40234375) (-3.234036636352539e-05, 3.404296875) (-3.1924716949462886e-05, 3.40625) (-3.1764606475830076e-05, 3.408203125) (-3.1870849609375e-05, 3.41015625) (-3.22528076171875e-05, 3.412109375) (-3.2917541503906246e-05, 3.4140625) (-3.387133407592773e-05, 3.416015625) (-3.511648941040039e-05, 3.41796875) (-3.6650398254394526e-05, 3.419921875) (-3.8470909118652344e-05, 3.421875) (-4.057394409179687e-05, 3.423828125) (-4.295498657226562e-05, 3.42578125) (-4.561414718627929e-05, 3.427734375) (-4.8547725677490234e-05, 3.4296875) (-5.1748458862304686e-05, 3.431640625) (-5.521179580688476e-05, 3.43359375) (-5.8930397033691406e-05, 3.435546875) (-6.28919219970703e-05, 3.4375) (-6.707975006103516e-05, 3.439453125) (-7.146304321289063e-05, 3.44140625) (-7.599848937988281e-05, 3.443359375) (-8.064498138427735e-05, 3.4453125) (-8.536007690429688e-05, 3.447265625) (-9.010296630859374e-05, 3.44921875) (-9.484034729003906e-05, 3.451171875) (-9.953099060058594e-05, 3.453125) (-0.00010413013458251952, 3.455078125) (-0.00010859375, 3.45703125) (-0.0001128675079345703, 3.458984375) (-0.00011690026855468749, 3.4609375) (-0.00012064588165283202, 3.462890625) (-0.0001240488052368164, 3.46484375) (-0.0001270559387207031, 3.466796875) (-0.000129629638671875, 3.46875) (-0.00013175289916992188, 3.470703125) (-0.0001334556427001953, 3.47265625) (-0.00013480908203125, 3.474609375) (-0.0001358882141113281, 3.4765625) (-0.00013675949096679686, 3.478515625) (-0.00013747161865234375, 3.48046875) (-0.00013807223510742188, 3.482421875) (-0.00013864891052246093, 3.484375) (-0.00013931729125976562, 3.486328125) (-0.00014019003295898436, 3.48828125) (-0.00014136160278320313, 3.490234375) (-0.00014287420654296874, 3.4921875) (-0.00014481568908691406, 3.494140625) (-0.00014739530944824218, 3.49609375) (-0.0001507724609375, 3.498046875) (-0.00015494955444335937, 3.5) (-0.00015967945861816406, 3.501953125) (-0.0001644291534423828, 3.50390625) (-0.00016866368103027343, 3.505859375) (-0.00017203091430664062, 3.5078125) (-0.0001740863037109375, 3.509765625) (-0.0001741864318847656, 3.51171875) (-0.0001718356018066406, 3.513671875) (-0.00016686145019531248, 3.515625) (-0.0001598373107910156, 3.517578125) (-0.0001520690460205078, 3.51953125) (-0.00014465777587890626, 3.521484375) (-0.0001385423583984375, 3.5234375) (-0.0001348852996826172, 3.525390625) (-0.00013484495544433594, 3.52734375) (-0.00013937483215332032, 3.529296875) (-0.00014713232421875, 3.53125) (-0.00015375576782226561, 3.533203125) (-0.00015504003906249999, 3.53515625) (-0.00014854928588867186, 3.537109375) (-0.0001367686004638672, 3.5390625) (-0.00012528079223632813, 3.541015625) (-0.00011373602294921875, 3.54296875) (-9.518179321289062e-05, 3.544921875) (-5.637063598632812e-05, 3.546875) (1.7051679611206053e-05, 3.548828125) (0.00012800352478027342, 3.55078125) (0.00026879302978515625, 3.552734375) (0.00042533322143554683, 3.5546875) (0.0005798092041015625, 3.556640625) (0.0007185389404296875, 3.55859375) (0.0008313259887695313, 3.560546875) (0.0009074725341796875, 3.5625) (0.00093977734375, 3.564453125) (0.0009254476928710938, 3.56640625) (0.0008651163330078125, 3.568359375) (0.0007652958984375, 3.5703125) (0.0006353709716796875, 3.572265625) (0.0004846989135742187, 3.57421875) (0.000326678955078125, 3.576171875) (0.00017774108886718749, 3.578125) (5.139849853515625e-05, 3.580078125) (-4.35843276977539e-05, 3.58203125) (-0.00010805502319335936, 3.583984375) (-0.00015316810607910155, 3.5859375) (-0.00018946789550781248, 3.587890625) (-0.00022228117370605468, 3.58984375) (-0.00025120562744140624, 3.591796875) (-0.0002698509216308594, 3.59375) (-0.00027414389038085934, 3.595703125) (-0.00026601116943359375, 3.59765625) (-0.0002502593841552734, 3.599609375) (-0.00023324838256835937, 3.6015625) (-0.00021945736694335937, 3.603515625) (-0.0002097948303222656, 3.60546875) (-0.0002036702880859375, 3.607421875) (-0.00020019461059570312, 3.609375) (-0.000198565185546875, 3.611328125) (-0.0001978634796142578, 3.61328125) (-0.0001970316925048828, 3.615234375) (-0.00019481597900390625, 3.6171875) (-0.00019001947021484374, 3.619140625) (-0.00018241052246093748, 3.62109375) (-0.0001723985595703125, 3.623046875) (-0.0001605697326660156, 3.625) (-0.00014775340270996093, 3.626953125) (-0.00013470672607421874, 3.62890625) (-0.00012203408050537109, 3.630859375) (-0.00011042871856689452, 3.6328125) (-0.00010051509857177734, 3.634765625) (-9.256044006347655e-05, 3.63671875) (-8.663030242919921e-05, 3.638671875) (-8.262454223632812e-05, 3.640625) (-8.027185058593749e-05, 3.642578125) (-7.934233093261718e-05, 3.64453125) (-7.961333465576172e-05, 3.646484375) (-8.081769561767577e-05, 3.6484375) (-8.270735931396485e-05, 3.650390625) (-8.50279541015625e-05, 3.65234375) (-8.75248565673828e-05, 3.654296875) (-8.995675659179687e-05, 3.65625) (-9.208390045166015e-05, 3.658203125) (-9.37277374267578e-05, 3.66015625) (-9.477722930908202e-05, 3.662109375) (-9.514663696289062e-05, 3.6640625) (-9.478456115722655e-05, 3.666015625) (-9.365133666992187e-05, 3.66796875) (-9.170124053955078e-05, 3.669921875) (-8.893943786621094e-05, 3.671875) (-8.541950988769532e-05, 3.673828125) (-8.11981964111328e-05, 3.67578125) (-7.635185241699219e-05, 3.677734375) (-7.095609283447266e-05, 3.6796875) (-6.507438659667968e-05, 3.681640625) (-5.8812858581542964e-05, 3.68359375) (-5.230514907836914e-05, 3.685546875) (-4.569325637817383e-05, 3.6875) (-3.913279342651367e-05, 3.689453125) (-3.273352813720703e-05, 3.69140625) (-2.6557289123535155e-05, 3.693359375) (-2.065866470336914e-05, 3.6953125) (-1.5076537132263183e-05, 3.697265625) (-9.842426300048828e-06, 3.69921875) (-4.991974353790283e-06, 3.701171875) (-5.324573516845703e-07, 3.703125) (3.555593490600586e-06, 3.705078125) (7.282930374145507e-06, 3.70703125) (1.0659855842590332e-05, 3.708984375) (1.3695892333984375e-05, 3.7109375) (1.6393625259399412e-05, 3.712890625) (1.8776977539062498e-05, 3.71484375) (2.088790512084961e-05, 3.716796875) (2.277059555053711e-05, 3.71875) (2.447456359863281e-05, 3.720703125) (2.603765296936035e-05, 3.72265625) (2.74830379486084e-05, 3.724609375) (2.883440017700195e-05, 3.7265625) (3.0113468170166014e-05, 3.728515625) (3.1337528228759766e-05, 3.73046875) (3.2523551940917965e-05, 3.732421875) (3.368051147460937e-05, 3.734375) (3.480906677246094e-05, 3.736328125) (3.5916679382324215e-05, 3.73828125) (3.701567459106445e-05, 3.740234375) (3.811922836303711e-05, 3.7421875) (3.924356842041016e-05, 3.744140625) (4.040016174316406e-05, 3.74609375) (4.159513092041016e-05, 3.748046875) (4.2835597991943356e-05, 3.75) (4.4128677368164063e-05, 3.751953125) (4.548112869262695e-05, 3.75390625) (4.690069580078125e-05, 3.755859375) (4.83939208984375e-05, 3.7578125) (4.9966117858886715e-05, 3.759765625) (5.1624191284179684e-05, 3.76171875) (5.337604141235351e-05, 3.763671875) (5.52298469543457e-05, 3.765625) (5.719435882568359e-05, 3.767578125) (5.927626419067383e-05, 3.76953125) (6.147999572753906e-05, 3.771484375) (6.380925750732422e-05, 3.7734375) (6.626657104492187e-05, 3.775390625) (6.885365295410155e-05, 3.77734375) (7.157176971435547e-05, 3.779296875) (7.442098999023437e-05, 3.78125) (7.740040588378906e-05, 3.783203125) (8.050922393798828e-05, 3.78515625) (8.374681091308593e-05, 3.787109375) (8.711233520507812e-05, 3.7890625) (9.060496520996094e-05, 3.791015625) (9.422344207763671e-05, 3.79296875) (9.796597290039062e-05, 3.794921875) (0.00010183062744140625, 3.796875) (0.00010581523895263672, 3.798828125) (0.00010991704559326171, 3.80078125) (0.0001141326904296875, 3.802734375) (0.00011845840454101562, 3.8046875) (0.00012288989257812499, 3.806640625) (0.00012742250061035157, 3.80859375) (0.00013205125427246094, 3.810546875) (0.0001367705383300781, 3.8125) (0.0001415740509033203, 3.814453125) (0.00014645518493652343, 3.81640625) (0.00015140676879882813, 3.818359375) (0.00015642103576660155, 3.8203125) (0.00016148960876464843, 3.822265625) (0.00016660314941406248, 3.82421875) (0.0001717513427734375, 3.826171875) (0.00017692330932617185, 3.828125) (0.00018210752868652342, 3.830078125) (0.00018729193115234375, 3.83203125) (0.00019246395874023437, 3.833984375) (0.00019761050415039062, 3.8359375) (0.00020271789550781248, 3.837890625) (0.00020777215576171874, 3.83984375) (0.00021275909423828124, 3.841796875) (0.00021766410827636718, 3.84375) (0.00022247233581542967, 3.845703125) (0.00022716839599609375, 3.84765625) (0.00023173626708984375, 3.849609375) (0.00023615972900390623, 3.8515625) (0.0002404221496582031, 3.853515625) (0.0002445068969726562, 3.85546875) (0.00024839723205566405, 3.857421875) (0.000252076416015625, 3.859375) (0.0002555277099609375, 3.861328125) (0.0002587347717285156, 3.86328125) (0.00026168170166015624, 3.865234375) (0.0002643531494140625, 3.8671875) (0.00026673446655273435, 3.869140625) (0.00026881161499023434, 3.87109375) (0.00027057141113281247, 3.873046875) (0.0002720015869140625, 3.875) (0.00027309100341796875, 3.876953125) (0.00027382989501953126, 3.87890625) (0.00027420974731445313, 3.880859375) (0.00027422348022460935, 3.8828125) (0.0002738655090332031, 3.884765625) (0.00027313198852539064, 3.88671875) (0.0002720206604003906, 3.888671875) (0.0002705310363769531, 3.890625) (0.0002686641845703125, 3.892578125) (0.00026642266845703126, 3.89453125) (0.0002638106689453125, 3.896484375) (0.0002608338012695312, 3.8984375) (0.0002574992065429687, 3.900390625) (0.0002538154144287109, 3.90234375) (0.0002497923583984375, 3.904296875) (0.00024544129943847656, 3.90625) (0.00024077482604980467, 3.908203125) (0.00023580686950683592, 3.91015625) (0.00023055271911621094, 3.912109375) (0.00022502886962890624, 3.9140625) (0.00021925296020507812, 3.916015625) (0.00021324371337890625, 3.91796875) (0.000207020751953125, 3.919921875) (0.00020060458374023438, 3.921875) (0.00019401646423339842, 3.923828125) (0.0001872782440185547, 3.92578125) (0.0001804122772216797, 3.927734375) (0.00017344122314453124, 3.9296875) (0.00016638795471191406, 3.931640625) (0.00015927545166015625, 3.93359375) (0.00015212664794921873, 3.935546875) (0.00014496429443359375, 3.9375) (0.0001378107147216797, 3.939453125) (0.00013068768310546875, 3.94140625) (0.00012361627197265623, 3.943359375) (0.00011661676025390624, 3.9453125) (0.00010970848083496093, 3.947265625) (0.00010290969848632812, 3.94921875) (9.623756408691405e-05, 3.951171875) (8.970805358886718e-05, 3.953125) (8.333596801757812e-05, 3.955078125) (7.713499450683593e-05, 3.95703125) (7.111766052246094e-05, 3.958984375) (6.529536437988281e-05, 3.9609375) (5.967832946777344e-05, 3.962890625) (5.4275611877441406e-05, 3.96484375) (4.909511184692382e-05, 3.966796875) (4.414358520507812e-05, 3.96875) (3.9426582336425776e-05, 3.970703125) (3.4948448181152345e-05, 3.97265625) (3.07122688293457e-05, 3.974609375) (2.6719898223876953e-05, 3.9765625) (2.297199249267578e-05, 3.978515625) (1.9468063354492185e-05, 3.98046875) (1.6206514358520508e-05, 3.982421875) (1.3184650421142578e-05, 3.984375) (1.0398736000061035e-05, 3.986328125) (7.844064712524413e-06, 3.98828125) (5.515035629272461e-06, 3.990234375) (3.4052264690399166e-06, 3.9921875) (1.5074602365493775e-06, 3.994140625) (-1.861395239830017e-07, 3.99609375) (-1.684058904647827e-06, 3.998046875) (-2.9952833652496338e-06, 4.0) (-4.1291761398315426e-06, 4.001953125) (-5.095352172851562e-06, 4.00390625) (-5.903582572937011e-06, 4.005859375) (-6.563712120056152e-06, 4.0078125) (-7.085579872131347e-06, 4.009765625) (-7.478932380676269e-06, 4.01171875) (-7.753376960754393e-06, 4.013671875) (-7.918351173400878e-06, 4.015625) (-7.983143329620362e-06, 4.017578125) (-7.956926345825195e-06, 4.01953125) (-7.848759651184081e-06, 4.021484375) (-7.667590141296387e-06, 4.0234375) (-7.422242164611816e-06, 4.025390625) (-7.1214070320129395e-06, 4.02734375) (-6.7736406326293944e-06, 4.029296875) (-6.387355804443359e-06, 4.03125) (-5.970769882202148e-06, 4.033203125) (-5.531858444213867e-06, 4.03515625) (-5.078310012817382e-06, 4.037109375) (-4.617497444152832e-06, 4.0390625) (-4.156471252441406e-06, 4.041015625) (-3.701961755752563e-06, 4.04296875) (-3.260364770889282e-06, 4.044921875) (-2.837726593017578e-06, 4.046875) (-2.43973970413208e-06, 4.048828125) (-2.071738004684448e-06, 4.05078125) (-1.7387027740478515e-06, 4.052734375) (-1.4452812671661375e-06, 4.0546875) (-1.1957851648330688e-06, 4.056640625) (-9.941851496696473e-07, 4.05859375) (-8.441241383552551e-07, 4.060546875) (-7.489362955093384e-07, 4.0625) (-7.116854786872864e-07, 4.064453125) (-7.352199554443359e-07, 4.06640625) (-8.222073316574096e-07, 4.068359375) (-9.751545190811158e-07, 4.0703125) (-1.1964313983917236e-06, 4.072265625) (-1.4882797002792357e-06, 4.07421875) (-1.8528087139129637e-06, 4.076171875) (-2.2919816970825195e-06, 4.078125) (-2.807568311691284e-06, 4.080078125) (-3.4010798931121825e-06, 4.08203125) (-4.073720932006836e-06, 4.083984375) (-4.8263397216796875e-06, 4.0859375) (-5.659392833709716e-06, 4.087890625) (-6.5729222297668455e-06, 4.08984375) (-7.566534519195556e-06, 4.091796875) (-8.639389038085937e-06, 4.09375) (-9.790213584899901e-06, 4.095703125) (-1.1017316818237304e-05, 4.09765625) (-1.2318611145019531e-05, 4.099609375) (-1.3691635131835937e-05, 4.1015625) (-1.5133558273315428e-05, 4.103515625) (-1.664118194580078e-05, 4.10546875) (-1.821094512939453e-05, 4.107421875) (-1.9838943481445313e-05, 4.109375) (-2.152092361450195e-05, 4.111328125) (-2.3252307891845703e-05, 4.11328125) (-2.502822494506836e-05, 4.115234375) (-2.6843511581420896e-05, 4.1171875) (-2.869272994995117e-05, 4.119140625) (-3.057022285461426e-05, 4.12109375) (-3.247010803222656e-05, 4.123046875) (-3.4386344909667964e-05, 4.125) (-3.631273651123047e-05, 4.126953125) (-3.824290084838867e-05, 4.12890625) (-4.017031097412109e-05, 4.130859375) (-4.208827972412109e-05, 4.1328125) (-4.398998260498047e-05, 4.134765625) (-4.5868484497070314e-05, 4.13671875) (-4.771678161621094e-05, 4.138671875) (-4.952784729003906e-05, 4.140625) (-5.129468536376953e-05, 4.142578125) (-5.301042556762695e-05, 4.14453125) (-5.4668399810791013e-05, 4.146484375) (-5.626222229003906e-05, 4.1484375) (-5.778587341308593e-05, 4.150390625) (-5.9233757019042965e-05, 4.15234375) (-6.0600738525390625e-05, 4.154296875) (-6.188218307495117e-05, 4.15625) (-6.307398986816406e-05, 4.158203125) (-6.41725845336914e-05, 4.16015625) (-6.51750030517578e-05, 4.162109375) (-6.607882690429687e-05, 4.1640625) (-6.688226318359375e-05, 4.166015625) (-6.758411407470703e-05, 4.16796875) (-6.8183837890625e-05, 4.169921875) (-6.868153381347656e-05, 4.171875) (-6.90780029296875e-05, 4.173828125) (-6.937470245361328e-05, 4.17578125) (-6.95737075805664e-05, 4.177734375) (-6.967774200439452e-05, 4.1796875) (-6.969013977050781e-05, 4.181640625) (-6.961478424072266e-05, 4.18359375) (-6.945610046386719e-05, 4.185546875) (-6.921902465820312e-05, 4.1875) (-6.8908935546875e-05, 4.189453125) (-6.853167724609374e-05, 4.19140625) (-6.80935287475586e-05, 4.193359375) (-6.76011962890625e-05, 4.1953125) (-6.706181335449218e-05, 4.197265625) (-6.648289489746094e-05, 4.19921875) (-6.587226867675781e-05, 4.201171875) (-6.523802947998047e-05, 4.203125) (-6.458848571777343e-05, 4.205078125) (-6.393204498291015e-05, 4.20703125) (-6.327718353271483e-05, 4.208984375) (-6.263232421875e-05, 4.2109375) (-6.20057258605957e-05, 4.212890625) (-6.140541839599608e-05, 4.21484375) (-6.083921813964843e-05, 4.216796875) (-6.031462097167969e-05, 4.21875) (-5.983881378173828e-05, 4.220703125) (-5.941853332519531e-05, 4.22265625) (-5.906007385253906e-05, 4.224609375) (-5.876919555664062e-05, 4.2265625) (-5.855112075805664e-05, 4.228515625) (-5.841045379638672e-05, 4.23046875) (-5.8351173400878906e-05, 4.232421875) (-5.837654876708984e-05, 4.234375) (-5.8489067077636714e-05, 4.236328125) (-5.8690528869628906e-05, 4.23828125) (-5.8982082366943356e-05, 4.240234375) (-5.936418914794922e-05, 4.2421875) (-5.983675384521484e-05, 4.244140625) (-6.0399040222167965e-05, 4.24609375) (-6.104970169067383e-05, 4.248046875) (-6.178684616088867e-05, 4.25) (-6.260803222656249e-05, 4.251953125) (-6.351025009155273e-05, 4.25390625) (-6.448999786376953e-05, 4.255859375) (-6.5543212890625e-05, 4.2578125) (-6.666519165039063e-05, 4.259765625) (-6.785067749023437e-05, 4.26171875) (-6.909400939941405e-05, 4.263671875) (-7.03890380859375e-05, 4.265625) (-7.172933959960937e-05, 4.267578125) (-7.310813903808594e-05, 4.26953125) (-7.45182876586914e-05, 4.271484375) (-7.595245361328125e-05, 4.2734375) (-7.740319061279297e-05, 4.275390625) (-7.886285400390625e-05, 4.27734375) (-8.032372283935547e-05, 4.279296875) (-8.177796173095702e-05, 4.28125) (-8.321752166748047e-05, 4.283203125) (-8.463449096679687e-05, 4.28515625) (-8.602116394042968e-05, 4.287109375) (-8.736997985839844e-05, 4.2890625) (-8.867369842529296e-05, 4.291015625) (-8.992556762695312e-05, 4.29296875) (-9.111912536621094e-05, 4.294921875) (-9.224853515624999e-05, 4.296875) (-9.330862426757812e-05, 4.298828125) (-9.429450988769531e-05, 4.30078125) (-9.520169067382812e-05, 4.302734375) (-9.602599334716797e-05, 4.3046875) (-9.676332092285156e-05, 4.306640625) (-9.74097671508789e-05, 4.30859375) (-9.796187591552734e-05, 4.310546875) (-9.84163589477539e-05, 4.3125) (-9.877024841308594e-05, 4.314453125) (-9.902084350585937e-05, 4.31640625) (-9.916572570800781e-05, 4.318359375) (-9.920285034179687e-05, 4.3203125) (-9.913084411621094e-05, 4.322265625) (-9.894874572753906e-05, 4.32421875) (-9.865592956542969e-05, 4.326171875) (-9.825209045410156e-05, 4.328125) (-9.77369384765625e-05, 4.330078125) (-9.711054992675781e-05, 4.33203125) (-9.637359619140624e-05, 4.333984375) (-9.55269546508789e-05, 4.3359375) (-9.457174682617187e-05, 4.337890625) (-9.35096435546875e-05, 4.33984375) (-9.234263610839844e-05, 4.341796875) (-9.107323455810547e-05, 4.34375) (-8.970486450195312e-05, 4.345703125) (-8.824095153808594e-05, 4.34765625) (-8.668482971191405e-05, 4.349609375) (-8.504015350341797e-05, 4.3515625) (-8.331045532226562e-05, 4.353515625) (-8.149865722656249e-05, 4.35546875) (-7.96075439453125e-05, 4.357421875) (-7.763914489746094e-05, 4.359375) (-7.559442138671874e-05, 4.361328125) (-7.34747314453125e-05, 4.36328125) (-7.128191375732421e-05, 4.365234375) (-6.901766967773437e-05, 4.3671875) (-6.668440246582031e-05, 4.369140625) (-6.428539276123047e-05, 4.37109375) (-6.182397079467773e-05, 4.373046875) (-5.930453491210937e-05, 4.375) (-5.673287200927734e-05, 4.376953125) (-5.411421203613281e-05, 4.37890625) (-5.145360565185547e-05, 4.380859375) (-4.875592041015625e-05, 4.3828125) (-4.602420806884765e-05, 4.384765625) (-4.326116943359375e-05, 4.38671875) (-4.047000122070312e-05, 4.388671875) (-3.7653305053710936e-05, 4.390625) (-3.4813434600830076e-05, 4.392578125) (-3.195280075073242e-05, 4.39453125) (-2.9072406768798825e-05, 4.396484375) (-2.6174591064453123e-05, 4.3984375) (-2.3265125274658202e-05, 4.400390625) (-2.0348209381103515e-05, 4.40234375) (-1.7427268981933594e-05, 4.404296875) (-1.4503608703613281e-05, 4.40625) (-1.1573519706726074e-05, 4.408203125) (-8.637137413024902e-06, 4.41015625) (-5.70084810256958e-06, 4.412109375) (-2.772197723388672e-06, 4.4140625) (1.3874417543411255e-07, 4.416015625) (3.016918182373047e-06, 4.41796875) (5.847051620483398e-06, 4.419921875) (8.607237815856933e-06, 4.421875) (1.126306915283203e-05, 4.423828125) (1.3783234596252441e-05, 4.42578125) (1.6138023376464844e-05, 4.427734375) (1.8300628662109374e-05, 4.4296875) (2.025996971130371e-05, 4.431640625) (2.200765609741211e-05, 4.43359375) (2.353300857543945e-05, 4.435546875) (2.4827419281005858e-05, 4.4375) (2.5881977081298826e-05, 4.439453125) (2.66961669921875e-05, 4.44140625) (2.7287925720214844e-05, 4.443359375) (2.76811408996582e-05, 4.4453125) (2.789277648925781e-05, 4.447265625) (2.7946735382080076e-05, 4.44921875) (2.7867206573486326e-05, 4.451171875) (2.7687255859375e-05, 4.453125) (2.7468650817871094e-05, 4.455078125) (2.7265350341796874e-05, 4.45703125) (2.711800193786621e-05, 4.458984375) (2.706147003173828e-05, 4.4609375) (2.710309028625488e-05, 4.462890625) (2.7236574172973633e-05, 4.46484375) (2.745850944519043e-05, 4.466796875) (2.7753894805908202e-05, 4.46875) (2.8087684631347654e-05, 4.470703125) (2.8412906646728514e-05, 4.47265625) (2.865470504760742e-05, 4.474609375) (2.8722539901733398e-05, 4.4765625) (2.855121040344238e-05, 4.478515625) (2.8078868865966796e-05, 4.48046875) (2.7248016357421874e-05, 4.482421875) (2.6008319854736327e-05, 4.484375) (2.4286022186279297e-05, 4.486328125) (2.201947784423828e-05, 4.48828125) (1.9177745819091798e-05, 4.490234375) (1.5743167877197266e-05, 4.4921875) (1.172528839111328e-05, 4.494140625) (7.159197330474853e-06, 4.49609375) (2.0812888145446775e-06, 4.498046875) (-3.453441381454468e-06, 4.5) (-9.347349166870117e-06, 4.501953125) (-1.5487704277038573e-05, 4.50390625) (-2.1734378814697264e-05, 4.505859375) (-2.7923894882202147e-05, 4.5078125) (-3.392826843261718e-05, 4.509765625) (-3.963956451416015e-05, 4.51171875) (-4.497037506103515e-05, 4.513671875) (-4.9876953124999995e-05, 4.515625) (-5.432631683349609e-05, 4.517578125) (-5.830490112304687e-05, 4.51953125) (-6.182855606079102e-05, 4.521484375) (-6.49138946533203e-05, 4.5234375) (-6.760070037841797e-05, 4.525390625) (-6.996983337402343e-05, 4.52734375) (-7.21117935180664e-05, 4.529296875) (-7.414500427246093e-05, 4.53125) (-7.62193374633789e-05, 4.533203125) (-7.846485137939453e-05, 4.53515625) (-8.107414245605469e-05, 4.537109375) (-8.431614685058593e-05, 4.5390625) (-8.836466979980469e-05, 4.541015625) (-9.32569122314453e-05, 4.54296875) (-9.880831146240234e-05, 4.544921875) (-0.00010454985809326172, 4.546875) (-0.0001099397964477539, 4.548828125) (-0.00011448702239990234, 4.55078125) (-0.00011760527038574218, 4.552734375) (-0.00011861164855957031, 4.5546875) (-0.00011697801971435546, 4.556640625) (-0.00011250985717773437, 4.55859375) (-0.00010570397186279296, 4.560546875) (-9.774237060546874e-05, 4.5625) (-8.999932098388672e-05, 4.564453125) (-8.373751068115234e-05, 4.56640625) (-8.006898498535156e-05, 4.568359375) (-8.007086181640624e-05, 4.5703125) (-8.448272705078124e-05, 4.572265625) (-9.315455627441406e-05, 4.57421875) (-0.000104455322265625, 4.576171875) (-0.00011547896575927734, 4.578125) (-0.00012265623474121094, 4.580078125) (-0.00012206285095214844, 4.58203125) (-0.0001098711700439453, 4.583984375) (-8.220996856689453e-05, 4.5859375) (-3.546232986450195e-05, 4.587890625) (3.1119253158569335e-05, 4.58984375) (0.00011491073608398437, 4.591796875) (0.00021265533447265624, 4.59375) (0.0003206262512207031, 4.595703125) (0.00043801641845703124, 4.59765625) (0.000565995361328125, 4.599609375) (0.0006987538452148437, 4.6015625) (0.0008233609619140625, 4.603515625) (0.0009205134277343749, 4.60546875) (0.0009701961669921874, 4.607421875) (0.0009649161376953124, 4.609375) (0.0009110894165039063, 4.611328125) (0.000823521484375, 4.61328125) (0.00071687841796875, 4.615234375) (0.0005958546752929687, 4.6171875) (0.00045691546630859375, 4.619140625) (0.00029800177001953126, 4.62109375) (0.00012622369384765624, 4.623046875) (-3.9073719024658203e-05, 4.625) (-0.00017514083862304685, 4.626953125) (-0.00026820874023437497, 4.62890625) (-0.00031844784545898437, 4.630859375) (-0.0003395493469238281, 4.6328125) (-0.00034737908935546875, 4.634765625) (-0.0003504679565429687, 4.63671875) (-0.0003496309204101562, 4.638671875) (-0.0003399803161621094, 4.640625) (-0.00031869012451171875, 4.642578125) (-0.0002884308166503906, 4.64453125) (-0.00025441658020019533, 4.646484375) (-0.0002217407531738281, 4.6484375) (-0.00019275393676757813, 4.650390625) (-0.00016753775024414062, 4.65234375) (-0.0001458130645751953, 4.654296875) (-0.0001277398452758789, 4.65625) (-0.0001136567153930664, 4.658203125) (-0.0001030154800415039, 4.66015625) (-9.4693359375e-05, 4.662109375) (-8.820067596435547e-05, 4.6640625) (-8.358338165283202e-05, 4.666015625) (-8.100315856933594e-05, 4.66796875) (-8.036978149414062e-05, 4.669921875) (-8.060202026367187e-05, 4.671875) (-8.03550567626953e-05, 4.673828125) (-7.925160980224608e-05, 4.67578125) (-7.749032592773438e-05, 4.677734375) (-7.522573852539062e-05, 4.6796875) (-7.254034423828125e-05, 4.681640625) (-6.934732055664062e-05, 4.68359375) (-6.56482925415039e-05, 4.685546875) (-6.212031936645507e-05, 4.6875) (-5.9730148315429686e-05, 4.689453125) (-5.8921501159667965e-05, 4.69140625) (-5.970354461669922e-05, 4.693359375) (-6.185285949707031e-05, 4.6953125) (-6.49913330078125e-05, 4.697265625) (-6.887034606933593e-05, 4.69921875) (-7.331002044677734e-05, 4.701171875) (-7.789192962646484e-05, 4.703125) (-8.206012725830078e-05, 4.705078125) (-8.542222595214844e-05, 4.70703125) (-8.776708221435547e-05, 4.708984375) (-8.906329345703124e-05, 4.7109375) (-8.94200439453125e-05, 4.712890625) (-8.891141510009765e-05, 4.71484375) (-8.756224822998046e-05, 4.716796875) (-8.543646240234375e-05, 4.71875) (-8.264231872558593e-05, 4.720703125) (-7.929945373535157e-05, 4.72265625) (-7.552989196777343e-05, 4.724609375) (-7.14325942993164e-05, 4.7265625) (-6.70840072631836e-05, 4.728515625) (-6.257027435302734e-05, 4.73046875) (-5.799500274658203e-05, 4.732421875) (-5.347269821166992e-05, 4.734375) (-4.910721588134765e-05, 4.736328125) (-4.4982841491699215e-05, 4.73828125) (-4.115473175048828e-05, 4.740234375) (-3.764696502685547e-05, 4.7421875) (-3.446936416625976e-05, 4.744140625) (-3.162293815612793e-05, 4.74609375) (-2.9101245880126953e-05, 4.748046875) (-2.6892908096313477e-05, 4.75) (-2.4980321884155274e-05, 4.751953125) (-2.333400535583496e-05, 4.75390625) (-2.1924179077148437e-05, 4.755859375) (-2.0726558685302734e-05, 4.7578125) (-1.9711763381958007e-05, 4.759765625) (-1.884993553161621e-05, 4.76171875) (-1.8106037139892577e-05, 4.763671875) (-1.743470001220703e-05, 4.765625) (-1.6797420501708983e-05, 4.767578125) (-1.616631507873535e-05, 4.76953125) (-1.5519426345825196e-05, 4.771484375) (-1.4842936515808104e-05, 4.7734375) (-1.4127429962158202e-05, 4.775390625) (-1.3363054275512694e-05, 4.77734375) (-1.2544296264648436e-05, 4.779296875) (-1.167121696472168e-05, 4.78125) (-1.0742342948913574e-05, 4.783203125) (-9.756230354309081e-06, 4.78515625) (-8.710199356079101e-06, 4.787109375) (-7.597881317138672e-06, 4.7890625) (-6.414961814880371e-06, 4.791015625) (-5.159496307373047e-06, 4.79296875) (-3.83092451095581e-06, 4.794921875) (-2.431067943572998e-06, 4.796875) (-9.610608220100403e-07, 4.798828125) (5.799898505210877e-07, 4.80078125) (2.1924481391906737e-06, 4.802734375) (3.876036643981934e-06, 4.8046875) (5.630935192108154e-06, 4.806640625) (7.4569458961486816e-06, 4.80859375) (9.354884147644043e-06, 4.810546875) (1.1327288627624512e-05, 4.8125) (1.3375261306762694e-05, 4.814453125) (1.5498323440551756e-05, 4.81640625) (1.7695816040039062e-05, 4.818359375) (1.996646499633789e-05, 4.8203125) (2.2309165954589842e-05, 4.822265625) (2.472354507446289e-05, 4.82421875) (2.720881652832031e-05, 4.826171875) (2.9763729095458984e-05, 4.828125) (3.238779067993164e-05, 4.830078125) (3.5081161499023436e-05, 4.83203125) (3.784442138671875e-05, 4.833984375) (4.06788215637207e-05, 4.8359375) (4.358561706542969e-05, 4.837890625) (4.656587219238281e-05, 4.83984375) (4.962086486816406e-05, 4.841796875) (5.2751976013183594e-05, 4.84375) (5.5960617065429684e-05, 4.845703125) (5.9248268127441405e-05, 4.84765625) (6.261619567871093e-05, 4.849609375) (6.606539154052733e-05, 4.8515625) (6.959673309326172e-05, 4.853515625) (7.32110137939453e-05, 4.85546875) (7.690892028808593e-05, 4.857421875) (8.069097900390625e-05, 4.859375) (8.455724334716796e-05, 4.861328125) (8.850714874267578e-05, 4.86328125) (9.253969573974609e-05, 4.865234375) (9.665338134765625e-05, 4.8671875) (0.00010084602355957031, 4.869140625) (0.00010511476898193359, 4.87109375) (0.000109455810546875, 4.873046875) (0.00011386424255371093, 4.875) (0.00011833428192138672, 4.876953125) (0.00012285928344726562, 4.87890625) (0.000127431396484375, 4.880859375) (0.0001320417022705078, 4.8828125) (0.00013668017578125, 4.884765625) (0.00014133552551269532, 4.88671875) (0.00014599542236328123, 4.888671875) (0.0001506465301513672, 4.890625) (0.00015527430725097656, 4.892578125) (0.00015986312866210937, 4.89453125) (0.0001643963623046875, 4.896484375) (0.00016885653686523437, 4.8984375) (0.00017322540283203124, 4.900390625) (0.0001774842529296875, 4.90234375) (0.00018161386108398437, 4.904296875) (0.00018559484863281249, 4.90625) (0.00018940768432617187, 4.908203125) (0.00019303289794921874, 4.91015625) (0.00019645126342773437, 4.912109375) (0.00019964396667480468, 4.9140625) (0.00020259263610839843, 4.916015625) (0.00020527944946289062, 4.91796875) (0.00020768728637695312, 4.919921875) (0.00020979981994628905, 4.921875) (0.00021160166931152342, 4.923828125) (0.00021307852172851562, 4.92578125) (0.00021421720886230467, 4.927734375) (0.00021500592041015623, 4.9296875) (0.0002154341125488281, 4.931640625) (0.00021549284362792968, 4.93359375) (0.00021517466735839844, 4.935546875) (0.000214473876953125, 4.9375) (0.000213386474609375, 4.939453125) (0.00021191027832031248, 4.94140625) (0.00021004490661621092, 4.943359375) (0.0002077919921875, 4.9453125) (0.00020515509033203124, 4.947265625) (0.00020213970947265624, 4.94921875) (0.00019875344848632813, 4.951171875) (0.0001950058135986328, 4.953125) (0.00019090843200683593, 4.955078125) (0.00018647479248046873, 4.95703125) (0.0001817202453613281, 4.958984375) (0.0001766619873046875, 4.9609375) (0.0001713188018798828, 4.962890625) (0.00016571104431152342, 4.96484375) (0.00015986035156249998, 4.966796875) (0.00015378967285156249, 4.96875) (0.0001475228271484375, 4.970703125) (0.0001410845947265625, 4.97265625) (0.0001345004119873047, 4.974609375) (0.00012779624938964843, 4.9765625) (0.00012099847412109374, 4.978515625) (0.00011413368225097655, 4.98046875) (0.00010722854614257813, 4.982421875) (0.00010030965423583984, 4.984375) (9.340341186523437e-05, 4.986328125) (8.653587341308594e-05, 4.98828125) (7.973260498046874e-05, 4.990234375) (7.301856994628906e-05, 4.9921875) (6.641790771484374e-05, 4.994140625) (5.995394134521484e-05, 4.99609375) (5.3649017333984373e-05, 4.998046875) (4.7524372100830076e-05, 5.0) (4.160004425048828e-05, 5.001953125) (3.5894714355468746e-05, 5.00390625) (3.0425640106201172e-05, 5.005859375) (2.5208541870117187e-05, 5.0078125) (2.025751495361328e-05, 5.009765625) (1.5584949493408202e-05, 5.01171875) (1.1201425552368163e-05, 5.013671875) (7.115633487701415e-06, 5.015625) (3.334344625473022e-06, 5.017578125) (-1.3759291172027587e-07, 5.01953125) (-3.2972493171691894e-06, 5.021484375) (-6.143593788146973e-06, 5.0234375) (-8.677468299865722e-06, 5.025390625) (-1.0901534080505371e-05, 5.02734375) (-1.2820201873779296e-05, 5.029296875) (-1.4439514160156249e-05, 5.03125) (-1.576704978942871e-05, 5.033203125) (-1.6811820983886717e-05, 5.03515625) (-1.7584186553955077e-05, 5.037109375) (-1.809575271606445e-05, 5.0390625) (-1.8359245300292968e-05, 5.041015625) (-1.8388393402099607e-05, 5.04296875) (-1.819780921936035e-05, 5.044921875) (-1.780287170410156e-05, 5.046875) (-1.7219654083251953e-05, 5.048828125) (-1.646480178833008e-05, 5.05078125) (-1.555543327331543e-05, 5.052734375) (-1.450901699066162e-05, 5.0546875) (-1.3343261718749999e-05, 5.056640625) (-1.2076028823852538e-05, 5.05859375) (-1.072524070739746e-05, 5.060546875) (-9.308770179748534e-06, 5.0625) (-7.844319343566895e-06, 5.064453125) (-6.349283695220947e-06, 5.06640625) (-4.840629577636719e-06, 5.068359375) (-3.3347909450531004e-06, 5.0703125) (-1.847560167312622e-06, 5.072265625) (-3.9397111535072325e-07, 5.07421875) (1.0118087530136108e-06, 5.076171875) (2.3565788269042967e-06, 5.078125) (3.6281785964965817e-06, 5.080078125) (4.815534591674805e-06, 5.08203125) (5.9086999893188475e-06, 5.083984375) (6.898884296417236e-06, 5.0859375) (7.778487682342528e-06, 5.087890625) (8.541118621826171e-06, 5.08984375) (9.181589126586914e-06, 5.091796875) (9.695897102355956e-06, 5.09375) (1.0081188201904296e-05, 5.095703125) (1.0335728645324707e-05, 5.09765625) (1.0458871841430664e-05, 5.099609375) (1.0451025009155273e-05, 5.1015625) (1.0313583374023436e-05, 5.103515625) (1.004886531829834e-05, 5.10546875) (9.66004753112793e-06, 5.107421875) (9.151119232177734e-06, 5.109375) (8.526837348937988e-06, 5.111328125) (7.792693138122557e-06, 5.11328125) (6.954855918884277e-06, 5.115234375) (6.0201230049133296e-06, 5.1171875) (4.995862483978272e-06, 5.119140625) (3.889965057373047e-06, 5.12109375) (2.7107913494110107e-06, 5.123046875) (1.467086672782898e-06, 5.125) (1.6788798570632934e-07, 5.126953125) (-1.1775860786437987e-06, 5.12890625) (-2.560040235519409e-06, 5.130859375) (-3.970193862915039e-06, 5.1328125) (-5.398875236511231e-06, 5.134765625) (-6.837114334106445e-06, 5.13671875) (-8.27622604370117e-06, 5.138671875) (-9.707883834838867e-06, 5.140625) (-1.1124181747436524e-05, 5.142578125) (-1.2517669677734374e-05, 5.14453125) (-1.3881399154663086e-05, 5.146484375) (-1.5208967208862303e-05, 5.1484375) (-1.6494558334350584e-05, 5.150390625) (-1.7732994079589843e-05, 5.15234375) (-1.891975402832031e-05, 5.154296875) (-2.005099868774414e-05, 5.15625) (-2.1123559951782225e-05, 5.158203125) (-2.2134946823120116e-05, 5.16015625) (-2.3083339691162107e-05, 5.162109375) (-2.3967559814453125e-05, 5.1640625) (-2.478704833984375e-05, 5.166015625) (-2.5541805267333983e-05, 5.16796875) (-2.623236846923828e-05, 5.169921875) (-2.6859798431396483e-05, 5.171875) (-2.7425674438476562e-05, 5.173828125) (-2.7932094573974607e-05, 5.17578125) (-2.8381664276123045e-05, 5.177734375) (-2.8777498245239255e-05, 5.1796875) (-2.9123207092285156e-05, 5.181640625) (-2.942287826538086e-05, 5.18359375) (-2.9681049346923828e-05, 5.185546875) (-2.990264892578125e-05, 5.1875) (-3.0092914581298826e-05, 5.189453125) (-3.0257316589355468e-05, 5.19140625) (-3.0401458740234373e-05, 5.193359375) (-3.053101348876953e-05, 5.1953125) (-3.065166091918945e-05, 5.197265625) (-3.076900482177734e-05, 5.19921875) (-3.0888526916503905e-05, 5.201171875) (-3.101554298400879e-05, 5.203125) (-3.1155143737792965e-05, 5.205078125) (-3.131219863891601e-05, 5.20703125) (-3.149129104614258e-05, 5.208984375) (-3.1696699142456056e-05, 5.2109375) (-3.1932308197021484e-05, 5.212890625) (-3.220158386230469e-05, 5.21484375) (-3.2507511138916016e-05, 5.216796875) (-3.285257720947265e-05, 5.21875) (-3.323878479003906e-05, 5.220703125) (-3.366759872436523e-05, 5.22265625) (-3.41400032043457e-05, 5.224609375) (-3.4656494140625e-05, 5.2265625) (-3.521712493896484e-05, 5.228515625) (-3.582154846191406e-05, 5.23046875) (-3.6469024658203125e-05, 5.232421875) (-3.715847015380859e-05, 5.234375) (-3.7888385772705075e-05, 5.236328125) (-3.865689849853515e-05, 5.23828125) (-3.946171569824219e-05, 5.240234375) (-4.030011749267578e-05, 5.2421875) (-4.116897583007812e-05, 5.244140625) (-4.206473922729492e-05, 5.24609375) (-4.298346710205078e-05, 5.248046875) (-4.392086791992187e-05, 5.25) (-4.4872367858886717e-05, 5.251953125) (-4.583317184448242e-05, 5.25390625) (-4.679836654663086e-05, 5.255859375) (-4.776293182373047e-05, 5.2578125) (-4.8721828460693354e-05, 5.259765625) (-4.967003631591797e-05, 5.26171875) (-5.060260772705078e-05, 5.263671875) (-5.151467514038086e-05, 5.265625) (-5.240150833129882e-05, 5.267578125) (-5.325856399536132e-05, 5.26953125) (-5.4081485748291016e-05, 5.271484375) (-5.4866203308105465e-05, 5.2734375) (-5.5608978271484375e-05, 5.275390625) (-5.630648040771484e-05, 5.27734375) (-5.695581817626953e-05, 5.279296875) (-5.7554603576660154e-05, 5.28125) (-5.810095977783203e-05, 5.283203125) (-5.859354400634765e-05, 5.28515625) (-5.9031520843505855e-05, 5.287109375) (-5.941455459594726e-05, 5.2890625) (-5.97427749633789e-05, 5.291015625) (-6.0016761779785156e-05, 5.29296875) (-6.0237499237060545e-05, 5.294921875) (-6.040635681152343e-05, 5.296875) (-6.05251235961914e-05, 5.298828125) (-6.0596004486083983e-05, 5.30078125) (-6.0621616363525385e-05, 5.302734375) (-6.060501861572265e-05, 5.3046875) (-6.05496826171875e-05, 5.306640625) (-6.0459506988525386e-05, 5.30859375) (-6.033878326416015e-05, 5.310546875) (-6.01921272277832e-05, 5.3125) (-6.002444458007812e-05, 5.314453125) (-5.984088134765625e-05, 5.31640625) (-5.9646736145019526e-05, 5.318359375) (-5.944741058349609e-05, 5.3203125) (-5.9248374938964844e-05, 5.322265625) (-5.905507659912109e-05, 5.32421875) (-5.887289428710937e-05, 5.326171875) (-5.870716857910156e-05, 5.328125) (-5.85630989074707e-05, 5.330078125) (-5.8445709228515625e-05, 5.33203125) (-5.835979461669922e-05, 5.333984375) (-5.8309825897216794e-05, 5.3359375) (-5.829989242553711e-05, 5.337890625) (-5.833367538452148e-05, 5.33984375) (-5.841435623168945e-05, 5.341796875) (-5.8544540405273435e-05, 5.34375) (-5.872620010375976e-05, 5.345703125) (-5.896063995361328e-05, 5.34765625) (-5.9248508453369136e-05, 5.349609375) (-5.958982849121093e-05, 5.3515625) (-5.9984035491943355e-05, 5.353515625) (-6.042994689941406e-05, 5.35546875) (-6.0925842285156244e-05, 5.357421875) (-6.146944808959961e-05, 5.359375) (-6.205791473388672e-05, 5.361328125) (-6.268789291381836e-05, 5.36328125) (-6.335550689697266e-05, 5.365234375) (-6.405629730224609e-05, 5.3671875) (-6.478531646728515e-05, 5.369140625) (-6.553701019287109e-05, 5.37109375) (-6.630526733398437e-05, 5.373046875) (-6.708354949951171e-05, 5.375) (-6.786492919921875e-05, 5.376953125) (-6.86421127319336e-05, 5.37890625) (-6.940750122070312e-05, 5.380859375) (-7.015328216552734e-05, 5.3828125) (-7.087139129638671e-05, 5.384765625) (-7.155378723144531e-05, 5.38671875) (-7.219242095947266e-05, 5.388671875) (-7.277919006347656e-05, 5.390625) (-7.330593872070312e-05, 5.392578125) (-7.376460266113281e-05, 5.39453125) (-7.414732360839844e-05, 5.396484375) (-7.444640350341796e-05, 5.3984375) (-7.465448760986327e-05, 5.400390625) (-7.476445007324219e-05, 5.40234375) (-7.476946258544921e-05, 5.404296875) (-7.466331481933594e-05, 5.40625) (-7.444048309326171e-05, 5.408203125) (-7.40961456298828e-05, 5.41015625) (-7.362617492675781e-05, 5.412109375) (-7.302709960937499e-05, 5.4140625) (-7.229609680175781e-05, 5.416015625) (-7.14310302734375e-05, 5.41796875) (-7.043032836914062e-05, 5.419921875) (-6.929308319091797e-05, 5.421875) (-6.801901245117188e-05, 5.423828125) (-6.660838317871094e-05, 5.42578125) (-6.50621109008789e-05, 5.427734375) (-6.338187408447266e-05, 5.4296875) (-6.156999206542969e-05, 5.431640625) (-5.962970733642578e-05, 5.43359375) (-5.7565280914306636e-05, 5.435546875) (-5.538152694702148e-05, 5.4375) (-5.308395767211914e-05, 5.439453125) (-5.067893218994141e-05, 5.44140625) (-4.817343139648437e-05, 5.443359375) (-4.557514953613281e-05, 5.4453125) (-4.289254379272461e-05, 5.447265625) (-4.0134384155273434e-05, 5.44921875) (-3.7309844970703126e-05, 5.451171875) (-3.44290542602539e-05, 5.453125) (-3.150301742553711e-05, 5.455078125) (-2.8543224334716796e-05, 5.45703125) (-2.5561664581298828e-05, 5.458984375) (-2.257090377807617e-05, 5.4609375) (-1.9584022521972654e-05, 5.462890625) (-1.6615276336669922e-05, 5.46484375) (-1.3680164337158203e-05, 5.466796875) (-1.0794320106506347e-05, 5.46875) (-7.973390102386475e-06, 5.470703125) (-5.233353614807129e-06, 5.47265625) (-2.5905508995056152e-06, 5.474609375) (-6.141796708106995e-08, 5.4765625) (2.3376111984252927e-06, 5.478515625) (4.591012001037598e-06, 5.48046875) (6.684565544128418e-06, 5.482421875) (8.6044921875e-06, 5.484375) (1.0337451934814453e-05, 5.486328125) (1.1869995117187499e-05, 5.48828125) (1.318867301940918e-05, 5.490234375) (1.4280469894409179e-05, 5.4921875) (1.5132442474365233e-05, 5.494140625) (1.5732753753662108e-05, 5.49609375) (1.607120704650879e-05, 5.498046875) (1.61385498046875e-05, 5.5) (1.592694854736328e-05, 5.501953125) (1.5432241439819334e-05, 5.50390625) (1.4654190063476561e-05, 5.505859375) (1.3594013214111328e-05, 5.5078125) (1.2254510879516601e-05, 5.509765625) (1.0635912895202636e-05, 5.51171875) (8.73301887512207e-06, 5.513671875) (6.542614936828613e-06, 5.515625) (4.064532279968262e-06, 5.517578125) (1.300230026245117e-06, 5.51953125) (-1.744844913482666e-06, 5.521484375) (-5.0594224929809565e-06, 5.5234375) (-8.625576972961426e-06, 5.525390625) (-1.2414613723754883e-05, 5.52734375) (-1.6384723663330077e-05, 5.529296875) (-2.049209976196289e-05, 5.53125) (-2.4692554473876952e-05, 5.533203125) (-2.8943431854248045e-05, 5.53515625) (-3.321051025390625e-05, 5.537109375) (-3.7456771850585936e-05, 5.5390625) (-4.164187622070312e-05, 5.541015625) (-4.572146606445312e-05, 5.54296875) (-4.9637489318847654e-05, 5.544921875) (-5.3331501007080076e-05, 5.546875) (-5.6751426696777344e-05, 5.548828125) (-5.98469009399414e-05, 5.55078125) (-6.257469940185547e-05, 5.552734375) (-6.491452026367187e-05, 5.5546875) (-6.68718032836914e-05, 5.556640625) (-6.848216247558594e-05, 5.55859375) (-6.982811737060546e-05, 5.560546875) (-7.099248504638671e-05, 5.5625) (-7.204383850097655e-05, 5.564453125) (-7.306735229492187e-05, 5.56640625) (-7.414350891113281e-05, 5.568359375) (-7.53677520751953e-05, 5.5703125) (-7.686479187011718e-05, 5.572265625) (-7.874897766113281e-05, 5.57421875) (-8.11177978515625e-05, 5.576171875) (-8.411109161376953e-05, 5.578125) (-8.791270446777343e-05, 5.580078125) (-9.264308166503906e-05, 5.58203125) (-9.833183288574218e-05, 5.583984375) (-0.00010480741882324219, 5.5859375) (-0.0001116360626220703, 5.587890625) (-0.00011831935119628905, 5.58984375) (-0.0001243608169555664, 5.591796875) (-0.0001291986083984375, 5.59375) (-0.00013222256469726563, 5.595703125) (-0.00013293495178222654, 5.59765625) (-0.000131107666015625, 5.599609375) (-0.00012710000610351561, 5.6015625) (-0.00012193414306640624, 5.603515625) (-0.00011684202575683593, 5.60546875) (-0.00011294649505615233, 5.607421875) (-0.00011119995117187499, 5.609375) (-0.00011244194030761719, 5.611328125) (-0.000117222412109375, 5.61328125) (-0.0001254618453979492, 5.615234375) (-0.0001358233642578125, 5.6171875) (-0.00014558988952636717, 5.619140625) (-0.0001513421630859375, 5.62109375) (-0.00014969825744628906, 5.623046875) (-0.00013747509765625, 5.625) (-0.00011138133239746094, 5.626953125) (-6.851342773437499e-05, 5.62890625) (-6.844338417053222e-06, 5.630859375) (7.263521575927735e-05, 5.6328125) (0.00016552920532226563, 5.634765625) (0.0002667137451171875, 5.63671875) (0.00037167236328125, 5.638671875) (0.0004793418579101562, 5.640625) (0.0005897748413085937, 5.642578125) (0.0006985723876953124, 5.64453125) (0.0007956136474609374, 5.646484375) (0.0008643368530273437, 5.6484375) (0.0008889848022460937, 5.650390625) (0.0008629071044921875, 5.65234375) (0.0007902340698242187, 5.654296875) (0.0006858178100585937, 5.65625) (0.0005663259887695312, 5.658203125) (0.00044290939331054685, 5.66015625) (0.00032130505371093747, 5.662109375) (0.00020169105529785155, 5.6640625) (8.473051452636719e-05, 5.666015625) (-2.4867340087890623e-05, 5.66796875) (-0.00012128932952880859, 5.669921875) (-0.00019876348876953124, 5.671875) (-0.00025437518310546877, 5.673828125) (-0.000289039794921875, 5.67578125) (-0.00030565264892578123, 5.677734375) (-0.0003079354248046875, 5.6796875) (-0.00029934051513671875, 5.681640625) (-0.0002835269165039062, 5.68359375) (-0.0002639869079589844, 5.685546875) (-0.00024349012756347656, 5.6875) (-0.00022429710388183592, 5.689453125) (-0.00020731581115722656, 5.69140625) (-0.00019232235717773436, 5.693359375) (-0.00017888949584960937, 5.6953125) (-0.00016676097106933593, 5.697265625) (-0.0001556983947753906, 5.69921875) (-0.00014560186767578124, 5.701171875) (-0.000136513916015625, 5.703125) (-0.00012828997802734375, 5.705078125) (-0.00012120733642578124, 5.70703125) (-0.00011582737731933593, 5.708984375) (-0.00011253762817382812, 5.7109375) (-0.00011126499938964843, 5.712890625) (-0.00011134097290039062, 5.71484375) (-0.00011199627685546874, 5.716796875) (-0.00011253366088867187, 5.71875) (-0.00011257942199707031, 5.720703125) (-0.00011193641662597656, 5.72265625) (-0.00011041607666015624, 5.724609375) (-0.00010793003845214844, 5.7265625) (-0.00010470297241210937, 5.728515625) (-0.00010138562774658203, 5.73046875) (-9.855737304687499e-05, 5.732421875) (-9.663568115234374e-05, 5.734375) (-9.57542724609375e-05, 5.736328125) (-9.571097564697265e-05, 5.73828125) (-9.627259826660156e-05, 5.740234375) (-9.72239761352539e-05, 5.7421875) (-9.828204345703125e-05, 5.744140625) (-9.908675384521484e-05, 5.74609375) (-9.938237762451172e-05, 5.748046875) (-9.900651550292968e-05, 5.75) (-9.790158081054687e-05, 5.751953125) (-9.617500305175781e-05, 5.75390625) (-9.394259643554687e-05, 5.755859375) (-9.129055786132812e-05, 5.7578125) (-8.830755615234375e-05, 5.759765625) (-8.504972839355468e-05, 5.76171875) (-8.153480529785156e-05, 5.763671875) (-7.779823303222656e-05, 5.765625) (-7.39076690673828e-05, 5.767578125) (-6.994293212890625e-05, 5.76953125) (-6.60019760131836e-05, 5.771484375) (-6.216970062255859e-05, 5.7734375) (-5.849410247802734e-05, 5.775390625) (-5.501265335083008e-05, 5.77734375) (-5.1754123687744135e-05, 5.779296875) (-4.872747039794922e-05, 5.78125) (-4.5925708770751954e-05, 5.783203125) (-4.330916595458984e-05, 5.78515625) (-4.0814498901367185e-05, 5.787109375) (-3.8400199890136715e-05, 5.7890625) (-3.60552978515625e-05, 5.791015625) (-3.380116271972656e-05, 5.79296875) (-3.1681388854980466e-05, 5.794921875) (-2.971730041503906e-05, 5.796875) (-2.7900190353393554e-05, 5.798828125) (-2.620934295654297e-05, 5.80078125) (-2.462233543395996e-05, 5.802734375) (-2.312255859375e-05, 5.8046875) (-2.1699329376220702e-05, 5.806640625) (-2.0332538604736326e-05, 5.80859375) (-1.8993057250976562e-05, 5.810546875) (-1.7664262771606444e-05, 5.8125) (-1.6343202590942383e-05, 5.814453125) (-1.5044973373413086e-05, 5.81640625) (-1.3796236038208007e-05, 5.818359375) (-1.2605856895446778e-05, 5.8203125) (-1.1465200424194335e-05, 5.822265625) (-1.0353252410888671e-05, 5.82421875) (-9.238462448120117e-06, 5.826171875) (-8.097248077392578e-06, 5.828125) (-6.915125370025634e-06, 5.830078125) (-5.6755080223083494e-06, 5.83203125) (-4.360429286956787e-06, 5.833984375) (-2.955638885498047e-06, 5.8359375) (-1.4504256248474121e-06, 5.837890625) (1.568363904953003e-07, 5.83984375) (1.8592876195907591e-06, 5.841796875) (3.655886888504028e-06, 5.84375) (5.551509857177734e-06, 5.845703125) (7.55470085144043e-06, 5.84765625) (9.677026748657226e-06, 5.849609375) (1.192458152770996e-05, 5.8515625) (1.4298528671264648e-05, 5.853515625) (1.6799110412597657e-05, 5.85546875) (1.9424962997436523e-05, 5.857421875) (2.2174304962158202e-05, 5.859375) (2.5045299530029294e-05, 5.861328125) (2.8033214569091794e-05, 5.86328125) (3.113151359558105e-05, 5.865234375) (3.4336009979248044e-05, 5.8671875) (3.76441535949707e-05, 5.869140625) (4.105517578125e-05, 5.87109375) (4.4570411682128907e-05, 5.873046875) (4.8189567565917965e-05, 5.875) (5.1910835266113276e-05, 5.876953125) (5.573268890380859e-05, 5.87890625) (5.965323638916015e-05, 5.880859375) (6.366995239257812e-05, 5.8828125) (6.77799072265625e-05, 5.884765625) (7.197888946533203e-05, 5.88671875) (7.626145935058594e-05, 5.888671875) (8.062258911132812e-05, 5.890625) (8.505752563476562e-05, 5.892578125) (8.956136322021484e-05, 5.89453125) (9.412928771972656e-05, 5.896484375) (9.875597381591796e-05, 5.8984375) (0.00010343580627441406, 5.900390625) (0.00010816331481933594, 5.90234375) (0.00011293295288085936, 5.904296875) (0.0001177386245727539, 5.90625) (0.00012257383728027344, 5.908203125) (0.00012743142700195312, 5.91015625) (0.0001323037109375, 5.912109375) (0.00013718287658691405, 5.9140625) (0.00014206076049804687, 5.916015625) (0.0001469286651611328, 5.91796875) (0.00015177749633789062, 5.919921875) (0.00015659765625, 5.921875) (0.00016137918090820312, 5.923828125) (0.00016611181640624999, 5.92578125) (0.0001707848663330078, 5.927734375) (0.00017538679504394532, 5.9296875) (0.00017990541076660157, 5.931640625) (0.00018432786560058592, 5.93359375) (0.00018864073181152342, 5.935546875) (0.00019283026123046874, 5.9375) (0.00019688241577148436, 5.939453125) (0.00020078274536132812, 5.94140625) (0.00020451657104492187, 5.943359375) (0.00020806939697265623, 5.9453125) (0.00021142694091796875, 5.947265625) (0.0002145753173828125, 5.94921875) (0.0002175010986328125, 5.951171875) (0.00022019105529785156, 5.953125) (0.0002226322784423828, 5.955078125) (0.000224812255859375, 5.95703125) (0.00022671905517578124, 5.958984375) (0.0002283413848876953, 5.9609375) (0.00022966857910156248, 5.962890625) (0.00023069065856933592, 5.96484375) (0.00023139833068847656, 5.966796875) (0.00023178334045410154, 5.96875) (0.00023183847045898438, 5.970703125) (0.0002315576171875, 5.97265625) (0.0002309359130859375, 5.974609375) (0.00022996966552734375, 5.9765625) (0.00022865628051757812, 5.978515625) (0.00022699450683593748, 5.98046875) (0.00022498431396484375, 5.982421875) (0.00022262713623046873, 5.984375) (0.00021992575073242186, 5.986328125) (0.00021688432312011718, 5.98828125) (0.0002135083312988281, 5.990234375) (0.00020980484008789062, 5.9921875) (0.0002057823944091797, 5.994140625) (0.0002014510040283203, 5.99609375) (0.00019682217407226562, 5.998046875) (0.00019190875244140624, 6.0) (0.00018672491455078125, 6.001953125) (0.00018128598022460938, 6.00390625) (0.00017560839843749998, 6.005859375) (0.00016970956420898437, 6.0078125) (0.00016360775756835936, 6.009765625) (0.00015732199096679686, 6.01171875) (0.00015087197875976563, 6.013671875) (0.00014427793884277344, 6.015625) (0.00013756071472167968, 6.017578125) (0.00013074153137207031, 6.01953125) (0.000123842041015625, 6.021484375) (0.00011688409423828124, 6.0234375) (0.00010988970947265625, 6.025390625) (0.00010288087463378906, 6.02734375) (9.587947845458984e-05, 6.029296875) (8.890715789794921e-05, 6.03125) (8.198515319824219e-05, 6.033203125) (7.513420104980468e-05, 6.03515625) (6.837437438964844e-05, 6.037109375) (6.172504425048828e-05, 6.0390625) (5.520478057861328e-05, 6.041015625) (4.883130645751953e-05, 6.04296875) (4.262143325805664e-05, 6.044921875) (3.65909423828125e-05, 6.046875) (3.0754526138305663e-05, 6.048828125) (2.5125709533691405e-05, 6.05078125) (1.9716764450073242e-05, 6.052734375) (1.4538643836975098e-05, 6.0546875) (9.600924491882324e-06, 6.056640625) (4.911737442016601e-06, 6.05859375) (4.777300357818603e-07, 6.060546875) (-3.6959261894226073e-06, 6.0625) (-7.605495452880859e-06, 6.064453125) (-1.1248615264892578e-05, 6.06640625) (-1.4624231338500976e-05, 6.068359375) (-1.773255157470703e-05, 6.0703125) (-2.057501983642578e-05, 6.072265625) (-2.315425109863281e-05, 6.07421875) (-2.5474014282226562e-05, 6.076171875) (-2.7539176940917967e-05, 6.078125) (-2.9355670928955076e-05, 6.080078125) (-3.0930492401123046e-05, 6.08203125) (-3.227166748046875e-05, 6.083984375) (-3.338819122314453e-05, 6.0859375) (-3.428992462158203e-05, 6.087890625) (-3.4987483978271484e-05, 6.08984375) (-3.549210739135742e-05, 6.091796875) (-3.5815555572509766e-05, 6.09375) (-3.5970020294189455e-05, 6.095703125) (-3.596799850463867e-05, 6.09765625) (-3.582223129272461e-05, 6.099609375) (-3.5545578002929684e-05, 6.1015625) (-3.515099334716797e-05, 6.103515625) (-3.465145111083984e-05, 6.10546875) (-3.405994415283203e-05, 6.107421875) (-3.3389373779296876e-05, 6.109375) (-3.265247726440429e-05, 6.111328125) (-3.1861736297607423e-05, 6.11328125) (-3.102925491333008e-05, 6.115234375) (-3.016669464111328e-05, 6.1171875) (-2.9285198211669922e-05, 6.119140625) (-2.8395313262939452e-05, 6.12109375) (-2.750693893432617e-05, 6.123046875) (-2.6629283905029296e-05, 6.125) (-2.577088928222656e-05, 6.126953125) (-2.4939653396606443e-05, 6.12890625) (-2.4142881393432615e-05, 6.130859375) (-2.3387287139892577e-05, 6.1328125) (-2.267900276184082e-05, 6.134765625) (-2.2023544311523438e-05, 6.13671875) (-2.142580032348633e-05, 6.138671875) (-2.089002227783203e-05, 6.140625) (-2.041980743408203e-05, 6.142578125) (-2.0018064498901365e-05, 6.14453125) (-1.968698501586914e-05, 6.146484375) (-1.942806053161621e-05, 6.1484375) (-1.924209976196289e-05, 6.150390625) (-1.9129314422607423e-05, 6.15234375) (-1.9089406967163084e-05, 6.154296875) (-1.9121601104736328e-05, 6.15625) (-1.9224706649780274e-05, 6.158203125) (-1.9397146224975586e-05, 6.16015625) (-1.963698577880859e-05, 6.162109375) (-1.9941974639892577e-05, 6.1640625) (-2.0309551239013672e-05, 6.166015625) (-2.0736848831176757e-05, 6.16796875) (-2.1220701217651365e-05, 6.169921875) (-2.1757652282714843e-05, 6.171875) (-2.234402847290039e-05, 6.173828125) (-2.297600746154785e-05, 6.17578125) (-2.3649715423583985e-05, 6.177734375) (-2.4361282348632812e-05, 6.1796875) (-2.510690689086914e-05, 6.181640625) (-2.5882896423339842e-05, 6.18359375) (-2.668570899963379e-05, 6.185546875) (-2.7511962890625e-05, 6.1875) (-2.835844039916992e-05, 6.189453125) (-2.922203254699707e-05, 6.19140625) (-3.0099723815917967e-05, 6.193359375) (-3.0988529205322266e-05, 6.1953125) (-3.188553428649902e-05, 6.197265625) (-3.278791046142578e-05, 6.19921875) (-3.369296646118164e-05, 6.201171875) (-3.459812927246094e-05, 6.203125) (-3.5501022338867184e-05, 6.205078125) (-3.639946746826172e-05, 6.20703125) (-3.729154205322265e-05, 6.208984375) (-3.817555999755859e-05, 6.2109375) (-3.9050102233886715e-05, 6.212890625) (-3.991394805908203e-05, 6.21484375) (-4.0766056060791015e-05, 6.216796875) (-4.1605522155761716e-05, 6.21875) (-4.243156051635742e-05, 6.220703125) (-4.3243553161621095e-05, 6.22265625) (-4.404104614257812e-05, 6.224609375) (-4.482374572753906e-05, 6.2265625) (-4.559156799316406e-05, 6.228515625) (-4.634461975097656e-05, 6.23046875) (-4.708325958251953e-05, 6.232421875) (-4.780805969238281e-05, 6.234375) (-4.851977920532226e-05, 6.236328125) (-4.921932220458984e-05, 6.23828125) (-4.990761566162109e-05, 6.240234375) (-5.058559417724609e-05, 6.2421875) (-5.1254100799560546e-05, 6.244140625) (-5.191389465332031e-05, 6.24609375) (-5.256561279296875e-05, 6.248046875) (-5.3209751129150386e-05, 6.25) (-5.38466796875e-05, 6.251953125) (-5.447669219970703e-05, 6.25390625) (-5.5100028991699216e-05, 6.255859375) (-5.571688079833984e-05, 6.2578125) (-5.6327453613281246e-05, 6.259765625) (-5.693189239501953e-05, 6.26171875) (-5.753031158447265e-05, 6.263671875) (-5.812274169921875e-05, 6.265625) (-5.870914840698242e-05, 6.267578125) (-5.928940963745117e-05, 6.26953125) (-5.986330413818359e-05, 6.271484375) (-6.043049621582031e-05, 6.2734375) (-6.09906005859375e-05, 6.275390625) (-6.154315185546874e-05, 6.27734375) (-6.2087646484375e-05, 6.279296875) (-6.262358093261718e-05, 6.28125) (-6.3150390625e-05, 6.283203125) (-6.366744995117187e-05, 6.28515625) (-6.417403411865235e-05, 6.287109375) (-6.466928863525391e-05, 6.2890625) (-6.515219116210938e-05, 6.291015625) (-6.562151336669922e-05, 6.29296875) (-6.607589721679688e-05, 6.294921875) (-6.651370239257812e-05, 6.296875) (-6.693319702148438e-05, 6.298828125) (-6.73325958251953e-05, 6.30078125) (-6.771006774902343e-05, 6.302734375) (-6.806388092041015e-05, 6.3046875) (-6.839244842529297e-05, 6.306640625) (-6.869436645507812e-05, 6.30859375) (-6.896849060058593e-05, 6.310546875) (-6.921392059326171e-05, 6.3125) (-6.94300537109375e-05, 6.314453125) (-6.961658477783203e-05, 6.31640625) (-6.977345275878906e-05, 6.318359375) (-6.990090942382812e-05, 6.3203125) (-6.999945068359375e-05, 6.322265625) (-7.006985473632813e-05, 6.32421875) (-7.011312866210937e-05, 6.326171875) (-7.013056945800782e-05, 6.328125) (-7.012370300292968e-05, 6.330078125) (-7.009423828125e-05, 6.33203125) (-7.004412841796875e-05, 6.333984375) (-6.997546386718749e-05, 6.3359375) (-6.989045715332031e-05, 6.337890625) (-6.979146575927733e-05, 6.33984375) 