(2.0153760910034178e-05, 0.0) (5.240640258789062e-05, 0.001953125) (6.125719833374023e-05, 0.00390625) (4.7535072326660155e-05, 0.005859375) (1.768907928466797e-05, 0.0078125) (-8.038631439208985e-06, 0.009765625) (-1.9799930572509764e-05, 0.01171875) (-1.528604030609131e-05, 0.013671875) (5.143214225769043e-06, 0.015625) (2.8724105834960937e-05, 0.017578125) (4.7687973022460936e-05, 0.01953125) (6.004219436645508e-05, 0.021484375) (6.344533538818359e-05, 0.0234375) (6.279883575439453e-05, 0.025390625) (6.174048233032226e-05, 0.02734375) (6.0512844085693356e-05, 0.029296875) (6.05731315612793e-05, 0.03125) (6.104291152954102e-05, 0.033203125) (6.096633911132812e-05, 0.03515625) (6.089227294921875e-05, 0.037109375) (6.0816398620605466e-05, 0.0390625) (6.085670471191406e-05, 0.041015625) (6.12813949584961e-05, 0.04296875) (6.1961181640625e-05, 0.044921875) (6.276879882812499e-05, 0.046875) (6.370113754272461e-05, 0.048828125) (6.473467254638671e-05, 0.05078125) (6.585146331787109e-05, 0.052734375) (6.70742950439453e-05, 0.0546875) (6.844635009765624e-05, 0.056640625) (6.999041748046875e-05, 0.05859375) (7.17309341430664e-05, 0.060546875) (7.369707489013672e-05, 0.0625) (7.588053894042969e-05, 0.064453125) (7.826873779296874e-05, 0.06640625) (8.085887145996093e-05, 0.068359375) (8.363543701171874e-05, 0.0703125) (8.65789337158203e-05, 0.072265625) (8.967189025878905e-05, 0.07421875) (9.289007568359375e-05, 0.076171875) (9.620594024658203e-05, 0.078125) (9.959428405761719e-05, 0.080078125) (0.00010302598571777343, 0.08203125) (0.00010646703338623046, 0.083984375) (0.00010988146209716796, 0.0859375) (0.00011322869873046874, 0.087890625) (0.00011646487426757812, 0.08984375) (0.00011954625701904297, 0.091796875) (0.00012242897033691406, 0.09375) (0.0001250704574584961, 0.095703125) (0.0001274297637939453, 0.09765625) (0.00012946597290039062, 0.099609375) (0.00013113909912109374, 0.1015625) (0.00013241177368164062, 0.103515625) (0.00013324868774414062, 0.10546875) (0.000133616455078125, 0.107421875) (0.00013348399353027343, 0.109375) (0.00013281964111328125, 0.111328125) (0.00013159243774414061, 0.11328125) (0.00012977581787109374, 0.115234375) (0.00012734690856933592, 0.1171875) (0.00012428740692138672, 0.119140625) (0.0001205853042602539, 0.12109375) (0.00011623229217529296, 0.123046875) (0.00011122348022460938, 0.125) (0.00010556069946289061, 0.126953125) (9.925056457519531e-05, 0.12890625) (9.230052947998047e-05, 0.130859375) (8.472027587890624e-05, 0.1328125) (7.65186767578125e-05, 0.134765625) (6.77030029296875e-05, 0.13671875) (5.828647994995117e-05, 0.138671875) (4.828885269165039e-05, 0.140625) (3.7734222412109375e-05, 0.142578125) (2.6654346466064452e-05, 0.14453125) (1.5090202331542968e-05, 0.146484375) (3.0904107093811033e-06, 0.1484375) (-9.283552169799805e-06, 0.150390625) (-2.196021270751953e-05, 0.15234375) (-3.48705940246582e-05, 0.154296875) (-4.794660949707031e-05, 0.15625) (-6.112336730957031e-05, 0.158203125) (-7.434402465820312e-05, 0.16015625) (-8.755174255371093e-05, 0.162109375) (-0.0001006924591064453, 0.1640625) (-0.00011372119903564452, 0.166015625) (-0.00012659336853027342, 0.16796875) (-0.00013926509094238282, 0.169921875) (-0.00015169381713867186, 0.171875) (-0.000163827392578125, 0.173828125) (-0.0001756114807128906, 0.17578125) (-0.00018700074768066406, 0.177734375) (-0.00019795143127441405, 0.1796875) (-0.00020841754150390624, 0.181640625) (-0.00021835214233398436, 0.18359375) (-0.00022769488525390625, 0.185546875) (-0.0002363810119628906, 0.1875) (-0.0002443671875, 0.189453125) (-0.0002516090393066406, 0.19140625) (-0.00025803729248046874, 0.193359375) (-0.0002635621948242187, 0.1953125) (-0.00026806964111328124, 0.197265625) (-0.0002714308471679687, 0.19921875) (-0.0002735296630859375, 0.201171875) (-0.00027426974487304687, 0.203125) (-0.0002735223388671875, 0.205078125) (-0.00027113525390625, 0.20703125) (-0.00026701995849609376, 0.208984375) (-0.00026113421630859376, 0.2109375) (-0.0002535268859863281, 0.212890625) (-0.00024437960815429686, 0.21484375) (-0.00023388717651367188, 0.216796875) (-0.0002222194366455078, 0.21875) (-0.00020961032104492187, 0.220703125) (-0.0001963074493408203, 0.22265625) (-0.00018238816833496092, 0.224609375) (-0.00016787753295898438, 0.2265625) (-0.00015266676330566407, 0.228515625) (-0.00013641636657714843, 0.23046875) (-0.00011895567321777343, 0.232421875) (-0.00010020194244384765, 0.234375) (-7.989566802978516e-05, 0.236328125) (-5.802986907958984e-05, 0.23828125) (-3.524538803100586e-05, 0.240234375) (-1.240805721282959e-05, 0.2421875) (9.322218894958496e-06, 0.244140625) (2.8331825256347654e-05, 0.24609375) (4.364078521728516e-05, 0.248046875) (5.4418502807617183e-05, 0.25) (5.8962921142578124e-05, 0.251953125) (5.735679626464843e-05, 0.25390625) (5.226227951049804e-05, 0.255859375) (4.624283599853516e-05, 0.2578125) (4.2575138092041015e-05, 0.259765625) (4.221304321289062e-05, 0.26171875) (4.162237167358398e-05, 0.263671875) (4.092013549804687e-05, 0.265625) (4.499122619628906e-05, 0.267578125) (6.243995285034179e-05, 0.26953125) (0.00010456757354736328, 0.271484375) (0.00017581703186035156, 0.2734375) (0.0002729861755371094, 0.275390625) (0.0003876388244628906, 0.27734375) (0.0005092047424316406, 0.279296875) (0.0006297996215820312, 0.28125) (0.000740326416015625, 0.283203125) (0.0008313095703124999, 0.28515625) (0.0008917412109374999, 0.287109375) (0.0009082841796875, 0.2890625) (0.0008751199951171875, 0.291015625) (0.0007920390014648437, 0.29296875) (0.00066543798828125, 0.294921875) (0.0005123482055664063, 0.296875) (0.0003482697448730469, 0.298828125) (0.00018904197692871092, 0.30078125) (5.0672607421875e-05, 0.302734375) (-6.178283691406249e-05, 0.3046875) (-0.00014557527160644532, 0.306640625) (-0.00020259225463867186, 0.30859375) (-0.0002433518371582031, 0.310546875) (-0.00027293112182617184, 0.3125) (-0.0002937152099609375, 0.314453125) (-0.0003060798645019531, 0.31640625) (-0.00030429785156249996, 0.318359375) (-0.00028771044921875, 0.3203125) (-0.00026064971923828124, 0.322265625) (-0.00022814421081542968, 0.32421875) (-0.00019681378173828123, 0.326171875) (-0.00016943609619140624, 0.328125) (-0.0001453301086425781, 0.330078125) (-0.0001241585922241211, 0.33203125) (-0.00010517538452148436, 0.333984375) (-8.719866943359375e-05, 0.3359375) (-6.97292251586914e-05, 0.337890625) (-5.215479278564453e-05, 0.33984375) (-3.4522098541259766e-05, 0.341796875) (-1.9621957778930663e-05, 0.34375) (-1.0325017929077148e-05, 0.345703125) (-8.162899971008301e-06, 0.34765625) (-1.4599286079406738e-05, 0.349609375) (-3.0316467285156247e-05, 0.3515625) (-5.481636047363281e-05, 0.353515625) (-8.749008178710937e-05, 0.35546875) (-0.000126293701171875, 0.357421875) (-0.00016687603759765624, 0.359375) (-0.00020575372314453124, 0.361328125) (-0.00024071270751953124, 0.36328125) (-0.00026997540283203123, 0.365234375) (-0.00029308953857421876, 0.3671875) (-0.0003103062744140625, 0.369140625) (-0.00032184161376953125, 0.37109375) (-0.0003290375366210937, 0.373046875) (-0.00033434188842773436, 0.375) (-0.0003393280029296875, 0.376953125) (-0.00034491741943359374, 0.37890625) (-0.0003517037658691406, 0.380859375) (-0.0003595033264160156, 0.3828125) (-0.0003681595764160156, 0.384765625) (-0.00037770465087890625, 0.38671875) (-0.0003877507934570312, 0.388671875) (-0.00039768182373046875, 0.390625) (-0.0004072839660644531, 0.392578125) (-0.00041656454467773436, 0.39453125) (-0.00042563156127929685, 0.396484375) (-0.0004347782592773437, 0.3984375) (-0.0004440951538085937, 0.400390625) (-0.00045350354003906247, 0.40234375) (-0.0004629868469238281, 0.404296875) (-0.0004725262451171875, 0.40625) (-0.000482051513671875, 0.408203125) (-0.0004914602355957031, 0.41015625) (-0.0005006261596679687, 0.412109375) (-0.0005094116821289062, 0.4140625) (-0.0005177410888671874, 0.416015625) (-0.0005255883178710937, 0.41796875) (-0.0005329188232421875, 0.419921875) (-0.000539684326171875, 0.421875) (-0.0005458005981445312, 0.423828125) (-0.000551168701171875, 0.42578125) (-0.0005557054443359375, 0.427734375) (-0.0005593392944335938, 0.4296875) (-0.0005620140380859375, 0.431640625) (-0.0005636824340820312, 0.43359375) (-0.0005643092041015625, 0.435546875) (-0.000563876953125, 0.4375) (-0.0005623836669921875, 0.439453125) (-0.0005598347167968749, 0.44140625) (-0.0005562249755859375, 0.443359375) (-0.000551537841796875, 0.4453125) (-0.0005457481689453125, 0.447265625) (-0.0005388273925781249, 0.44921875) (-0.0005307472534179687, 0.451171875) (-0.0005214816284179688, 0.453125) (-0.0005110083923339844, 0.455078125) (-0.0004993099365234374, 0.45703125) (-0.000486379150390625, 0.458984375) (-0.00047222091674804686, 0.4609375) (-0.0004568478393554687, 0.462890625) (-0.00044027966308593747, 0.46484375) (-0.0004225400695800781, 0.466796875) (-0.0004036541137695312, 0.46875) (-0.0003836507568359375, 0.470703125) (-0.00036256451416015624, 0.47265625) (-0.0003404351196289062, 0.474609375) (-0.0003173062744140625, 0.4765625) (-0.00029322570800781246, 0.478515625) (-0.00026824560546874997, 0.48046875) (-0.00024242318725585936, 0.482421875) (-0.00021582289123535156, 0.484375) (-0.00018851588439941405, 0.486328125) (-0.0001605758056640625, 0.48828125) (-0.00013207730102539063, 0.490234375) (-0.00010309661865234374, 0.4921875) (-7.371094512939453e-05, 0.494140625) (-4.399840545654297e-05, 0.49609375) (-1.4037990570068359e-05, 0.498046875) (1.609209442138672e-05, 0.5) (4.631536102294922e-05, 0.501953125) (7.655425262451171e-05, 0.50390625) (0.00010672969055175781, 0.505859375) (0.0001367606658935547, 0.5078125) (0.00016656454467773438, 0.509765625) (0.00019605996704101563, 0.51171875) (0.00022516696166992187, 0.513671875) (0.00025380880737304684, 0.515625) (0.00028191308593749996, 0.517578125) (0.00030940899658203126, 0.51953125) (0.000336229248046875, 0.521484375) (0.00036231335449218746, 0.5234375) (0.000387606689453125, 0.525390625) (0.000412059814453125, 0.52734375) (0.0004356290283203125, 0.529296875) (0.00045827239990234374, 0.53125) (0.0004799492492675781, 0.533203125) (0.0005006279296875, 0.53515625) (0.0005202857666015625, 0.537109375) (0.000538904541015625, 0.5390625) (0.0005564722900390624, 0.541015625) (0.0005729857177734375, 0.54296875) (0.000588448486328125, 0.544921875) (0.000602876953125, 0.546875) (0.0006163002929687499, 0.548828125) (0.000628749267578125, 0.55078125) (0.0006402545166015625, 0.552734375) (0.0006508529052734374, 0.5546875) (0.0006605853271484375, 0.556640625) (0.00066949072265625, 0.55859375) (0.0006776077880859374, 0.560546875) (0.0006849680175781249, 0.5625) (0.0006915947875976562, 0.564453125) (0.0006975222778320313, 0.56640625) (0.000702796142578125, 0.568359375) (0.0007074708251953124, 0.5703125) (0.0007116126708984374, 0.572265625) (0.0007152932128906249, 0.57421875) (0.0007185866088867187, 0.576171875) (0.0007215772705078125, 0.578125) (0.0007243568725585937, 0.580078125) (0.0007270087280273437, 0.58203125) (0.0007296124267578125, 0.583984375) (0.0007322175903320313, 0.5859375) (0.0007348385620117188, 0.587890625) (0.0007375057983398437, 0.58984375) (0.000740258056640625, 0.591796875) (0.0007431600952148437, 0.59375) (0.0007463160400390625, 0.595703125) (0.0007497968749999999, 0.59765625) (0.000753626220703125, 0.599609375) (0.00075783447265625, 0.6015625) (0.0007624443359375, 0.603515625) (0.0007674271240234375, 0.60546875) (0.0007727310180664063, 0.607421875) (0.0007782039184570312, 0.609375) (0.00078358251953125, 0.611328125) (0.0007886742553710937, 0.61328125) (0.000793345458984375, 0.615234375) (0.0007975260009765625, 0.6171875) (0.0008012502441406249, 0.619140625) (0.0008045227661132812, 0.62109375) (0.0008073134155273437, 0.623046875) (0.0008095814208984375, 0.625) (0.0008112275390624999, 0.626953125) (0.0008121712646484375, 0.62890625) (0.0008124201049804688, 0.630859375) (0.000811947998046875, 0.6328125) (0.0008107174682617188, 0.634765625) (0.000808806640625, 0.63671875) (0.0008062648315429687, 0.638671875) (0.00080341162109375, 0.640625) (0.0008009609374999999, 0.642578125) (0.0007993173217773437, 0.64453125) (0.0007985435180664063, 0.646484375) (0.0007984111938476562, 0.6484375) (0.0007981918334960937, 0.650390625) (0.0007972760620117188, 0.65234375) (0.0007955631103515624, 0.654296875) (0.000792737060546875, 0.65625) (0.000788096923828125, 0.658203125) (0.0007816198730468749, 0.66015625) (0.0007738212890625, 0.662109375) (0.000765766357421875, 0.6640625) (0.0007595509033203124, 0.666015625) (0.0007555500488281249, 0.66796875) (0.0007519014892578125, 0.669921875) (0.000747475830078125, 0.671875) (0.000742211181640625, 0.673828125) (0.0007385950927734375, 0.67578125) (0.0007407210693359374, 0.677734375) (0.0007479616699218749, 0.6796875) (0.0007531965332031249, 0.681640625) (0.0007446986083984374, 0.68359375) (0.0007113923950195312, 0.685546875) (0.0006488280029296875, 0.6875) (0.0005611808471679687, 0.689453125) (0.00045919033813476563, 0.69140625) (0.00035194433593749996, 0.693359375) (0.0002468734436035156, 0.6953125) (0.00014949722290039062, 0.697265625) (6.0984352111816406e-05, 0.69921875) (-1.4815727233886718e-05, 0.701171875) (-7.774624633789062e-05, 0.703125) (-0.0001331217803955078, 0.705078125) (-0.00018463430786132813, 0.70703125) (-0.00023838549804687498, 0.708984375) (-0.0002964146728515625, 0.7109375) (-0.00035442260742187497, 0.712890625) (-0.00040970379638671875, 0.71484375) (-0.0004595096435546875, 0.716796875) (-0.0005027110290527344, 0.71875) (-0.0005414131469726562, 0.720703125) (-0.0005761864013671874, 0.72265625) (-0.0006063757324218749, 0.724609375) (-0.0006318157958984375, 0.7265625) (-0.0006521019287109375, 0.728515625) (-0.000667595458984375, 0.73046875) (-0.000679591552734375, 0.732421875) (-0.000688907470703125, 0.734375) (-0.000696033935546875, 0.736328125) (-0.0007014456787109375, 0.73828125) (-0.0007054071044921875, 0.740234375) (-0.0007082779541015625, 0.7421875) (-0.0007105094604492187, 0.744140625) (-0.000712442138671875, 0.74609375) (-0.0007144050903320312, 0.748046875) (-0.0007165956420898437, 0.75) (-0.0007190079345703124, 0.751953125) (-0.0007217001953124999, 0.75390625) (-0.00072475732421875, 0.755859375) (-0.0007281162109375, 0.7578125) (-0.0007316688232421875, 0.759765625) (-0.0007351051025390624, 0.76171875) (-0.0007378783569335938, 0.763671875) (-0.00073964697265625, 0.765625) (-0.0007402489624023437, 0.767578125) (-0.0007395751953124999, 0.76953125) (-0.0007376508178710937, 0.771484375) (-0.0007344390869140625, 0.7734375) (-0.0007298194580078125, 0.775390625) (-0.000723739990234375, 0.77734375) (-0.0007161743774414062, 0.779296875) (-0.000707118896484375, 0.78125) (-0.0006966361083984375, 0.783203125) (-0.0006847548828125, 0.78515625) (-0.00067147216796875, 0.787109375) (-0.0006568861694335938, 0.7890625) (-0.0006411559448242187, 0.791015625) (-0.0006245257568359375, 0.79296875) (-0.0006073500366210937, 0.794921875) (-0.00058988720703125, 0.796875) (-0.00057229541015625, 0.798828125) (-0.0005547210693359375, 0.80078125) (-0.0005372627563476562, 0.802734375) (-0.0005200171508789063, 0.8046875) (-0.0005031001281738281, 0.806640625) (-0.000486577392578125, 0.80859375) (-0.00047047174072265626, 0.810546875) (-0.0004548338317871094, 0.8125) (-0.000439728759765625, 0.814453125) (-0.0004252299194335937, 0.81640625) (-0.0004114294128417969, 0.818359375) (-0.00039838409423828124, 0.8203125) (-0.0003861189270019531, 0.822265625) (-0.0003746455688476562, 0.82421875) (-0.00036395364379882814, 0.826171875) (-0.0003540400390625, 0.828125) (-0.00034491400146484375, 0.830078125) (-0.00033658056640625, 0.83203125) (-0.00032904620361328123, 0.833984375) (-0.00032232476806640624, 0.8359375) (-0.00031643255615234375, 0.837890625) (-0.00031139508056640626, 0.83984375) (-0.00030724716186523435, 0.841796875) (-0.0003040059204101562, 0.84375) (-0.0003016712951660156, 0.845703125) (-0.00030023590087890624, 0.84765625) (-0.00029968246459960934, 0.849609375) (-0.0002999900207519531, 0.8515625) (-0.0003011339416503906, 0.853515625) (-0.00030308074951171875, 0.85546875) (-0.0003057911071777344, 0.857421875) (-0.00030923303222656247, 0.859375) (-0.0003133827514648437, 0.861328125) (-0.00031821484375, 0.86328125) (-0.0003237025756835937, 0.865234375) (-0.0003298110046386719, 0.8671875) (-0.00033649459838867185, 0.869140625) (-0.00034371282958984374, 0.87109375) (-0.0003514305419921875, 0.873046875) (-0.00035961151123046873, 0.875) (-0.00036822027587890625, 0.876953125) (-0.0003772164916992187, 0.87890625) (-0.0003865496215820312, 0.880859375) (-0.0003961693725585937, 0.8828125) (-0.00040603167724609373, 0.884765625) (-0.00041608966064453123, 0.88671875) (-0.00042628939819335936, 0.888671875) (-0.0004365564270019531, 0.890625) (-0.0004467940979003906, 0.892578125) (-0.00045690707397460936, 0.89453125) (-0.00046680139160156246, 0.896484375) (-0.0004764006652832031, 0.8984375) (-0.00048564953613281246, 0.900390625) (-0.000494465576171875, 0.90234375) (-0.0005027575378417969, 0.904296875) (-0.0005104271850585937, 0.90625) (-0.0005173353271484375, 0.908203125) (-0.0005233731689453124, 0.91015625) (-0.0005284903564453125, 0.912109375) (-0.0005326439208984374, 0.9140625) (-0.000535844482421875, 0.916015625) (-0.0005381543579101563, 0.91796875) (-0.00053957177734375, 0.919921875) (-0.0005401770629882812, 0.921875) (-0.0005402572021484375, 0.923828125) (-0.0005400212402343749, 0.92578125) (-0.0005396258544921875, 0.927734375) (-0.0005391402587890625, 0.9296875) (-0.0005382078247070313, 0.931640625) (-0.00053644482421875, 0.93359375) (-0.000533957763671875, 0.935546875) (-0.0005310172119140625, 0.9375) (-0.000527763671875, 0.939453125) (-0.0005245157470703124, 0.94140625) (-0.0005216753540039062, 0.943359375) (-0.000519912109375, 0.9453125) (-0.0005211126708984375, 0.947265625) (-0.0005277620849609375, 0.94921875) (-0.00054019970703125, 0.951171875) (-0.0005566978759765624, 0.953125) (-0.00057583984375, 0.955078125) (-0.0005958604736328125, 0.95703125) (-0.0006182421875, 0.958984375) (-0.0006483084716796875, 0.9609375) (-0.0006860068359375, 0.962890625) (-0.0007262412109375, 0.96484375) (-0.0007593686523437499, 0.966796875) (-0.0007709837036132812, 0.96875) (-0.0007532723999023437, 0.970703125) (-0.0007064183959960938, 0.97265625) (-0.0006364562377929687, 0.974609375) (-0.0005528128662109375, 0.9765625) (-0.00046216366577148436, 0.978515625) (-0.0003724710083007812, 0.98046875) (-0.0002923763732910156, 0.982421875) (-0.000233738037109375, 0.984375) (-0.0002132576904296875, 0.986328125) (-0.0002386312255859375, 0.98828125) (-0.0003083215942382812, 0.990234375) (-0.00041435348510742185, 0.9921875) (-0.0005397002563476563, 0.994140625) (-0.000668911376953125, 0.99609375) (-0.0007904617919921874, 0.998046875) (-0.0008897702026367187, 1.0) (-0.0009544378662109374, 1.001953125) (-0.0009785732421875, 1.00390625) (-0.0009630646972656249, 1.005859375) (-0.0009201507568359375, 1.0078125) (-0.0008678237304687499, 1.009765625) (-0.0008189957885742187, 1.01171875) (-0.0007797060546875, 1.013671875) (-0.0007490765380859375, 1.015625) (-0.0007230248413085937, 1.017578125) (-0.0007006616821289062, 1.01953125) (-0.0006834904785156249, 1.021484375) (-0.000674075927734375, 1.0234375) (-0.00067482958984375, 1.025390625) (-0.000684847412109375, 1.02734375) (-0.00070175390625, 1.029296875) (-0.0007226992187499999, 1.03125) (-0.0007439564208984375, 1.033203125) (-0.0007633975219726563, 1.03515625) (-0.00078008203125, 1.037109375) (-0.0007932861938476562, 1.0390625) (-0.0008031583862304687, 1.041015625) (-0.0008100709838867187, 1.04296875) (-0.0008142328491210937, 1.044921875) (-0.0008162603759765625, 1.046875) (-0.0008169860229492187, 1.048828125) (-0.0008167977294921874, 1.05078125) (-0.0008158763427734374, 1.052734375) (-0.0008142656860351562, 1.0546875) (-0.0008117513427734374, 1.056640625) (-0.0008082508544921875, 1.05859375) (-0.0008038016967773438, 1.060546875) (-0.0007983782348632813, 1.0625) (-0.0007919910278320312, 1.064453125) (-0.0007847219238281249, 1.06640625) (-0.0007766734008789062, 1.068359375) (-0.0007679962158203124, 1.0703125) (-0.000758875, 1.072265625) (-0.0007494405517578125, 1.07421875) (-0.0007397843017578125, 1.076171875) (-0.000729982177734375, 1.078125) (-0.00072008740234375, 1.080078125) (-0.00071015966796875, 1.08203125) (-0.0007002607421875, 1.083984375) (-0.0006904411621093749, 1.0859375) (-0.0006807446899414063, 1.087890625) (-0.000671202880859375, 1.08984375) (-0.0006618439331054687, 1.091796875) (-0.0006526937255859375, 1.09375) (-0.0006437704467773437, 1.095703125) (-0.000635093994140625, 1.09765625) (-0.00062668701171875, 1.099609375) (-0.0006185714721679687, 1.1015625) (-0.0006107740478515625, 1.103515625) (-0.0006033253173828125, 1.10546875) (-0.00059625537109375, 1.107421875) (-0.0005895966186523437, 1.109375) (-0.0005833813476562499, 1.111328125) (-0.0005776328125, 1.11328125) (-0.0005723673095703125, 1.115234375) (-0.0005675958251953124, 1.1171875) (-0.0005633220214843749, 1.119140625) (-0.0005595476074218749, 1.12109375) (-0.0005562702026367187, 1.123046875) (-0.0005534819335937499, 1.125) (-0.0005511708984375, 1.126953125) (-0.0005493205566406249, 1.12890625) (-0.0005479095458984375, 1.130859375) (-0.0005469124755859375, 1.1328125) (-0.0005462993164062499, 1.134765625) (-0.00054603515625, 1.13671875) (-0.0005460805664062499, 1.138671875) (-0.000546392333984375, 1.140625) (-0.0005469235229492187, 1.142578125) (-0.000547624755859375, 1.14453125) (-0.0005484447021484375, 1.146484375) (-0.0005493292846679688, 1.1484375) (-0.000550222412109375, 1.150390625) (-0.0005510658569335937, 1.15234375) (-0.0005517988281249999, 1.154296875) (-0.000552359130859375, 1.15625) (-0.0005526826782226562, 1.158203125) (-0.0005527040405273437, 1.16015625) (-0.0005523564453124999, 1.162109375) (-0.0005515723266601562, 1.1640625) (-0.0005502838134765625, 1.166015625) (-0.0005484229736328125, 1.16796875) (-0.000545922607421875, 1.169921875) (-0.0005427164916992187, 1.171875) (-0.0005387398681640624, 1.173828125) (-0.00053393017578125, 1.17578125) (-0.00052822705078125, 1.177734375) (-0.0005215730590820313, 1.1796875) (-0.0005139140624999999, 1.181640625) (-0.0005051996459960938, 1.18359375) (-0.0004953831787109375, 1.185546875) (-0.00048442221069335933, 1.1875) (-0.00047227862548828125, 1.189453125) (-0.00045891903686523435, 1.19140625) (-0.00044431454467773435, 1.193359375) (-0.00042844122314453123, 1.1953125) (-0.00041127978515625, 1.197265625) (-0.00039281616210937496, 1.19921875) (-0.00037304107666015626, 1.201171875) (-0.00035195019531249997, 1.203125) (-0.00032954403686523436, 1.205078125) (-0.000305828125, 1.20703125) (-0.0002808127746582031, 1.208984375) (-0.0002545130310058594, 1.2109375) (-0.00022694869995117188, 1.212890625) (-0.00019814414978027342, 1.21484375) (-0.00016812829589843748, 1.216796875) (-0.00013693449401855468, 1.21875) (-0.00010460038757324218, 1.220703125) (-7.116781616210938e-05, 1.22265625) (-3.668256378173828e-05, 1.224609375) (-1.1942465305328368e-06, 1.2265625) (3.524396514892578e-05, 1.228515625) (7.257556152343749e-05, 1.23046875) (0.00011074098968505858, 1.232421875) (0.00014967793273925782, 1.234375) (0.00018932164001464843, 1.236328125) (0.00022960520935058593, 1.23828125) (0.00027045993041992185, 1.240234375) (0.0003118154602050781, 1.2421875) (0.00035360031127929686, 1.244140625) (0.00039574179077148434, 1.24609375) (0.00043816650390625, 1.248046875) (0.0004808004150390625, 1.25) (0.0005235691528320312, 1.251953125) (0.0005663978881835937, 1.25390625) (0.0006092118530273438, 1.255859375) (0.0006519359130859375, 1.2578125) (0.0006944953613281249, 1.259765625) (0.000736815185546875, 1.26171875) (0.0007788206787109374, 1.263671875) (0.0008204371337890624, 1.265625) (0.0008615900268554687, 1.267578125) (0.0009022050170898438, 1.26953125) (0.0009422078857421874, 1.271484375) (0.0009815244140625, 1.2734375) (0.0010200804443359374, 1.275390625) (0.0010578024902343748, 1.27734375) (0.001094616455078125, 1.279296875) (0.001130448974609375, 1.28125) (0.0011652268066406248, 1.283203125) (0.001198877197265625, 1.28515625) (0.001231327392578125, 1.287109375) (0.001262505859375, 1.2890625) (0.001292341064453125, 1.291015625) (0.0013207625732421875, 1.29296875) (0.0013477010498046875, 1.294921875) (0.0013730881347656248, 1.296875) (0.0013968564453125, 1.298828125) (0.0014189406738281249, 1.30078125) (0.0014392763671875, 1.302734375) (0.0014578017578125, 1.3046875) (0.00147445703125, 1.306640625) (0.0014891844482421875, 1.30859375) (0.001501929443359375, 1.310546875) (0.0015126402587890624, 1.3125) (0.0015212690429687499, 1.314453125) (0.0015277708740234375, 1.31640625) (0.0015321055908203123, 1.318359375) (0.0015342373046875, 1.3203125) (0.001534135009765625, 1.322265625) (0.0015317730712890625, 1.32421875) (0.001527130859375, 1.326171875) (0.0015201943359375, 1.328125) (0.001510955078125, 1.330078125) (0.00149941162109375, 1.33203125) (0.0014855697021484374, 1.333984375) (0.001469441650390625, 1.3359375) (0.00145104736328125, 1.337890625) (0.00143041455078125, 1.33984375) (0.00140757861328125, 1.341796875) (0.0013825826416015625, 1.34375) (0.0013554774169921874, 1.345703125) (0.0013263221435546875, 1.34765625) (0.0012951832275390623, 1.349609375) (0.0012621350097656249, 1.3515625) (0.001227258544921875, 1.353515625) (0.001190643310546875, 1.35546875) (0.0011523846435546874, 1.357421875) (0.0011125845947265625, 1.359375) (0.0010713514404296874, 1.361328125) (0.0010287993164062499, 1.36328125) (0.000985047119140625, 1.365234375) (0.00094021875, 1.3671875) (0.0008944421386718749, 1.369140625) (0.000847848388671875, 1.37109375) (0.0008005718994140625, 1.373046875) (0.0007527486572265625, 1.375) (0.0007045165405273437, 1.376953125) (0.0006560140380859375, 1.37890625) (0.0006073797607421875, 1.380859375) (0.0005587515869140625, 1.3828125) (0.0005102661132812499, 1.384765625) (0.0004620578002929687, 1.38671875) (0.0004142584533691406, 1.388671875) (0.0003669963989257812, 1.390625) (0.00032039584350585936, 1.392578125) (0.00027457620239257813, 1.39453125) (0.00022965153503417968, 1.396484375) (0.00018572991943359375, 1.3984375) (0.00014291294860839843, 1.400390625) (0.00010129530334472656, 1.40234375) (6.096425628662109e-05, 1.404296875) (2.1999338150024414e-05, 1.40625) (-1.5527926445007324e-05, 1.408203125) (-5.1554195404052735e-05, 1.41015625) (-8.602445220947266e-05, 1.412109375) (-0.00011889213562011719, 1.4140625) (-0.00015011911010742187, 1.416015625) (-0.00017967575073242186, 1.41796875) (-0.00020754067993164062, 1.419921875) (-0.0002337007598876953, 1.421875) (-0.00025815075683593747, 1.423828125) (-0.0002808934326171875, 1.42578125) (-0.0003019387817382812, 1.427734375) (-0.00032130416870117186, 1.4296875) (-0.0003390137634277344, 1.431640625) (-0.0003550981750488281, 1.43359375) (-0.00036959396362304685, 1.435546875) (-0.00038254351806640623, 1.4375) (-0.00039399420166015623, 1.439453125) (-0.0004039981994628906, 1.44140625) (-0.0004126118774414062, 1.443359375) (-0.00041989562988281246, 1.4453125) (-0.0004259127502441406, 1.447265625) (-0.0004307296142578125, 1.44921875) (-0.000434414794921875, 1.451171875) (-0.00043703875732421874, 1.453125) (-0.00043867315673828125, 1.455078125) (-0.00043939038085937497, 1.45703125) (-0.00043926318359374997, 1.458984375) (-0.00043836413574218746, 1.4609375) (-0.00043676513671874997, 1.462890625) (-0.0004345370178222656, 1.46484375) (-0.00043174942016601563, 1.466796875) (-0.00042847003173828124, 1.46875) (-0.00042476470947265624, 1.470703125) (-0.00042069726562499996, 1.47265625) (-0.00041632904052734375, 1.474609375) (-0.00041171908569335937, 1.4765625) (-0.0004069237060546875, 1.478515625) (-0.0004019964599609375, 1.48046875) (-0.0003969884643554687, 1.482421875) (-0.00039194821166992186, 1.484375) (-0.00038692138671875, 1.486328125) (-0.0003819513244628906, 1.48828125) (-0.00037707830810546875, 1.490234375) (-0.0003723400268554687, 1.4921875) (-0.000367771484375, 1.494140625) (-0.0003634050903320312, 1.49609375) (-0.0003592705993652344, 1.498046875) (-0.0003553951721191406, 1.5) (-0.00035180270385742185, 1.501953125) (-0.0003485139770507812, 1.50390625) (-0.0003455471801757812, 1.505859375) (-0.00034291833496093746, 1.5078125) (-0.00034064093017578125, 1.509765625) (-0.00033872607421875, 1.51171875) (-0.000337181396484375, 1.513671875) (-0.0003360113830566406, 1.515625) (-0.0003352178955078125, 1.517578125) (-0.00033480029296874996, 1.51953125) (-0.0003347557678222656, 1.521484375) (-0.00033507873535156246, 1.5234375) (-0.0003357598266601562, 1.525390625) (-0.0003367861022949219, 1.52734375) (-0.00033814242553710934, 1.529296875) (-0.00033981152343749997, 1.53125) (-0.00034177548217773437, 1.533203125) (-0.00034401583862304685, 1.53515625) (-0.0003465093383789062, 1.537109375) (-0.000349228271484375, 1.5390625) (-0.00035214059448242187, 1.541015625) (-0.0003552106018066406, 1.54296875) (-0.0003584028930664062, 1.544921875) (-0.0003616810302734375, 1.546875) (-0.000365004638671875, 1.548828125) (-0.0003683290405273437, 1.55078125) (-0.000371606689453125, 1.552734375) (-0.00037479013061523435, 1.5546875) (-0.0003778369140625, 1.556640625) (-0.00038070916748046875, 1.55859375) (-0.00038336572265625, 1.560546875) (-0.0003857637023925781, 1.5625) (-0.00038785400390625, 1.564453125) (-0.0003895816955566406, 1.56640625) (-0.0003909013671875, 1.568359375) (-0.0003917733764648437, 1.5703125) (-0.0003921631164550781, 1.572265625) (-0.00039204083251953125, 1.57421875) (-0.00039136590576171874, 1.576171875) (-0.0003900928344726562, 1.578125) (-0.00038818145751953124, 1.580078125) (-0.0003855972595214844, 1.58203125) (-0.00038231066894531246, 1.583984375) (-0.00037828878784179685, 1.5859375) (-0.00037347937011718746, 1.587890625) (-0.00036781573486328124, 1.58984375) (-0.0003612374877929687, 1.591796875) (-0.0003536864624023437, 1.59375) (-0.0003451291809082031, 1.595703125) (-0.0003355578308105469, 1.59765625) (-0.00032494024658203123, 1.599609375) (-0.00031324139404296874, 1.6015625) (-0.00030040069580078123, 1.603515625) (-0.00028632244873046873, 1.60546875) (-0.00027098468017578125, 1.607421875) (-0.00025442431640625, 1.609375) (-0.0002367082824707031, 1.611328125) (-0.00021794485473632813, 1.61328125) (-0.00019819473266601562, 1.615234375) (-0.00017745785522460937, 1.6171875) (-0.00015585716247558593, 1.619140625) (-0.00013367819213867187, 1.62109375) (-0.0001111324234008789, 1.623046875) (-8.835797882080077e-05, 1.625) (-6.522651672363281e-05, 1.626953125) (-4.1262123107910157e-05, 1.62890625) (-1.6306842803955077e-05, 1.630859375) (9.343386650085449e-06, 1.6328125) (3.5252166748046876e-05, 1.634765625) (6.100275421142578e-05, 1.63671875) (8.62453155517578e-05, 1.638671875) (0.00011059962463378906, 1.640625) (0.00013300587463378906, 1.642578125) (0.00015145568847656248, 1.64453125) (0.0001643744659423828, 1.646484375) (0.000171337646484375, 1.6484375) (0.00017291778564453125, 1.650390625) (0.00017023184204101563, 1.65234375) (0.0001642556610107422, 1.654296875) (0.00015619723510742188, 1.65625) (0.0001484370574951172, 1.658203125) (0.00014502748107910157, 1.66015625) (0.00015037242126464843, 1.662109375) (0.00016633819580078125, 1.6640625) (0.00019155303955078123, 1.666015625) (0.00022416864013671874, 1.66796875) (0.00026261883544921876, 1.669921875) (0.00030783343505859373, 1.671875) (0.0003646248168945312, 1.673828125) (0.00043374993896484374, 1.67578125) (0.0005097138061523437, 1.677734375) (0.0005829034423828125, 1.6796875) (0.0006367880859375, 1.681640625) (0.0006559570922851562, 1.68359375) (0.0006358705444335938, 1.685546875) (0.0005776171875, 1.6875) (0.0004890894165039062, 1.689453125) (0.00038696115112304687, 1.69140625) (0.0002838898315429687, 1.693359375) (0.00019332257080078124, 1.6953125) (0.00013200802612304687, 1.697265625) (0.00010520205688476562, 1.69921875) (0.00011233073425292969, 1.701171875) (0.00014541091918945313, 1.703125) (0.00018577282714843748, 1.705078125) (0.00022153422546386718, 1.70703125) (0.0002478760986328125, 1.708984375) (0.0002647982177734375, 1.7109375) (0.0002785062255859375, 1.712890625) (0.00029110174560546874, 1.71484375) (0.00030088537597656247, 1.716796875) (0.0003057588500976562, 1.71875) (0.00030278549194335934, 1.720703125) (0.00029200723266601563, 1.72265625) (0.00027547262573242185, 1.724609375) (0.00025519007873535155, 1.7265625) (0.00023372329711914062, 1.728515625) (0.00021282052612304686, 1.73046875) (0.00019327061462402344, 1.732421875) (0.0001757486572265625, 1.734375) (0.0001603924102783203, 1.736328125) (0.00014691673278808594, 1.73828125) (0.00013512406921386717, 1.740234375) (0.0001246176300048828, 1.7421875) (0.00011481634521484375, 1.744140625) (0.0001054447021484375, 1.74609375) (9.637603759765624e-05, 1.748046875) (8.754340362548828e-05, 1.75) (7.906784057617187e-05, 1.751953125) (7.104078674316406e-05, 1.75390625) (6.347319412231445e-05, 1.755859375) (5.642207336425781e-05, 1.7578125) (4.993017196655273e-05, 1.759765625) (4.395628356933594e-05, 1.76171875) (3.8441833496093745e-05, 1.763671875) (3.3301795959472654e-05, 1.765625) (2.8419439315795896e-05, 1.767578125) (2.3725543975830076e-05, 1.76953125) (1.9178287506103514e-05, 1.771484375) (1.4744136810302734e-05, 1.7734375) (1.0411425590515136e-05, 1.775390625) (6.163074016571044e-06, 1.77734375) (1.982863426208496e-06, 1.779296875) (-2.1322054862976075e-06, 1.78125) (-6.179330825805664e-06, 1.783203125) (-1.0147675514221191e-05, 1.78515625) (-1.4022426605224608e-05, 1.787109375) (-1.7789413452148435e-05, 1.7890625) (-2.142955780029297e-05, 1.791015625) (-2.4918643951416016e-05, 1.79296875) (-2.8234279632568356e-05, 1.794921875) (-3.135525512695313e-05, 1.796875) (-3.426357269287109e-05, 1.798828125) (-3.6948768615722656e-05, 1.80078125) (-3.940201950073242e-05, 1.802734375) (-4.161709594726562e-05, 1.8046875) (-4.3591583251953126e-05, 1.806640625) (-4.531948852539062e-05, 1.80859375) (-4.679306411743164e-05, 1.810546875) (-4.800492477416992e-05, 1.8125) (-4.894652938842773e-05, 1.814453125) (-4.9611225128173824e-05, 1.81640625) (-4.9994407653808594e-05, 1.818359375) (-5.009175109863281e-05, 1.8203125) (-4.9900512695312494e-05, 1.822265625) (-4.942041397094726e-05, 1.82421875) (-4.865267181396484e-05, 1.826171875) (-4.7600395202636714e-05, 1.828125) (-4.6268493652343746e-05, 1.830078125) (-4.466252899169921e-05, 1.83203125) (-4.278956604003906e-05, 1.833984375) (-4.065845108032226e-05, 1.8359375) (-3.8279506683349605e-05, 1.837890625) (-3.566542053222656e-05, 1.83984375) (-3.283109283447266e-05, 1.841796875) (-2.979305648803711e-05, 1.84375) (-2.656955337524414e-05, 1.845703125) (-2.3180055618286132e-05, 1.84765625) (-1.9644886016845704e-05, 1.849609375) (-1.5985102653503418e-05, 1.8515625) (-1.2222187042236328e-05, 1.853515625) (-8.377519607543945e-06, 1.85546875) (-4.4721894264221186e-06, 1.857421875) (-5.267835855484008e-07, 1.859375) (3.4388601779937743e-06, 1.861328125) (7.4057235717773435e-06, 1.86328125) (1.1355779647827147e-05, 1.865234375) (1.5272209167480468e-05, 1.8671875) (1.9139511108398437e-05, 1.869140625) (2.294362640380859e-05, 1.87109375) (2.6672058105468748e-05, 1.873046875) (3.0313995361328122e-05, 1.875) (3.386041641235352e-05, 1.876953125) (3.730421066284179e-05, 1.87890625) (4.064026641845703e-05, 1.880859375) (4.386550903320312e-05, 1.8828125) (4.697895050048828e-05, 1.884765625) (4.9981689453125e-05, 1.88671875) (5.287689208984375e-05, 1.888671875) (5.566975402832031e-05, 1.890625) (5.836738586425781e-05, 1.892578125) (6.097870635986328e-05, 1.89453125) (6.351432800292968e-05, 1.896484375) (6.598638153076171e-05, 1.8984375) (6.840835571289062e-05, 1.900390625) (7.079493713378905e-05, 1.90234375) (7.316178131103516e-05, 1.904296875) (7.552521514892578e-05, 1.90625) (7.790202331542968e-05, 1.908203125) (8.030915069580077e-05, 1.91015625) (8.2763427734375e-05, 1.912109375) (8.528124237060546e-05, 1.9140625) (8.787821960449218e-05, 1.916015625) (9.056892395019531e-05, 1.91796875) (9.336654663085937e-05, 1.919921875) (9.628272247314453e-05, 1.921875) (9.932729339599609e-05, 1.923828125) (0.00010250810241699218, 1.92578125) (0.00010583085632324218, 1.927734375) (0.00010929893493652343, 1.9296875) (0.00011291335296630859, 1.931640625) (0.00011667263793945312, 1.93359375) (0.00012057284545898437, 1.935546875) (0.00012460743713378907, 1.9375) (0.0001287672424316406, 1.939453125) (0.00013304049682617188, 1.94140625) (0.00013741281127929687, 1.943359375) (0.00014186737060546873, 1.9453125) (0.00014638482666015623, 1.947265625) (0.00015094363403320312, 1.94921875) (0.00015552008056640625, 1.951171875) (0.00016008839416503906, 1.953125) (0.00016462112426757813, 1.955078125) (0.00016908920288085936, 1.95703125) (0.0001734622802734375, 1.958984375) (0.00017770896911621092, 1.9609375) (0.00018179701232910156, 1.962890625) (0.00018569349670410155, 1.96484375) (0.00018936532592773436, 1.966796875) (0.00019277943420410157, 1.96875) (0.00019590306091308592, 1.970703125) (0.00019870411682128907, 1.97265625) (0.00020115153503417967, 1.974609375) (0.000203215576171875, 1.9765625) (0.00020486822509765623, 1.978515625) (0.00020608349609374998, 1.98046875) (0.00020683773803710937, 1.982421875) (0.0002071098937988281, 1.984375) (0.0002068817901611328, 1.986328125) (0.0002061382141113281, 1.98828125) (0.0002048673095703125, 1.990234375) (0.00020306060791015624, 1.9921875) (0.00020071322631835936, 1.994140625) (0.00019782398986816405, 1.99609375) (0.00019439541625976563, 1.998046875) (0.00019043389892578125, 2.0) (0.00018594976806640624, 2.001953125) (0.000180957275390625, 2.00390625) (0.00017547459411621093, 2.005859375) (0.0001695238037109375, 2.0078125) (0.00016313067626953125, 2.009765625) (0.0001563247528076172, 2.01171875) (0.00014913902282714844, 2.013671875) (0.00014160989379882811, 2.015625) (0.00013377700805664063, 2.017578125) (0.0001256829376220703, 2.01953125) (0.00011737301635742188, 2.021484375) (0.00010889506530761718, 2.0234375) (0.00010029920959472655, 2.025390625) (9.163760375976562e-05, 2.02734375) (8.2964111328125e-05, 2.029296875) (7.433396911621094e-05, 2.03125) (6.580345153808594e-05, 2.033203125) (5.7429508209228513e-05, 2.03515625) (4.9269447326660155e-05, 2.037109375) (4.138052368164062e-05, 2.0390625) (3.381957244873047e-05, 2.041015625) (2.664261436462402e-05, 2.04296875) (1.9904470443725586e-05, 2.044921875) (1.3658445358276367e-05, 2.046875) (7.956025123596191e-06, 2.048828125) (2.846548557281494e-06, 2.05078125) (-1.6230970621109009e-06, 2.052734375) (-5.408785343170166e-06, 2.0546875) (-8.469426155090332e-06, 2.056640625) (-1.0767193794250487e-05, 2.05859375) (-1.2267744064331054e-05, 2.060546875) (-1.2940448760986328e-05, 2.0625) (-1.275861358642578e-05, 2.064453125) (-1.1699679374694824e-05, 2.06640625) (-9.745378494262695e-06, 2.068359375) (-6.881841659545898e-06, 2.0703125) (-3.0996742248535155e-06, 2.072265625) (1.6059585809707642e-06, 2.07421875) (7.2352671623229975e-06, 2.076171875) (1.3783790588378905e-05, 2.078125) (2.124239730834961e-05, 2.080078125) (2.9597330093383787e-05, 2.08203125) (3.883026123046875e-05, 2.083984375) (4.891835784912109e-05, 2.0859375) (5.98343391418457e-05, 2.087890625) (7.154660034179687e-05, 2.08984375) (8.401929473876953e-05, 2.091796875) (9.7212646484375e-05, 2.09375) (0.00011108303833007812, 2.095703125) (0.0001255833282470703, 2.09765625) (0.00014066305541992187, 2.099609375) (0.00015626864624023436, 2.1015625) (0.00017234384155273436, 2.103515625) (0.000188829833984375, 2.10546875) (0.00020566578674316406, 2.107421875) (0.00022278903198242188, 2.109375) (0.00024013543701171874, 2.111328125) (0.00025763967895507813, 2.11328125) (0.0002752355651855469, 2.115234375) (0.0002928565063476562, 2.1171875) (0.00031043585205078124, 2.119140625) (0.00032790692138671875, 2.12109375) (0.00034520382690429686, 2.123046875) (0.00036226135253906246, 2.125) (0.00037901544189453124, 2.126953125) (0.0003954035949707031, 2.12890625) (0.00041136517333984374, 2.130859375) (0.0004268415832519531, 2.1328125) (0.0004417767333984375, 2.134765625) (0.00045611706542968746, 2.13671875) (0.0004698120422363281, 2.138671875) (0.00048281427001953123, 2.140625) (0.0004950799560546875, 2.142578125) (0.0005065687255859375, 2.14453125) (0.0005172440185546874, 2.146484375) (0.000527073486328125, 2.1484375) (0.000536028564453125, 2.150390625) (0.0005440851440429688, 2.15234375) (0.0005512236328125, 2.154296875) (0.0005574287719726563, 2.15625) (0.0005626900024414063, 2.158203125) (0.0005670010986328124, 2.16015625) (0.0005703604736328124, 2.162109375) (0.0005727713623046875, 2.1640625) (0.0005742411499023438, 2.166015625) (0.000574781982421875, 2.16796875) (0.0005744098510742187, 2.169921875) (0.000573145263671875, 2.171875) (0.00057101220703125, 2.173828125) (0.0005680388793945312, 2.17578125) (0.0005642567138671874, 2.177734375) (0.0005597005004882812, 2.1796875) (0.000554407958984375, 2.181640625) (0.0005484193115234374, 2.18359375) (0.0005417772216796874, 2.185546875) (0.0005345266723632813, 2.1875) (0.000526714599609375, 2.189453125) (0.00051838916015625, 2.19140625) (0.0005095998535156249, 2.193359375) (0.0005003966674804687, 2.1953125) (0.0004908305358886718, 2.197265625) (0.0004809527587890625, 2.19921875) (0.00047081506347656246, 2.201171875) (0.0004604683837890625, 2.203125) (0.00044996234130859373, 2.205078125) (0.0004393453674316406, 2.20703125) (0.0004286641235351562, 2.208984375) (0.00041796405029296874, 2.2109375) (0.00040728936767578123, 2.212890625) (0.0003966817932128906, 2.21484375) (0.00038618035888671876, 2.216796875) (0.0003758216857910156, 2.21875) (0.00036563961791992184, 2.220703125) (0.00035566619873046875, 2.22265625) (0.0003459318237304687, 2.224609375) (0.000336462890625, 2.2265625) (0.00032728173828125, 2.228515625) (0.00031840570068359373, 2.23046875) (0.0003098465881347656, 2.232421875) (0.0003016146545410156, 2.234375) (0.00029371923828125, 2.236328125) (0.00028616720581054687, 2.23828125) (0.00027896249389648437, 2.240234375) (0.0002721042785644531, 2.2421875) (0.00026558673095703123, 2.244140625) (0.0002594029846191406, 2.24609375) (0.0002535461120605469, 2.248046875) (0.00024800436401367187, 2.25) (0.00024276037597656248, 2.251953125) (0.00023778839111328123, 2.25390625) (0.00023305374145507813, 2.255859375) (0.00022852174377441405, 2.2578125) (0.00022415869140624998, 2.259765625) (0.00021993402099609375, 2.26171875) (0.0002158206787109375, 2.263671875) (0.00021178469848632812, 2.265625) (0.00020778472900390623, 2.267578125) (0.00020377622985839842, 2.26953125) (0.00019971543884277342, 2.271484375) (0.00019556658935546874, 2.2734375) (0.00019130201721191404, 2.275390625) (0.0001868909454345703, 2.27734375) (0.00018229754638671874, 2.279296875) (0.00017749403381347656, 2.28125) (0.00017246499633789063, 2.283203125) (0.00016721878051757812, 2.28515625) (0.00016178567504882813, 2.287109375) (0.00015619427490234374, 2.2890625) (0.00015046990966796874, 2.291015625) (0.00014462081909179687, 2.29296875) (0.00013864251708984375, 2.294921875) (0.00013255551147460938, 2.296875) (0.00012639813995361327, 2.298828125) (0.00012024009704589843, 2.30078125) (0.00011417801666259766, 2.302734375) (0.00010825955200195312, 2.3046875) (0.00010249456787109375, 2.306640625) (9.68887939453125e-05, 2.30859375) (9.141480255126953e-05, 2.310546875) (8.606202697753906e-05, 2.3125) (8.086711120605468e-05, 2.314453125) (7.572150421142577e-05, 2.31640625) (7.037419128417969e-05, 2.318359375) (6.469102478027344e-05, 2.3203125) (5.8578849792480464e-05, 2.322265625) (5.219386291503906e-05, 2.32421875) (4.6104057312011715e-05, 2.326171875) (4.056158447265625e-05, 2.328125) (3.5354995727539064e-05, 2.330078125) (3.0319259643554685e-05, 2.33203125) (2.5270355224609375e-05, 2.333984375) (1.9926469802856444e-05, 2.3359375) (1.4285649299621581e-05, 2.337890625) (7.461382865905761e-06, 2.33984375) (-2.8486127853393555e-06, 2.341796875) (-1.8110233306884765e-05, 2.34375) (-3.8630268096923826e-05, 2.345703125) (-6.331052017211914e-05, 2.34765625) (-8.939329528808594e-05, 2.349609375) (-0.00011461222839355469, 2.3515625) (-0.00013847866821289063, 2.353515625) (-0.0001624530334472656, 2.35546875) (-0.00018710635375976563, 2.357421875) (-0.00021138978576660156, 2.359375) (-0.0002324678192138672, 2.361328125) (-0.0002413834533691406, 2.36328125) (-0.00022892863464355468, 2.365234375) (-0.00019025401306152343, 2.3671875) (-0.00012217918395996094, 2.369140625) (-3.1867769241333004e-05, 2.37109375) (6.468121337890625e-05, 2.373046875) (0.00015230490112304687, 2.375) (0.0002135465393066406, 2.376953125) (0.0002353196563720703, 2.37890625) (0.00021627235412597655, 2.380859375) (0.00016041311645507812, 2.3828125) (7.633268737792968e-05, 2.384765625) (-2.2857574462890622e-05, 2.38671875) (-0.00012595028686523436, 2.388671875) (-0.00022302890014648438, 2.390625) (-0.00030097076416015623, 2.392578125) (-0.00034822479248046873, 2.39453125) (-0.0003593052978515625, 2.396484375) (-0.00033560809326171876, 2.3984375) (-0.00028876953124999996, 2.400390625) (-0.00023513009643554687, 2.40234375) (-0.00018613746643066404, 2.404296875) (-0.0001467583312988281, 2.40625) (-0.00011552958679199218, 2.408203125) (-8.822753143310547e-05, 2.41015625) (-6.374789428710937e-05, 2.412109375) (-4.3385047912597655e-05, 2.4140625) (-2.9545963287353515e-05, 2.416015625) (-2.4553646087646484e-05, 2.41796875) (-2.7793056488037107e-05, 2.419921875) (-3.732028198242187e-05, 2.421875) (-5.0829982757568355e-05, 2.423828125) (-6.530435943603516e-05, 2.42578125) (-7.90499267578125e-05, 2.427734375) (-9.134358978271484e-05, 2.4296875) (-0.00010160482025146484, 2.431640625) (-0.0001099553985595703, 2.43359375) (-0.00011671261596679687, 2.435546875) (-0.00012204611206054687, 2.4375) (-0.00012643811798095702, 2.439453125) (-0.00013054159545898436, 2.44140625) (-0.00013463967895507812, 2.443359375) (-0.0001388454132080078, 2.4453125) (-0.00014316485595703123, 2.447265625) (-0.00014738595581054688, 2.44921875) (-0.00015138885498046874, 2.451171875) (-0.0001551465606689453, 2.453125) (-0.00015857656860351562, 2.455078125) (-0.00016162179565429687, 2.45703125) (-0.00016428514099121094, 2.458984375) (-0.00016658294677734375, 2.4609375) (-0.0001685655517578125, 2.462890625) (-0.00017030966186523436, 2.46484375) (-0.00017184640502929688, 2.466796875) (-0.0001731739807128906, 2.46875) (-0.00017427923583984375, 2.470703125) (-0.00017513018798828123, 2.47265625) (-0.00017569992065429686, 2.474609375) (-0.00017596388244628906, 2.4765625) (-0.00017588925170898437, 2.478515625) (-0.00017543930053710936, 2.48046875) (-0.00017457055664062498, 2.482421875) (-0.0001732399444580078, 2.484375) (-0.0001714059600830078, 2.486328125) (-0.00016902490234375, 2.48828125) (-0.00016605885314941406, 2.490234375) (-0.00016247669982910156, 2.4921875) (-0.0001582530059814453, 2.494140625) (-0.00015337213134765623, 2.49609375) (-0.00014782809448242188, 2.498046875) (-0.0001416212158203125, 2.5) (-0.00013476072692871093, 2.501953125) (-0.00012726312255859374, 2.50390625) (-0.00011914511108398438, 2.505859375) (-0.00011042535400390624, 2.5078125) (-0.0001011256866455078, 2.509765625) (-9.126988220214843e-05, 2.51171875) (-8.088718414306641e-05, 2.513671875) (-7.001113128662109e-05, 2.515625) (-5.867766952514648e-05, 2.517578125) (-4.692626953125e-05, 2.51953125) (-3.479918670654297e-05, 2.521484375) (-2.234088897705078e-05, 2.5234375) (-9.598408699035644e-06, 2.525390625) (3.379485607147217e-06, 2.52734375) (1.6543174743652342e-05, 2.529296875) (2.9841714859008788e-05, 2.53125) (4.322310256958008e-05, 2.533203125) (5.66345100402832e-05, 2.53515625) (7.002139282226563e-05, 2.537109375) (8.332801818847656e-05, 2.5390625) (9.649809265136718e-05, 2.541015625) (0.0001094748077392578, 2.54296875) (0.00012220164489746093, 2.544921875) (0.00013462275695800782, 2.546875) (0.0001466830596923828, 2.548828125) (0.00015832875061035155, 2.55078125) (0.00016950794982910155, 2.552734375) (0.00018017071533203124, 2.5546875) (0.00019026971435546873, 2.556640625) (0.00019976023864746092, 2.55859375) (0.0002086004943847656, 2.560546875) (0.00021675178527832031, 2.5625) (0.00022417874145507811, 2.564453125) (0.0002308494110107422, 2.56640625) (0.00023673532104492186, 2.568359375) (0.0002418116455078125, 2.5703125) (0.00024605712890625, 2.572265625) (0.0002494541015625, 2.57421875) (0.0002519884338378906, 2.576171875) (0.0002536494140625, 2.578125) (0.00025442977905273435, 2.580078125) (0.00025432556152343746, 2.58203125) (0.0002533359375, 2.583984375) (0.0002514632415771484, 2.5859375) (0.00024871270751953124, 2.587890625) (0.0002450924835205078, 2.58984375) (0.00024061337280273436, 2.591796875) (0.00023528892517089842, 2.59375) (0.00022913517761230469, 2.595703125) (0.00022217059326171874, 2.59765625) (0.0002144159698486328, 2.599609375) (0.000205894287109375, 2.6015625) (0.000196630615234375, 2.603515625) (0.0001866519775390625, 2.60546875) (0.00017598707580566405, 2.607421875) (0.00016466629028320313, 2.609375) (0.0001527213134765625, 2.611328125) (0.00014018505859375, 2.61328125) (0.00012709143066406248, 2.615234375) (0.00011347502136230469, 2.6171875) (9.937098693847656e-05, 2.619140625) (8.481477355957031e-05, 2.62109375) (6.984190368652344e-05, 2.623046875) (5.448780822753906e-05, 2.625) (3.878763198852539e-05, 2.626953125) (2.277612495422363e-05, 2.62890625) (6.48753547668457e-06, 2.630859375) (-1.0044493675231934e-05, 2.6328125) (-2.6786943435668944e-05, 2.634765625) (-4.3707450866699214e-05, 2.63671875) (-6.077428436279297e-05, 2.638671875) (-7.795631408691405e-05, 2.640625) (-9.522293090820312e-05, 2.642578125) (-0.00011254399871826172, 2.64453125) (-0.00012988983154296874, 2.646484375) (-0.00014723106384277343, 2.6484375) (-0.00016453866577148437, 2.650390625) (-0.00018178379821777343, 2.65234375) (-0.00019893791198730468, 2.654296875) (-0.00021597267150878904, 2.65625) (-0.0002328598937988281, 2.658203125) (-0.00024957171630859374, 2.66015625) (-0.00026608047485351564, 2.662109375) (-0.00028235888671875, 2.6640625) (-0.0002983799438476562, 2.666015625) (-0.0003141170654296875, 2.66796875) (-0.0003295440979003906, 2.669921875) (-0.00034463540649414063, 2.671875) (-0.00035936584472656246, 2.673828125) (-0.0003737108764648437, 2.67578125) (-0.0003876464233398437, 2.677734375) (-0.0004011490478515625, 2.6796875) (-0.00041419589233398433, 2.681640625) (-0.0004267646484375, 2.68359375) (-0.00043883352661132813, 2.685546875) (-0.0004503813781738281, 2.6875) (-0.00046138769531249997, 2.689453125) (-0.00047183251953125, 2.69140625) (-0.0004816967163085937, 2.693359375) (-0.0004909617919921875, 2.6953125) (-0.0004996103210449218, 2.697265625) (-0.0005076259155273438, 2.69921875) (-0.0005149935302734375, 2.701171875) (-0.0005216993408203124, 2.703125) (-0.0005277312622070312, 2.705078125) (-0.0005330789794921874, 2.70703125) (-0.000537734130859375, 2.708984375) (-0.000541690673828125, 2.7109375) (-0.00054494482421875, 2.712890625) (-0.0005474953002929687, 2.71484375) (-0.0005493434448242187, 2.716796875) (-0.0005504934082031249, 2.71875) (-0.0005509521484375, 2.720703125) (-0.0005507296142578125, 2.72265625) (-0.00054983837890625, 2.724609375) (-0.0005482941284179687, 2.7265625) (-0.0005461150512695313, 2.728515625) (-0.0005433223876953124, 2.73046875) (-0.0005399397583007812, 2.732421875) (-0.0005359937744140625, 2.734375) (-0.00053151318359375, 2.736328125) (-0.0005265294189453124, 2.73828125) (-0.000521076171875, 2.740234375) (-0.0005151891479492187, 2.7421875) (-0.0005089066162109375, 2.744140625) (-0.0005022686157226562, 2.74609375) (-0.0004953172302246093, 2.748046875) (-0.0004880960083007812, 2.75) (-0.0004806500549316406, 2.751953125) (-0.00047302575683593747, 2.75390625) (-0.0004652705078125, 2.755859375) (-0.0004574324951171875, 2.7578125) (-0.000449560302734375, 2.759765625) (-0.00044170263671874997, 2.76171875) (-0.0004339080200195312, 2.763671875) (-0.0004262243041992187, 2.765625) (-0.00041869866943359374, 2.767578125) (-0.00041137689208984375, 2.76953125) (-0.00040430322265625, 2.771484375) (-0.00039751977539062496, 2.7734375) (-0.00039106640625, 2.775390625) (-0.0003849798278808594, 2.77734375) (-0.00037929403686523435, 2.779296875) (-0.00037403942871093747, 2.78125) (-0.00036924285888671873, 2.783203125) (-0.00036492724609375, 2.78515625) (-0.000361111572265625, 2.787109375) (-0.00035781097412109376, 2.7890625) (-0.00035503649902343746, 2.791015625) (-0.00035279547119140625, 2.79296875) (-0.0003510907592773437, 2.794921875) (-0.0003499205322265625, 2.796875) (-0.00034927902221679684, 2.798828125) (-0.00034915655517578126, 2.80078125) (-0.0003495386047363281, 2.802734375) (-0.000350406494140625, 2.8046875) (-0.0003517365417480469, 2.806640625) (-0.00035349945068359375, 2.80859375) (-0.0003556646728515625, 2.810546875) (-0.0003582008666992187, 2.8125) (-0.00036107275390624997, 2.814453125) (-0.00036424188232421874, 2.81640625) (-0.0003676670532226562, 2.818359375) (-0.0003713018798828125, 2.8203125) (-0.00037510076904296875, 2.822265625) (-0.00037902313232421873, 2.82421875) (-0.0003830156555175781, 2.826171875) (-0.0003870126037597656, 2.828125) (-0.00039095330810546875, 2.830078125) (-0.000394779296875, 2.83203125) (-0.0003984416809082031, 2.833984375) (-0.0004019120178222656, 2.8359375) (-0.0004051581115722656, 2.837890625) (-0.00040813122558593746, 2.83984375) (-0.0004108263854980469, 2.841796875) (-0.00041328680419921873, 2.84375) (-0.0004155309143066406, 2.845703125) (-0.0004175595703125, 2.84765625) (-0.00041935906982421873, 2.849609375) (-0.0004208685302734375, 2.8515625) (-0.0004220321655273437, 2.853515625) (-0.0004228636474609375, 2.85546875) (-0.0004232427978515625, 2.857421875) (-0.0004228316650390625, 2.859375) (-0.0004215614624023437, 2.861328125) (-0.00041961895751953124, 2.86328125) (-0.00041701239013671875, 2.865234375) (-0.0004139853515625, 2.8671875) (-0.0004101416320800781, 2.869140625) (-0.0004040066223144531, 2.87109375) (-0.0003959757080078125, 2.873046875) (-0.0003877262268066406, 2.875) (-0.00038200622558593746, 2.876953125) (-0.00038369967651367184, 2.87890625) (-0.0003934481506347656, 2.880859375) (-0.0004079278564453125, 2.8828125) (-0.00042166021728515626, 2.884765625) (-0.00042573199462890625, 2.88671875) (-0.00041653283691406247, 2.888671875) (-0.0003958265686035156, 2.890625) (-0.00036948367309570313, 2.892578125) (-0.0003485867919921875, 2.89453125) (-0.0003398038024902344, 2.896484375) (-0.00034550973510742185, 2.8984375) (-0.00036287268066406247, 2.900390625) (-0.00038274426269531246, 2.90234375) (-0.00039893087768554683, 2.904296875) (-0.0004076622619628906, 2.90625) (-0.0004090416259765625, 2.908203125) (-0.0004083096313476562, 2.91015625) (-0.00040881030273437496, 2.912109375) (-0.0004124822387695312, 2.9140625) (-0.00041989080810546874, 2.916015625) (-0.0004291752319335937, 2.91796875) (-0.0004394651489257812, 2.919921875) (-0.00045076416015625, 2.921875) (-0.0004629747619628906, 2.923828125) (-0.0004763953857421875, 2.92578125) (-0.0004910403442382812, 2.927734375) (-0.000506546630859375, 2.9296875) (-0.0005227335205078125, 2.931640625) (-0.0005395115966796874, 2.93359375) (-0.0005567486572265625, 2.935546875) (-0.0005743382568359375, 2.9375) (-0.0005921790771484375, 2.939453125) (-0.00061016015625, 2.94140625) (-0.00062819189453125, 2.943359375) (-0.0006462001953125, 2.9453125) (-0.0006640756835937499, 2.947265625) (-0.0006816864624023438, 2.94921875) (-0.0006989229736328124, 2.951171875) (-0.0007156815795898437, 2.953125) (-0.0007318509521484375, 2.955078125) (-0.0007473185424804687, 2.95703125) (-0.0007619674072265625, 2.958984375) (-0.0007756757202148437, 2.9609375) (-0.0007883203125, 2.962890625) (-0.0007997706298828125, 2.96484375) (-0.0008098938598632812, 2.966796875) (-0.0008186436767578124, 2.96875) (-0.0008260922851562499, 2.970703125) (-0.0008323006591796875, 2.97265625) (-0.0008372373046875, 2.974609375) (-0.000840767333984375, 2.9765625) (-0.000842636962890625, 2.978515625) (-0.0008426496582031249, 2.98046875) (-0.0008407957153320312, 2.982421875) (-0.0008368094482421875, 2.984375) (-0.00082998828125, 2.986328125) (-0.0008199591064453125, 2.98828125) (-0.000806772705078125, 2.990234375) (-0.000790700927734375, 2.9921875) (-0.00077286474609375, 2.994140625) (-0.0007533456420898437, 2.99609375) (-0.00073045068359375, 2.998046875) (-0.0007048226928710937, 3.0) (-0.000678389892578125, 3.001953125) (-0.00065381787109375, 3.00390625) (-0.0006359446411132812, 3.005859375) (-0.0006227838134765625, 3.0078125) (-0.0006072455444335938, 3.009765625) (-0.0005835908203124999, 3.01171875) (-0.0005441285400390625, 3.013671875) (-0.0004888142395019531, 3.015625) (-0.00042230462646484373, 3.017578125) (-0.00034483187866210936, 3.01953125) (-0.00026152990722656247, 3.021484375) (-0.00017659440612792968, 3.0234375) (-9.5513427734375e-05, 3.025390625) (-3.214290237426758e-05, 3.02734375) (6.7628684043884275e-06, 3.029296875) (1.9674396514892577e-05, 3.03125) (7.381740570068359e-06, 3.033203125) (-2.078862190246582e-05, 3.03515625) (-5.7093078613281246e-05, 3.037109375) (-9.623800659179687e-05, 3.0390625) (-0.00012692858123779295, 3.041015625) (-0.0001369979248046875, 3.04296875) (-0.00011902321624755859, 3.044921875) (-6.771939086914062e-05, 3.046875) (1.3045852661132812e-05, 3.048828125) (0.00010921618652343749, 3.05078125) (0.00021194923400878906, 3.052734375) (0.0003164263000488281, 3.0546875) (0.0004210908203125, 3.056640625) (0.000532902587890625, 3.05859375) (0.000654607421875, 3.060546875) (0.0007803432617187499, 3.0625) (0.0008988261718749999, 3.064453125) (0.0009921796875, 3.06640625) (0.0010417512207031249, 3.068359375) (0.0010356998291015625, 3.0703125) (0.0009736552734375, 3.072265625) (0.0008635682373046875, 3.07421875) (0.0007197830200195313, 3.076171875) (0.0005614706420898438, 3.078125) (0.0004049996337890625, 3.080078125) (0.0002657728271484375, 3.08203125) (0.00016030335998535155, 3.083984375) (9.974699401855469e-05, 3.0859375) (8.732593536376953e-05, 3.087890625) (0.00011849102783203125, 3.08984375) (0.00017777996826171875, 3.091796875) (0.0002455919494628906, 3.09375) (0.00030721417236328124, 3.095703125) (0.00035139141845703123, 3.09765625) (0.00037438754272460935, 3.099609375) (0.0003755916748046875, 3.1015625) (0.00035354168701171875, 3.103515625) (0.0003109781494140625, 3.10546875) (0.00024834791564941404, 3.107421875) (0.00016981217956542967, 3.109375) (8.65771484375e-05, 3.111328125) (9.491739273071289e-06, 3.11328125) (-4.471653747558593e-05, 3.115234375) (-6.207023620605468e-05, 3.1171875) (-4.256942749023437e-05, 3.119140625) (5.174057006835937e-06, 3.12109375) (6.511146545410157e-05, 3.123046875) (0.00012180883789062499, 3.125) (0.0001726095428466797, 3.126953125) (0.0002234444122314453, 3.12890625) (0.00027851275634765624, 3.130859375) (0.0003364974975585937, 3.1328125) (0.0003889276123046875, 3.134765625) (0.00042373114013671874, 3.13671875) (0.00043786639404296874, 3.138671875) (0.0004370245971679687, 3.140625) (0.00042727587890625, 3.142578125) (0.00041601690673828126, 3.14453125) (0.0004052701416015625, 3.146484375) (0.00039178173828125, 3.1484375) (0.0003762099609375, 3.150390625) (0.00035932751464843747, 3.15234375) (0.0003415794677734375, 3.154296875) (0.0003248828125, 3.15625) (0.0003094734191894531, 3.158203125) (0.00029538067626953124, 3.16015625) (0.00028457452392578123, 3.162109375) (0.0002793119506835937, 3.1640625) (0.00028066448974609374, 3.166015625) (0.00028988006591796874, 3.16796875) (0.0003081860656738281, 3.169921875) (0.0003370602111816406, 3.171875) (0.0003790188598632812, 3.173828125) (0.00043501013183593746, 3.17578125) (0.0005033078002929688, 3.177734375) (0.0005810404663085937, 3.1796875) (0.0006640098876953125, 3.181640625) (0.0007478009643554687, 3.18359375) (0.0008301561279296874, 3.185546875) (0.000907273193359375, 3.1875) (0.0009758668212890624, 3.189453125) (0.0010344603271484375, 3.19140625) (0.001077876220703125, 3.193359375) (0.0011029384765624999, 3.1953125) (0.0011066343994140624, 3.197265625) (0.00108615234375, 3.19921875) (0.0010471195068359374, 3.201171875) (0.0009961742553710937, 3.203125) (0.0009409695434570312, 3.205078125) (0.0008897089843749999, 3.20703125) (0.0008440297241210938, 3.208984375) (0.0008061291503906249, 3.2109375) (0.0007790477294921874, 3.212890625) (0.0007632303466796875, 3.21484375) (0.0007606766967773437, 3.216796875) (0.0007715772094726562, 3.21875) (0.0007931487426757813, 3.220703125) (0.0008236634521484375, 3.22265625) (0.00085991064453125, 3.224609375) (0.00089665771484375, 3.2265625) (0.0009294715576171874, 3.228515625) (0.0009544981689453124, 3.23046875) (0.00096874609375, 3.232421875) (0.0009712734374999999, 3.234375) (0.0009616629028320312, 3.236328125) (0.0009388026733398437, 3.23828125) (0.0009034215087890625, 3.240234375) (0.0008581527709960937, 3.2421875) (0.0008060407104492187, 3.244140625) (0.0007507486572265624, 3.24609375) (0.0006950185546875, 3.248046875) (0.0006400301513671874, 3.25) (0.000587183837890625, 3.251953125) (0.0005383587036132812, 3.25390625) (0.0004942555541992187, 3.255859375) (0.00045461822509765623, 3.2578125) (0.0004184990539550781, 3.259765625) (0.000383989501953125, 3.26171875) (0.00034993829345703124, 3.263671875) (0.0003161519165039062, 3.265625) (0.00028222039794921874, 3.267578125) (0.00024766543579101563, 3.26953125) (0.00021230667114257811, 3.271484375) (0.00017608206176757813, 3.2734375) (0.00013939051818847656, 3.275390625) (0.0001031714630126953, 3.27734375) (6.796920013427734e-05, 3.279296875) (3.3958999633789064e-05, 3.28125) (1.305295944213867e-06, 3.283203125) (-2.9965328216552734e-05, 3.28515625) (-5.974256896972656e-05, 3.287109375) (-8.780877685546874e-05, 3.2890625) (-0.00011408828735351563, 3.291015625) (-0.0001385873260498047, 3.29296875) (-0.0001612534637451172, 3.294921875) (-0.00018199322509765623, 3.296875) (-0.0002006611328125, 3.298828125) (-0.00021711489868164063, 3.30078125) (-0.00023128546142578123, 3.302734375) (-0.00024312768554687498, 3.3046875) (-0.00025264453125, 3.306640625) (-0.0002598479919433594, 3.30859375) (-0.00026469241333007814, 3.310546875) (-0.00026729901123046873, 3.3125) (-0.0002678268737792969, 3.314453125) (-0.0002662000732421875, 3.31640625) (-0.00026247442626953124, 3.318359375) (-0.00025668966674804685, 3.3203125) (-0.0002487916870117187, 3.322265625) (-0.00023916331481933594, 3.32421875) (-0.00022823925781249998, 3.326171875) (-0.0002159709014892578, 3.328125) (-0.00020239859008789062, 3.330078125) (-0.0001879818878173828, 3.33203125) (-0.00017290652465820313, 3.333984375) (-0.00015780755615234373, 3.3359375) (-0.00014358268737792968, 3.337890625) (-0.00013003594970703125, 3.33984375) (-0.00011707896423339843, 3.341796875) (-0.00010523495483398437, 3.34375) (-9.459774017333984e-05, 3.345703125) (-8.483657836914062e-05, 3.34765625) (-7.583894348144532e-05, 3.349609375) (-6.6259765625e-05, 3.3515625) (-5.4028442382812496e-05, 3.353515625) (-3.849374771118164e-05, 3.35546875) (-1.8688987731933592e-05, 3.357421875) (6.694083213806152e-06, 3.359375) (3.7915592193603513e-05, 3.361328125) (7.481874084472656e-05, 3.36328125) (0.0001172177734375, 3.365234375) (0.00016297845458984375, 3.3671875) (0.0002085161437988281, 3.369140625) (0.00025131553649902343, 3.37109375) (0.0002883251037597656, 3.373046875) (0.000316284423828125, 3.375) (0.00033349365234375, 3.376953125) (0.0003388044738769531, 3.37890625) (0.00033131527709960937, 3.380859375) (0.000312299072265625, 3.3828125) (0.0002849530029296875, 3.384765625) (0.00025210162353515625, 3.38671875) (0.00021730111694335936, 3.388671875) (0.0001848729248046875, 3.390625) (0.00015796536254882813, 3.392578125) (0.00013913459777832032, 3.39453125) (0.00013068302917480467, 3.396484375) (0.000133202392578125, 3.3984375) (0.00014563755798339842, 3.400390625) (0.00016687501525878906, 3.40234375) (0.00019537173461914062, 3.404296875) (0.00022821684265136717, 3.40625) (0.00026227011108398434, 3.408203125) (0.000294802734375, 3.41015625) (0.00032311267089843746, 3.412109375) (0.0003451177368164062, 3.4140625) (0.0003598690185546875, 3.416015625) (0.0003666233215332031, 3.41796875) (0.00036410296630859373, 3.419921875) (0.0003523364562988281, 3.421875) (0.0003329936828613281, 3.423828125) (0.0003075327453613281, 3.42578125) (0.0002781260986328125, 3.427734375) (0.0002477992858886719, 3.4296875) (0.000218542236328125, 3.431640625) (0.0001924798583984375, 3.43359375) (0.00017347721862792968, 3.435546875) (0.0001645421142578125, 3.4375) (0.00016705409240722657, 3.439453125) (0.0001816911163330078, 3.44140625) (0.00020655213928222655, 3.443359375) (0.0002387742462158203, 3.4453125) (0.00027754754638671875, 3.447265625) (0.000324369384765625, 3.44921875) (0.0003804099426269531, 3.451171875) (0.00044361639404296875, 3.453125) (0.0005074775390624999, 3.455078125) (0.0005593119506835937, 3.45703125) (0.0005870320434570312, 3.458984375) (0.0005863256225585937, 3.4609375) (0.0005601578979492187, 3.462890625) (0.0005196773681640625, 3.46484375) (0.00047775448608398436, 3.466796875) (0.0004417192993164062, 3.46875) (0.0004143785400390625, 3.470703125) (0.00039439892578124996, 3.47265625) (0.0003803958740234375, 3.474609375) (0.0003740895385742187, 3.4765625) (0.0003784367065429687, 3.478515625) (0.0003961369934082031, 3.48046875) (0.00042785174560546873, 3.482421875) (0.00047061016845703125, 3.484375) (0.0005188436889648437, 3.486328125) (0.0005687119140625, 3.48828125) (0.000616914306640625, 3.490234375) (0.0006615924682617187, 3.4921875) (0.0007046157836914062, 3.494140625) (0.0007423663330078125, 3.49609375) (0.0007683497314453125, 3.498046875) (0.0007787313842773437, 3.5) (0.0007672806396484375, 3.501953125) (0.0007353549194335937, 3.50390625) (0.0006915753173828125, 3.505859375) (0.0006392943115234375, 3.5078125) (0.0005830618286132812, 3.509765625) (0.0005269841918945313, 3.51171875) (0.0004731787109375, 3.513671875) (0.00043162460327148433, 3.515625) (0.0004119955139160156, 3.517578125) (0.0004173459777832031, 3.51953125) (0.0004451826477050781, 3.521484375) (0.0004862228393554687, 3.5234375) (0.000532931884765625, 3.525390625) (0.0005820880126953125, 3.52734375) (0.0006315664672851562, 3.529296875) (0.0006779864501953124, 3.53125) (0.0007119489135742187, 3.533203125) (0.0007234273071289062, 3.53515625) (0.0007085361328125, 3.537109375) (0.000669178466796875, 3.5390625) (0.0006119669799804688, 3.541015625) (0.000543516845703125, 3.54296875) (0.00046745553588867185, 3.544921875) (0.000388023193359375, 3.546875) (0.0003141849365234375, 3.548828125) (0.00025839712524414063, 3.55078125) (0.0002297206573486328, 3.552734375) (0.00023065861511230466, 3.5546875) (0.0002545777282714844, 3.556640625) (0.00028835766601562497, 3.55859375) (0.0003241856689453125, 3.560546875) (0.0003588364868164062, 3.5625) (0.00039252026367187496, 3.564453125) (0.000429055908203125, 3.56640625) (0.00046700338745117185, 3.568359375) (0.0005024843444824218, 3.5703125) (0.000532442626953125, 3.572265625) (0.0005521907348632813, 3.57421875) (0.0005592263793945312, 3.576171875) (0.000553402587890625, 3.578125) (0.0005352567138671875, 3.580078125) (0.0005082284545898437, 3.58203125) (0.000477315673828125, 3.583984375) (0.0004449931945800781, 3.5859375) (0.00040991528320312497, 3.587890625) (0.00036945404052734376, 3.58984375) (0.0003234498291015625, 3.591796875) (0.000278001953125, 3.59375) (0.00024645262145996094, 3.595703125) (0.0002403914794921875, 3.59765625) (0.00026357012939453125, 3.599609375) (0.00031215399169921875, 3.6015625) (0.0003766434631347656, 3.603515625) (0.00044950823974609374, 3.60546875) (0.0005260725708007812, 3.607421875) (0.0006009961547851562, 3.609375) (0.0006662469482421875, 3.611328125) (0.0007124515380859375, 3.61328125) (0.000734346923828125, 3.615234375) (0.0007329162597656249, 3.6171875) (0.0007152852172851562, 3.619140625) (0.0006890711669921874, 3.62109375) (0.0006579486083984374, 3.623046875) (0.0006235123291015625, 3.625) (0.0005854244995117187, 3.626953125) (0.0005421585083007812, 3.62890625) (0.0004939932250976562, 3.630859375) (0.00044145074462890625, 3.6328125) (0.00038467657470703123, 3.634765625) (0.0003297306823730469, 3.63671875) (0.00028476919555664063, 3.638671875) (0.0002554304656982422, 3.640625) (0.00024885610961914063, 3.642578125) (0.0002653128051757812, 3.64453125) (0.00029740435791015624, 3.646484375) (0.0003394701232910156, 3.6484375) (0.0003834164733886719, 3.650390625) (0.0004231182250976562, 3.65234375) (0.0004596756591796875, 3.654296875) (0.000493667236328125, 3.65625) (0.0005245447998046875, 3.658203125) (0.0005507861328125, 3.66015625) (0.000568379638671875, 3.662109375) (0.0005741031494140625, 3.6640625) (0.0005676605224609375, 3.666015625) (0.00055077685546875, 3.66796875) (0.0005254902954101562, 3.669921875) (0.0004935117797851562, 3.671875) (0.0004567153625488281, 3.673828125) (0.0004173507690429687, 3.67578125) (0.0003777017211914062, 3.677734375) (0.00034013116455078123, 3.6796875) (0.00030610888671875, 3.681640625) (0.0002759183959960937, 3.68359375) (0.00024945513916015626, 3.685546875) (0.00022608534240722654, 3.6875) (0.00020436654663085935, 3.689453125) (0.00018225790405273435, 3.69140625) (0.00015786083984375, 3.693359375) (0.0001298456115722656, 3.6953125) (9.779844665527344e-05, 3.697265625) (6.222022247314453e-05, 3.69921875) (2.403150177001953e-05, 3.701171875) (-1.5611733436584473e-05, 3.703125) (-5.532486343383789e-05, 3.705078125) (-9.336021423339844e-05, 3.70703125) (-0.00012771591186523437, 3.708984375) (-0.00015718295288085935, 3.7109375) (-0.00018189926147460937, 3.712890625) (-0.00020189657592773437, 3.71484375) (-0.00021803947448730468, 3.716796875) (-0.00023221127319335936, 3.71875) (-0.00024392440795898437, 3.720703125) (-0.00025497412109375, 3.72265625) (-0.0002676314697265625, 3.724609375) (-0.00027737390136718746, 3.7265625) (-0.00028105926513671874, 3.728515625) (-0.0002732412719726562, 3.73046875) (-0.0002457976989746094, 3.732421875) (-0.0002013191680908203, 3.734375) (-0.0001426558380126953, 3.736328125) (-7.068572998046875e-05, 3.73828125) (1.021784210205078e-05, 3.740234375) (0.00010155119323730469, 3.7421875) (0.0002016335754394531, 3.744140625) (0.0003010199279785156, 3.74609375) (0.0003938784790039062, 3.748046875) (0.00047659674072265626, 3.75) (0.0005544698486328125, 3.751953125) (0.0006424729614257813, 3.75390625) (0.0007494189453125, 3.755859375) (0.0008779326782226562, 3.7578125) (0.0010204297485351562, 3.759765625) (0.0011583127441406249, 3.76171875) (0.0012750904541015625, 3.763671875) (0.0013545936279296875, 3.765625) (0.0013818551025390625, 3.767578125) (0.0013499083251953124, 3.76953125) (0.001257749755859375, 3.771484375) (0.0011112569580078125, 3.7734375) (0.0009254599609374999, 3.775390625) (0.00071879052734375, 3.77734375) (0.0005088232116699219, 3.779296875) (0.00031427047729492186, 3.78125) (0.00015096176147460938, 3.783203125) (2.8643293380737303e-05, 3.78515625) (-4.9610614776611327e-05, 3.787109375) (-9.106764221191406e-05, 3.7890625) (-0.00010965274047851562, 3.791015625) (-0.00011866036987304687, 3.79296875) (-0.00012555606079101562, 3.794921875) (-0.00013135430908203124, 3.796875) (-0.00013358241271972657, 3.798828125) (-0.00013033659362792968, 3.80078125) (-0.0001243173141479492, 3.802734375) (-0.00011956484985351561, 3.8046875) (-0.00011909054565429687, 3.806640625) (-0.00012521701049804688, 3.80859375) (-0.00013764291381835936, 3.810546875) (-0.00015505738830566405, 3.8125) (-0.00017652560424804686, 3.814453125) (-0.00020001469421386718, 3.81640625) (-0.00022311753845214843, 3.818359375) (-0.0002445284729003906, 3.8203125) (-0.00026357830810546875, 3.822265625) (-0.00028029449462890624, 3.82421875) (-0.00029548254394531247, 3.826171875) (-0.00030985211181640623, 3.828125) (-0.0003240089721679687, 3.830078125) (-0.00033883065795898437, 3.83203125) (-0.00035522027587890626, 3.833984375) (-0.00037370770263671875, 3.8359375) (-0.00039449365234375, 3.837890625) (-0.0004173379211425781, 3.83984375) (-0.0004416336059570312, 3.841796875) (-0.00046666989135742186, 3.84375) (-0.0004916402893066406, 3.845703125) (-0.000515931396484375, 3.84765625) (-0.0005391489868164062, 3.849609375) (-0.000561056640625, 3.8515625) (-0.0005816180419921875, 3.853515625) (-0.0006008238525390625, 3.85546875) (-0.0006186572875976562, 3.857421875) (-0.0006351314697265625, 3.859375) (-0.0006502576293945312, 3.861328125) (-0.0006640093994140625, 3.86328125) (-0.0006763587036132812, 3.865234375) (-0.0006872645263671875, 3.8671875) (-0.0006966704101562499, 3.869140625) (-0.0007046259765625, 3.87109375) (-0.000711258544921875, 3.873046875) (-0.00071677587890625, 3.875) (-0.0007214817504882812, 3.876953125) (-0.0007255953369140625, 3.87890625) (-0.0007292484130859375, 3.880859375) (-0.0007325498046875, 3.8828125) (-0.0007355554809570312, 3.884765625) (-0.0007383106689453125, 3.88671875) (-0.0007408695678710937, 3.888671875) (-0.0007432417602539062, 3.890625) (-0.0007454006958007813, 3.892578125) (-0.0007473583374023437, 3.89453125) (-0.00074914990234375, 3.896484375) (-0.0007508209228515624, 3.8984375) (-0.0007524390258789063, 3.900390625) (-0.0007540414428710937, 3.90234375) (-0.0007556370239257813, 3.904296875) (-0.0007572264404296875, 3.90625) (-0.0007587926635742187, 3.908203125) (-0.0007603236083984375, 3.91015625) (-0.0007618188476562499, 3.912109375) (-0.000763276123046875, 3.9140625) (-0.0007646947631835937, 3.916015625) (-0.0007660828857421875, 3.91796875) (-0.0007674520263671875, 3.919921875) (-0.0007688256225585938, 3.921875) (-0.0007702402343749999, 3.923828125) (-0.0007717217407226562, 3.92578125) (-0.0007732858276367187, 3.927734375) (-0.0007749441528320312, 3.9296875) (-0.0007767011108398437, 3.931640625) (-0.0007785618896484375, 3.93359375) (-0.0007805346069335937, 3.935546875) (-0.0007826231689453125, 3.9375) (-0.0007848287353515624, 3.939453125) (-0.0007871566162109374, 3.94140625) (-0.0007896143798828125, 3.943359375) (-0.0007922117919921875, 3.9453125) (-0.0007949622802734375, 3.947265625) (-0.000797878173828125, 3.94921875) (-0.000800970703125, 3.951171875) (-0.0008042518310546875, 3.953125) (-0.0008077333984374999, 3.955078125) (-0.0008114257202148437, 3.95703125) (-0.0008153382568359375, 3.958984375) (-0.0008194796142578125, 3.9609375) (-0.0008238569946289062, 3.962890625) (-0.0008284771118164062, 3.96484375) (-0.0008333458251953125, 3.966796875) (-0.000838467041015625, 3.96875) (-0.00084384326171875, 3.970703125) (-0.00084947607421875, 3.97265625) (-0.0008553657226562499, 3.974609375) (-0.0008615104980468749, 3.9765625) (-0.0008679067382812499, 3.978515625) (-0.0008745465087890624, 3.98046875) (-0.0008814189453125, 3.982421875) (-0.0008885094604492187, 3.984375) (-0.0008957993164062499, 3.986328125) (-0.000903267333984375, 3.98828125) (-0.0009108881225585937, 3.990234375) (-0.0009186323852539062, 3.9921875) (-0.0009264666748046874, 3.994140625) (-0.0009343536987304687, 3.99609375) (-0.0009422523803710938, 3.998046875) (-0.000950117919921875, 4.0) (-0.0009579024047851562, 4.001953125) (-0.0009655517578125, 4.00390625) (-0.00097300732421875, 4.005859375) (-0.0009802056884765625, 4.0078125) (-0.0009870795898437499, 4.009765625) (-0.0009935589599609374, 4.01171875) (-0.000999570068359375, 4.013671875) (-0.0010050354614257813, 4.015625) (-0.0010098748779296875, 4.017578125) (-0.001014006591796875, 4.01953125) (-0.0010173480224609374, 4.021484375) (-0.0010198170166015625, 4.0234375) (-0.0010213306884765624, 4.025390625) (-0.0010218059082031249, 4.02734375) (-0.0010211619262695312, 4.029296875) (-0.0010193211669921876, 4.03125) (-0.001016208984375, 4.033203125) (-0.0010117548828124999, 4.03515625) (-0.0010058924560546875, 4.037109375) (-0.0009985584716796874, 4.0390625) (-0.00098969580078125, 4.041015625) (-0.0009792542724609374, 4.04296875) (-0.0009671884765625, 4.044921875) (-0.000953458740234375, 4.046875) (-0.0009380311889648438, 4.048828125) (-0.0009208775024414063, 4.05078125) (-0.0009019781494140625, 4.052734375) (-0.0008813231201171875, 4.0546875) (-0.000858910888671875, 4.056640625) (-0.0008347495117187499, 4.05859375) (-0.0008088553466796875, 4.060546875) (-0.0007812532958984375, 4.0625) (-0.000751977783203125, 4.064453125) (-0.00072107373046875, 4.06640625) (-0.00068859375, 4.068359375) (-0.0006545994262695312, 4.0703125) (-0.0006191600341796875, 4.072265625) (-0.000582350830078125, 4.07421875) (-0.0005442562255859374, 4.076171875) (-0.0005049695434570312, 4.078125) (-0.00046459063720703125, 4.080078125) (-0.00042322662353515625, 4.08203125) (-0.0003809902648925781, 4.083984375) (-0.00033799789428710935, 4.0859375) (-0.0002943712463378906, 4.087890625) (-0.00025023704528808594, 4.08984375) (-0.00020572042846679688, 4.091796875) (-0.0001609453430175781, 4.09375) (-0.00011603598022460936, 4.095703125) (-7.111295318603515e-05, 4.09765625) (-2.629426383972168e-05, 4.099609375) (1.8304943084716796e-05, 4.1015625) (6.257905197143555e-05, 4.103515625) (0.00010642815399169921, 4.10546875) (0.000149747802734375, 4.107421875) (0.00019243112182617186, 4.109375) (0.00023437130737304687, 4.111328125) (0.000275463623046875, 4.11328125) (0.000315613525390625, 4.115234375) (0.000354736083984375, 4.1171875) (0.00039274649047851563, 4.119140625) (0.0004295642700195312, 4.12109375) (0.00046512664794921875, 4.123046875) (0.0004993898620605469, 4.125) (0.0005323336181640624, 4.126953125) (0.0005639537963867187, 4.12890625) (0.0005942416381835938, 4.130859375) (0.0006231807250976563, 4.1328125) (0.0006507536010742187, 4.134765625) (0.0006769539794921874, 4.13671875) (0.0007017937011718749, 4.138671875) (0.0007253045654296875, 4.140625) (0.0007475148315429687, 4.142578125) (0.0007684376220703124, 4.14453125) (0.0007881044921874999, 4.146484375) (0.0008065626220703125, 4.1484375) (0.0008238992919921875, 4.150390625) (0.0008402408447265625, 4.15234375) (0.0008556561889648437, 4.154296875) (0.0008701468505859374, 4.15625) (0.000883674072265625, 4.158203125) (0.0008961700439453125, 4.16015625) (0.000907584228515625, 4.162109375) (0.0009179210205078125, 4.1640625) (0.0009271625976562499, 4.166015625) (0.000935218994140625, 4.16796875) (0.0009420453491210937, 4.169921875) (0.0009475968017578125, 4.171875) (0.0009518697509765624, 4.173828125) (0.0009550198364257812, 4.17578125) (0.000957158203125, 4.177734375) (0.0009583404541015625, 4.1796875) (0.0009585969238281249, 4.181640625) (0.0009578193969726562, 4.18359375) (0.0009559210815429688, 4.185546875) (0.0009530344848632812, 4.1875) (0.0009494078979492187, 4.189453125) (0.0009451647949218749, 4.19140625) (0.000940360107421875, 4.193359375) (0.0009347315673828125, 4.1953125) (0.0009277950439453125, 4.197265625) (0.000919618896484375, 4.19921875) (0.0009105494995117187, 4.201171875) (0.000900851806640625, 4.203125) (0.0008907380981445312, 4.205078125) (0.0008802643432617187, 4.20703125) (0.0008695269775390624, 4.208984375) (0.0008594306030273437, 4.2109375) (0.0008516651000976562, 4.212890625) (0.0008470513916015625, 4.21484375) (0.000845317626953125, 4.216796875) (0.000845431396484375, 4.21875) (0.0008455843505859375, 4.220703125) (0.0008442373657226562, 4.22265625) (0.00084034716796875, 4.224609375) (0.0008320858764648437, 4.2265625) (0.000816671630859375, 4.228515625) (0.0007923002319335938, 4.23046875) (0.0007585581665039063, 4.232421875) (0.0007164154052734375, 4.234375) (0.0006684888305664062, 4.236328125) (0.000617138427734375, 4.23828125) (0.0005637013549804687, 4.240234375) (0.00050987255859375, 4.2421875) (0.00045772552490234373, 4.244140625) (0.00040851119995117185, 4.24609375) (0.000362908935546875, 4.248046875) (0.00032062335205078124, 4.25) (0.0002800107421875, 4.251953125) (0.00023993249511718748, 4.25390625) (0.00020007406616210936, 4.255859375) (0.00016003289794921875, 4.2578125) (0.00011964427185058593, 4.259765625) (7.912564086914062e-05, 4.26171875) (3.851371765136719e-05, 4.263671875) (-1.823491096496582e-06, 4.265625) (-4.109642791748047e-05, 4.267578125) (-7.908100891113282e-05, 4.26953125) (-0.00011575789642333984, 4.271484375) (-0.00015104124450683593, 4.2734375) (-0.0001850845947265625, 4.275390625) (-0.00021796722412109374, 4.27734375) (-0.00024962982177734373, 4.279296875) (-0.00028015624999999997, 4.28125) (-0.0003096259155273437, 4.283203125) (-0.0003379380187988281, 4.28515625) (-0.0003650523071289062, 4.287109375) (-0.0003909430541992187, 4.2890625) (-0.00041558990478515626, 4.291015625) (-0.0004391453857421875, 4.29296875) (-0.0004617025756835937, 4.294921875) (-0.00048325714111328123, 4.296875) (-0.0005037847900390625, 4.298828125) (-0.0005231688842773437, 4.30078125) (-0.0005413218383789062, 4.302734375) (-0.0005582286376953125, 4.3046875) (-0.0005738457641601562, 4.306640625) (-0.0005881197509765625, 4.30859375) (-0.0006010504150390625, 4.310546875) (-0.0006126636352539062, 4.3125) (-0.000623049072265625, 4.314453125) (-0.0006323751220703124, 4.31640625) (-0.0006407736206054687, 4.318359375) (-0.00064834814453125, 4.3203125) (-0.0006551957397460937, 4.322265625) (-0.00066137646484375, 4.32421875) (-0.000666968505859375, 4.326171875) (-0.0006720721435546875, 4.328125) (-0.0006767794799804687, 4.330078125) (-0.0006811925048828125, 4.33203125) (-0.0006854154052734375, 4.333984375) (-0.00068954248046875, 4.3359375) (-0.0006936783447265625, 4.337890625) (-0.0006979378051757812, 4.33984375) (-0.000702420166015625, 4.341796875) (-0.000707215087890625, 4.34375) (-0.0007123929443359374, 4.345703125) (-0.0007179988403320312, 4.34765625) (-0.0007240726318359375, 4.349609375) (-0.0007306490478515624, 4.3515625) (-0.0007377608032226562, 4.353515625) (-0.000745439697265625, 4.35546875) (-0.0007537187499999999, 4.357421875) (-0.000762626708984375, 4.359375) (-0.0007721771850585938, 4.361328125) (-0.0007823728637695312, 4.36328125) (-0.0007932051391601562, 4.365234375) (-0.0008046567993164062, 4.3671875) (-0.0008167047119140624, 4.369140625) (-0.0008293068847656249, 4.37109375) (-0.0008423900146484375, 4.373046875) (-0.0008558545532226562, 4.375) (-0.0008695945434570312, 4.376953125) (-0.0008834965209960937, 4.37890625) (-0.0008974680786132813, 4.380859375) (-0.0009114335937499999, 4.3828125) (-0.0009252783203124999, 4.384765625) (-0.0009388792724609375, 4.38671875) (-0.0009520721435546874, 4.388671875) (-0.000964636474609375, 4.390625) (-0.0009764202880859375, 4.392578125) (-0.0009873179931640624, 4.39453125) (-0.00099724609375, 4.396484375) (-0.00100618212890625, 4.3984375) (-0.0010140623779296874, 4.400390625) (-0.0010207438354492187, 4.40234375) (-0.0010262135009765625, 4.404296875) (-0.00103066015625, 4.40625) (-0.00103421875, 4.408203125) (-0.00103698828125, 4.41015625) (-0.001038783935546875, 4.412109375) (-0.00103895068359375, 4.4140625) (-0.001037117919921875, 4.416015625) (-0.0010334287109375, 4.41796875) (-0.0010282082519531249, 4.419921875) (-0.0010216834716796875, 4.421875) (-0.0010138485107421874, 4.423828125) (-0.0010047471313476561, 4.42578125) (-0.00099520556640625, 4.427734375) (-0.0009873092041015625, 4.4296875) (-0.0009831527099609374, 4.431640625) (-0.0009825466308593749, 4.43359375) (-0.0009833136596679687, 4.435546875) (-0.0009838290405273437, 4.4375) (-0.0009827419433593749, 4.439453125) (-0.00098207421875, 4.44140625) (-0.0009865334472656249, 4.443359375) (-0.0009945557861328125, 4.4453125) (-0.0010022591552734375, 4.447265625) (-0.0010024809570312499, 4.44921875) (-0.0009821109619140625, 4.451171875) (-0.0009355115356445312, 4.453125) (-0.000860448486328125, 4.455078125) (-0.0007576307373046875, 4.45703125) (-0.0006384365234375, 4.458984375) (-0.000513246337890625, 4.4609375) (-0.0003948163146972656, 4.462890625) (-0.0002981328430175781, 4.46484375) (-0.00023019268798828125, 4.466796875) (-0.00019755245971679687, 4.46875) (-0.00019995550537109375, 4.470703125) (-0.00022997164916992188, 4.47265625) (-0.0002823804931640625, 4.474609375) (-0.0003463821411132812, 4.4765625) (-0.0004107961730957031, 4.478515625) (-0.0004656661987304687, 4.48046875) (-0.0004953206787109374, 4.482421875) (-0.00048890625, 4.484375) (-0.0004434542236328125, 4.486328125) (-0.0003617793884277344, 4.48828125) (-0.0002577369689941406, 4.490234375) (-0.00014818504333496092, 4.4921875) (-4.541069793701172e-05, 4.494140625) (3.992424392700195e-05, 4.49609375) (0.00010401456451416015, 4.498046875) (0.00014930410766601562, 4.5) (0.00017931967163085938, 4.501953125) (0.0002017165069580078, 4.50390625) (0.00022346200561523436, 4.505859375) (0.00024695573425292965, 4.5078125) (0.00027259774780273436, 4.509765625) (0.00029765777587890626, 4.51171875) (0.00031936614990234376, 4.513671875) (0.0003377911376953125, 4.515625) (0.0003541141357421875, 4.517578125) (0.0003701980285644531, 4.51953125) (0.00038702624511718746, 4.521484375) (0.00040411700439453124, 4.5234375) (0.0004206139526367187, 4.525390625) (0.00043559173583984374, 4.52734375) (0.0004487523193359375, 4.529296875) (0.00046025936889648435, 4.53125) (0.0004702093811035156, 4.533203125) (0.00047874389648437497, 4.53515625) (0.0004859390869140625, 4.537109375) (0.0004918236083984375, 4.5390625) (0.000496515869140625, 4.541015625) (0.0005001249389648437, 4.54296875) (0.0005026517944335937, 4.544921875) (0.0005040504760742187, 4.546875) (0.000504270782470703, 4.548828125) (0.0005032617797851562, 4.55078125) (0.0005010311279296874, 4.552734375) (0.0004976282043457031, 4.5546875) (0.0004931084594726562, 4.556640625) (0.0004875480041503906, 4.55859375) (0.0004810212707519531, 4.560546875) (0.00047359655761718746, 4.5625) (0.0004653563842773437, 4.564453125) (0.0004563941650390625, 4.56640625) (0.00044681585693359373, 4.568359375) (0.0004367388916015625, 4.5703125) (0.0004262825317382812, 4.572265625) (0.000415564208984375, 4.57421875) (0.00040470291137695313, 4.576171875) (0.0003938213195800781, 4.578125) (0.0003830390014648437, 4.580078125) (0.0003724660034179687, 4.58203125) (0.0003621994323730469, 4.583984375) (0.00035231896972656246, 4.5859375) (0.00034289031982421875, 4.587890625) (0.00033397686767578126, 4.58984375) (0.0003256435852050781, 4.591796875) (0.0003179595336914062, 4.59375) (0.00031099682617187496, 4.595703125) (0.00030481268310546874, 4.59765625) (0.0002994469604492187, 4.599609375) (0.0002949254150390625, 4.6015625) (0.0002912591247558594, 4.603515625) (0.0002884539794921875, 4.60546875) (0.0002865123901367187, 4.607421875) (0.0002854241333007812, 4.609375) (0.00028516827392578123, 4.611328125) (0.00028572576904296876, 4.61328125) (0.00028707650756835935, 4.615234375) (0.00028921337890625, 4.6171875) (0.0002921432189941406, 4.619140625) (0.0002958553466796875, 4.62109375) (0.0003003282470703125, 4.623046875) (0.0003055096435546875, 4.625) (0.000311311279296875, 4.626953125) (0.0003176712951660156, 4.62890625) (0.00032454586791992184, 4.630859375) (0.00033192846679687497, 4.6328125) (0.00033986285400390624, 4.634765625) (0.00034834912109374996, 4.63671875) (0.0003573443603515625, 4.638671875) (0.0003667912902832031, 4.640625) (0.00037659466552734374, 4.642578125) (0.0003866854553222656, 4.64453125) (0.0003970674133300781, 4.646484375) (0.00040762496948242184, 4.6484375) (0.00041811972045898435, 4.650390625) (0.00042847320556640625, 4.65234375) (0.0004386741943359375, 4.654296875) (0.0004489776916503906, 4.65625) (0.0004599922485351562, 4.658203125) (0.00047190246582031245, 4.66015625) (0.00048442218017578123, 4.662109375) (0.0004971886596679688, 4.6640625) (0.0005096632385253906, 4.666015625) (0.0005211882934570313, 4.66796875) (0.0005312462768554688, 4.669921875) (0.0005387230834960937, 4.671875) (0.0005418301391601563, 4.673828125) (0.00053979248046875, 4.67578125) (0.000532771484375, 4.677734375) (0.0005215432739257812, 4.6796875) (0.000507774169921875, 4.681640625) (0.0004928005371093749, 4.68359375) (0.00047730169677734374, 4.685546875) (0.00046259320068359373, 4.6875) (0.00045053765869140626, 4.689453125) (0.00044190011596679683, 4.69140625) (0.00043666198730468747, 4.693359375) (0.000433942626953125, 4.6953125) (0.00043163751220703125, 4.697265625) (0.00042875079345703124, 4.69921875) (0.0004255603332519531, 4.701171875) (0.0004220504760742187, 4.703125) (0.00041821115112304684, 4.705078125) (0.0004144485168457031, 4.70703125) (0.00041106503295898435, 4.708984375) (0.0004087508850097656, 4.7109375) (0.00040884432983398435, 4.712890625) (0.00041103475952148434, 4.71484375) (0.00041347241210937496, 4.716796875) (0.0004143612060546875, 4.71875) (0.0004116057739257812, 4.720703125) (0.0004035423583984375, 4.72265625) (0.00038949884033203123, 4.724609375) (0.00036911276245117186, 4.7265625) (0.0003422469482421875, 4.728515625) (0.00031032330322265623, 4.73046875) (0.00027605255126953126, 4.732421875) (0.00024200091552734374, 4.734375) (0.00021082528686523435, 4.736328125) (0.000184473876953125, 4.73828125) (0.00016375961303710936, 4.740234375) (0.00014903742980957032, 4.7421875) (0.000140191650390625, 4.744140625) (0.00013613446044921873, 4.74609375) (0.0001350506134033203, 4.748046875) (0.00013540023803710938, 4.75) (0.00013582009887695313, 4.751953125) (0.00013540541076660157, 4.75390625) (0.00013393211364746093, 4.755859375) (0.00013132089233398436, 4.7578125) (0.0001276542205810547, 4.759765625) (0.0001233756561279297, 4.76171875) (0.00011915241241455078, 4.763671875) (0.00011544009399414062, 4.765625) (0.00011251538085937499, 4.767578125) (0.00011048295593261718, 4.76953125) (0.00010920916748046875, 4.771484375) (0.00010861752319335937, 4.7734375) (0.00010868572998046874, 4.775390625) (0.00010932739257812499, 4.77734375) (0.00011044244384765624, 4.779296875) (0.00011197900390624999, 4.78125) (0.00011392068481445312, 4.783203125) (0.00011628166961669921, 4.78515625) (0.00011911036682128906, 4.787109375) (0.0001224033660888672, 4.7890625) (0.00012610675811767578, 4.791015625) (0.00013016007995605468, 4.79296875) (0.0001344862823486328, 4.794921875) (0.00013901832580566405, 4.796875) (0.0001437040557861328, 4.798828125) (0.00014848544311523438, 4.80078125) (0.00015330203247070312, 4.802734375) (0.00015809307861328124, 4.8046875) (0.00016279660034179686, 4.806640625) (0.00016734957885742186, 4.80859375) (0.00017168937683105468, 4.810546875) (0.00017575140380859375, 4.8125) (0.00017946881103515625, 4.814453125) (0.00018278005981445312, 4.81640625) (0.0001856301727294922, 4.818359375) (0.00018797383117675782, 4.8203125) (0.00018977627563476562, 4.822265625) (0.00019101075744628904, 4.82421875) (0.00019165817260742186, 4.826171875) (0.000191700927734375, 4.828125) (0.00019112286376953125, 4.830078125) (0.00018991102600097656, 4.83203125) (0.00018805523681640623, 4.833984375) (0.00018555030822753904, 4.8359375) (0.00018239584350585936, 4.837890625) (0.0001785953369140625, 4.83984375) (0.00017415646362304687, 4.841796875) (0.00016909158325195312, 4.84375) (0.00016341854858398436, 4.845703125) (0.0001571596221923828, 4.84765625) (0.000150340576171875, 4.849609375) (0.00014298971557617188, 4.8515625) (0.000135137451171875, 4.853515625) (0.0001268164291381836, 4.85546875) (0.00011806158447265625, 4.857421875) (0.00010891020965576172, 4.859375) (9.940034484863281e-05, 4.861328125) (8.957042694091796e-05, 4.86328125) (7.945956420898437e-05, 4.865234375) (6.910739135742187e-05, 4.8671875) (5.855360412597656e-05, 4.869140625) (4.7837085723876954e-05, 4.87109375) (3.69948501586914e-05, 4.873046875) (2.606222915649414e-05, 4.875) (1.5073904037475586e-05, 4.876953125) (4.064128875732421e-06, 4.87890625) (-6.933599472045898e-06, 4.880859375) (-1.7888595581054688e-05, 4.8828125) (-2.877372932434082e-05, 4.884765625) (-3.9564479827880854e-05, 4.88671875) (-5.023910522460937e-05, 4.888671875) (-6.077815246582031e-05, 4.890625) (-7.1163818359375e-05, 4.892578125) (-8.138127136230468e-05, 4.89453125) (-9.141899108886718e-05, 4.896484375) (-0.00010126712799072265, 4.8984375) (-0.00011091737365722656, 4.900390625) (-0.00012036340332031249, 4.90234375) (-0.0001295997772216797, 4.904296875) (-0.00013862301635742186, 4.90625) (-0.00014743354797363281, 4.908203125) (-0.00015603396606445313, 4.91015625) (-0.000164427978515625, 4.912109375) (-0.0001726204071044922, 4.9140625) (-0.00018061683654785156, 4.916015625) (-0.0001884237060546875, 4.91796875) (-0.00019604887390136717, 4.919921875) (-0.00020349974060058593, 4.921875) (-0.00021078053283691406, 4.923828125) (-0.00021789349365234373, 4.92578125) (-0.0002248405303955078, 4.927734375) (-0.00023162428283691406, 4.9296875) (-0.00023824557495117187, 4.931640625) (-0.00024470060729980467, 4.93359375) (-0.00025097955322265624, 4.935546875) (-0.00025707003784179684, 4.9375) (-0.0002629618835449219, 4.939453125) (-0.0002686490478515625, 4.94140625) (-0.0002741258850097656, 4.943359375) (-0.000279379150390625, 4.9453125) (-0.0002843912963867187, 4.947265625) (-0.00028914556884765625, 4.94921875) (-0.0002936282043457031, 4.951171875) (-0.0002978269653320312, 4.953125) (-0.000301722412109375, 4.955078125) (-0.0003052814636230469, 4.95703125) (-0.0003084595031738281, 4.958984375) (-0.0003112149047851562, 4.9609375) (-0.0003135133056640625, 4.962890625) (-0.000315324462890625, 4.96484375) (-0.0003166195373535156, 4.966796875) (-0.0003173643798828125, 4.96875) (-0.00031752120971679685, 4.970703125) (-0.00031705612182617184, 4.97265625) (-0.0003159534912109375, 4.974609375) (-0.00031420980834960934, 4.9765625) (-0.0003118078002929687, 4.978515625) (-0.00030871246337890626, 4.98046875) (-0.00030486044311523434, 4.982421875) (-0.00030018652343749997, 4.984375) (-0.00029467523193359374, 4.986328125) (-0.00028836514282226563, 4.98828125) (-0.00028132089233398437, 4.990234375) (-0.00027359140014648436, 4.9921875) (-0.000265216064453125, 4.994140625) (-0.00025623944091796876, 4.99609375) (-0.0002467439270019531, 4.998046875) (-0.00023684049987792967, 5.0) (-0.00022659155273437498, 5.001953125) (-0.0002159962463378906, 5.00390625) (-0.00020497779846191406, 5.005859375) (-0.00019344769287109374, 5.0078125) (-0.00018139251708984374, 5.009765625) (-0.00016886825561523438, 5.01171875) (-0.00015600341796875, 5.013671875) (-0.00014293251037597655, 5.015625) (-0.00012970309448242186, 5.017578125) (-0.00011626315307617186, 5.01953125) (-0.00010253466033935547, 5.021484375) (-8.848483276367187e-05, 5.0234375) (-7.407598876953124e-05, 5.025390625) (-5.926638031005859e-05, 5.02734375) (-4.392646026611328e-05, 5.029296875) (-2.7871015548706055e-05, 5.03125) (-1.1094459533691406e-05, 5.033203125) (6.227617263793945e-06, 5.03515625) (2.3759931564331053e-05, 5.037109375) (4.1123344421386714e-05, 5.0390625) (5.806810760498047e-05, 5.041015625) (7.449092102050781e-05, 5.04296875) (9.037767028808593e-05, 5.044921875) (0.00010571012878417968, 5.046875) (0.00012042419433593749, 5.048828125) (0.00013431063842773438, 5.05078125) (0.00014712677001953124, 5.052734375) (0.00015873223876953124, 5.0546875) (0.00016892196655273438, 5.056640625) (0.00017747792053222656, 5.05859375) (0.00018407989501953125, 5.060546875) (0.00018830239868164063, 5.0625) (0.00018999365234375, 5.064453125) (0.00018927958679199218, 5.06640625) (0.00018647122192382812, 5.068359375) (0.00018196734619140625, 5.0703125) (0.00017606449890136719, 5.072265625) (0.0001688417053222656, 5.07421875) (0.0001603228759765625, 5.076171875) (0.00015058384704589843, 5.078125) (0.0001395935363769531, 5.080078125) (0.00012748089599609375, 5.08203125) (0.00011443277740478515, 5.083984375) (0.00010043122863769531, 5.0859375) (8.561732482910155e-05, 5.087890625) (7.02219009399414e-05, 5.08984375) (5.4541114807128904e-05, 5.091796875) (3.903091430664062e-05, 5.09375) (2.3961933135986327e-05, 5.095703125) (9.337160110473632e-06, 5.09765625) (-4.935030937194824e-06, 5.099609375) (-1.896652030944824e-05, 5.1015625) (-3.287599563598633e-05, 5.103515625) (-4.656446838378906e-05, 5.10546875) (-5.991130828857422e-05, 5.107421875) (-7.288062286376953e-05, 5.109375) (-8.511576080322265e-05, 5.111328125) (-9.629347991943359e-05, 5.11328125) (-0.00010606439208984374, 5.115234375) (-0.0001138314971923828, 5.1171875) (-0.00011933058166503906, 5.119140625) (-0.00012260051727294922, 5.12109375) (-0.00012386132049560546, 5.123046875) (-0.0001236049575805664, 5.125) (-0.00012229771423339844, 5.126953125) (-0.00012027616119384766, 5.12890625) (-0.00011806730651855469, 5.130859375) (-0.00011608152770996094, 5.1328125) (-0.00011408628845214843, 5.134765625) (-0.00011124739837646483, 5.13671875) (-0.00010578970336914061, 5.138671875) (-9.529405975341797e-05, 5.140625) (-7.778745269775391e-05, 5.142578125) (-5.313589859008789e-05, 5.14453125) (-2.2777709960937498e-05, 5.146484375) (1.1931071281433104e-05, 5.1484375) (4.87996826171875e-05, 5.150390625) (8.959230041503906e-05, 5.15234375) (0.00013994815063476563, 5.154296875) (0.0001985931701660156, 5.15625) (0.00026096484374999997, 5.158203125) (0.00031486459350585935, 5.16015625) (0.0003369228515625, 5.162109375) (0.0003147684326171875, 5.1640625) (0.00024535760498046875, 5.166015625) (0.00013242306518554688, 5.16796875) (-4.214736938476562e-06, 5.169921875) (-0.00014666421508789063, 5.171875) (-0.000280644775390625, 5.173828125) (-0.0003877385559082031, 5.17578125) (-0.0004576842041015625, 5.177734375) (-0.00048758444213867187, 5.1796875) (-0.0004805133361816406, 5.181640625) (-0.0004507164916992187, 5.18359375) (-0.00041351657104492186, 5.185546875) (-0.0003773711242675781, 5.1875) (-0.0003451275329589844, 5.189453125) (-0.00031380291748046873, 5.19140625) (-0.0002797496337890625, 5.193359375) (-0.00024349447631835937, 5.1953125) (-0.00020717990112304686, 5.197265625) (-0.00017353811645507813, 5.19921875) (-0.0001447506103515625, 5.201171875) (-0.00012020455932617188, 5.203125) (-9.84560775756836e-05, 5.205078125) (-7.776185607910156e-05, 5.20703125) (-5.56097412109375e-05, 5.208984375) (-3.0796852111816405e-05, 5.2109375) (-3.3091354370117186e-06, 5.212890625) (2.6489885330200193e-05, 5.21484375) (5.7456912994384765e-05, 5.216796875) (8.827950286865234e-05, 5.21875) (0.00011819278717041015, 5.220703125) (0.00014636874389648436, 5.22265625) (0.0001718232421875, 5.224609375) (0.00019412103271484375, 5.2265625) (0.00021298895263671875, 5.228515625) (0.00022823353576660154, 5.23046875) (0.00024007803344726562, 5.232421875) (0.00024872015380859375, 5.234375) (0.0002541455535888672, 5.236328125) (0.0002564040222167969, 5.23828125) (0.00025560009765625, 5.240234375) (0.0002518248748779297, 5.2421875) (0.00024546925354003907, 5.244140625) (0.0002371414337158203, 5.24609375) (0.00022731994628906249, 5.248046875) (0.00021644749450683593, 5.25) (0.00020483729553222654, 5.251953125) (0.00019261466979980467, 5.25390625) (0.00017992997741699218, 5.255859375) (0.00016695133972167967, 5.2578125) (0.00015379040527343748, 5.259765625) (0.00014057772827148437, 5.26171875) (0.00012744903564453124, 5.263671875) (0.00011449949645996093, 5.265625) (0.00010190614318847656, 5.267578125) (8.996713256835937e-05, 5.26953125) (7.89414291381836e-05, 5.271484375) (6.88460464477539e-05, 5.2734375) (5.941120147705078e-05, 5.275390625) (4.9935699462890625e-05, 5.27734375) (3.951264953613281e-05, 5.279296875) (2.77391357421875e-05, 5.28125) (1.4711820602416991e-05, 5.283203125) (6.632456779479981e-07, 5.28515625) (-1.4061817169189452e-05, 5.287109375) (-2.8985755920410154e-05, 5.2890625) (-4.3620536804199215e-05, 5.291015625) (-5.679161071777344e-05, 5.29296875) (-6.663822174072265e-05, 5.294921875) (-7.2365478515625e-05, 5.296875) (-7.428936767578125e-05, 5.298828125) (-7.331802368164062e-05, 5.30078125) (-7.104181671142578e-05, 5.302734375) (-6.878779602050781e-05, 5.3046875) (-6.7272705078125e-05, 5.306640625) (-6.79602813720703e-05, 5.30859375) (-7.315545654296874e-05, 5.310546875) (-8.395158386230468e-05, 5.3125) (-0.00010030450439453125, 5.314453125) (-0.00012114627075195312, 5.31640625) (-0.0001441018829345703, 5.318359375) (-0.0001673924102783203, 5.3203125) (-0.0001901495361328125, 5.322265625) (-0.00021097921752929688, 5.32421875) (-0.00022807565307617186, 5.326171875) (-0.000240427734375, 5.328125) (-0.00024764331054687497, 5.330078125) (-0.00025033287048339844, 5.33203125) (-0.0002503286743164062, 5.333984375) (-0.00024887030029296876, 5.3359375) (-0.0002464960327148437, 5.337890625) (-0.00024390789794921875, 5.33984375) (-0.00024174703979492186, 5.341796875) (-0.00024044923400878905, 5.34375) (-0.0002403779602050781, 5.345703125) (-0.00024135772705078125, 5.34765625) (-0.0002426305236816406, 5.349609375) (-0.00024376321411132812, 5.3515625) (-0.0002446265716552734, 5.353515625) (-0.00024514434814453125, 5.35546875) (-0.0002454266662597656, 5.357421875) (-0.00024551950073242187, 5.359375) (-0.0002453598937988281, 5.361328125) (-0.00024501736450195313, 5.36328125) (-0.0002446614990234375, 5.365234375) (-0.0002443929443359375, 5.3671875) (-0.0002442733459472656, 5.369140625) (-0.00024431088256835935, 5.37109375) (-0.00024443020629882813, 5.373046875) (-0.00024460067749023436, 5.375) (-0.0002448376922607422, 5.376953125) (-0.00024515736389160155, 5.37890625) (-0.00024559564208984373, 5.380859375) (-0.00024617259216308594, 5.3828125) (-0.0002468847198486328, 5.384765625) (-0.0002477285461425781, 5.38671875) (-0.00024869700622558595, 5.388671875) (-0.0002497821655273437, 5.390625) (-0.0002509771118164062, 5.392578125) (-0.00025226754760742184, 5.39453125) (-0.0002536307220458984, 5.396484375) (-0.00025504054260253907, 5.3984375) (-0.0002564668273925781, 5.400390625) (-0.00025787948608398434, 5.40234375) (-0.00025924951171874997, 5.404296875) (-0.0002605368347167969, 5.40625) (-0.0002616910705566406, 5.408203125) (-0.00026265344238281246, 5.41015625) (-0.0002633565979003906, 5.412109375) (-0.00026373547363281246, 5.4140625) (-0.00026372814941406247, 5.416015625) (-0.00026327191162109375, 5.41796875) (-0.0002623045654296875, 5.419921875) (-0.0002607625732421875, 5.421875) (-0.00025858258056640624, 5.423828125) (-0.00025570291137695314, 5.42578125) (-0.00025206320190429685, 5.427734375) (-0.00024760395812988283, 5.4296875) (-0.00024226678466796874, 5.431640625) (-0.00023599468994140623, 5.43359375) (-0.00022873455810546874, 5.435546875) (-0.0002204393310546875, 5.4375) (-0.00021106764221191405, 5.439453125) (-0.00020058482360839843, 5.44140625) (-0.0001889629211425781, 5.443359375) (-0.00017617987060546873, 5.4453125) (-0.00016222047424316406, 5.447265625) (-0.00014707691955566406, 5.44921875) (-0.00013074801635742188, 5.451171875) (-0.00011323960876464844, 5.453125) (-9.456475067138672e-05, 5.455078125) (-7.474371337890625e-05, 5.45703125) (-5.380438995361328e-05, 5.458984375) (-3.1782396316528316e-05, 5.4609375) (-8.720571517944335e-06, 5.462890625) (1.5331212043762207e-05, 5.46484375) (4.031650543212891e-05, 5.466796875) (6.617279052734374e-05, 5.46875) (9.283172607421874e-05, 5.470703125) (0.000120219970703125, 5.47265625) (0.00014825985717773437, 5.474609375) (0.00017686993408203125, 5.4765625) (0.0002059656066894531, 5.478515625) (0.0002354598388671875, 5.48046875) (0.00026526339721679685, 5.482421875) (0.0002952858276367187, 5.484375) (0.00032543603515625, 5.486328125) (0.00035562289428710936, 5.48828125) (0.00038575588989257813, 5.490234375) (0.00041574584960937496, 5.4921875) (0.0004455054016113281, 5.494140625) (0.0004749497985839844, 5.49609375) (0.0005039978637695312, 5.498046875) (0.0005325723266601562, 5.5) (0.000560600341796875, 5.501953125) (0.0005880142822265625, 5.50390625) (0.0006147518310546875, 5.505859375) (0.0006407564086914063, 5.5078125) (0.0006659779052734375, 5.509765625) (0.00069037255859375, 5.51171875) (0.0007139031982421874, 5.513671875) (0.0007365394897460938, 5.515625) (0.0007582577514648437, 5.517578125) (0.0007790411376953125, 5.51953125) (0.0007988798828124999, 5.521484375) (0.0008177708740234375, 5.5234375) (0.000835717041015625, 5.525390625) (0.0008527279052734374, 5.52734375) (0.0008688184814453125, 5.529296875) (0.0008840093994140624, 5.53125) (0.0008983260498046875, 5.533203125) (0.0009117980346679687, 5.53515625) (0.0009244592285156249, 5.537109375) (0.0009363463745117187, 5.5390625) (0.000947499267578125, 5.541015625) (0.0009579595947265625, 5.54296875) (0.0009677708740234375, 5.544921875) (0.0009769772949218749, 5.546875) (0.000985623779296875, 5.548828125) (0.0009937547607421875, 5.55078125) (0.0010014136962890625, 5.552734375) (0.0010086428833007812, 5.5546875) (0.001015482421875, 5.556640625) (0.0010219697265625, 5.55859375) (0.00102813916015625, 5.560546875) (0.001034021484375, 5.5625) (0.001039643310546875, 5.564453125) (0.0010450267333984374, 5.56640625) (0.0010501890869140625, 5.568359375) (0.001055142822265625, 5.5703125) (0.00105989453125, 5.572265625) (0.001064446044921875, 5.57421875) (0.001068792724609375, 5.576171875) (0.0010729250488281249, 5.578125) (0.0010768275146484374, 5.580078125) (0.0010804791259765624, 5.58203125) (0.0010838533935546874, 5.583984375) (0.0010869190673828124, 5.5859375) (0.001089639892578125, 5.587890625) (0.001091974853515625, 5.58984375) (0.001093879638671875, 5.591796875) (0.0010953059082031249, 5.59375) (0.0010962025146484375, 5.595703125) (0.001096515625, 5.59765625) (0.001096189453125, 5.599609375) (0.0010951669921875, 5.6015625) (0.0010933896484375, 5.603515625) (0.0010907994384765625, 5.60546875) (0.001087337890625, 5.607421875) (0.001082947509765625, 5.609375) (0.001077572509765625, 5.611328125) (0.001071158935546875, 5.61328125) (0.0010636551513671874, 5.615234375) (0.00105501318359375, 5.6171875) (0.001045188232421875, 5.619140625) (0.001034140625, 5.62109375) (0.0010218344116210937, 5.623046875) (0.0010082398681640625, 5.625) (0.00099333251953125, 5.626953125) (0.000977093994140625, 5.62890625) (0.0009595125122070312, 5.630859375) (0.0009405828857421874, 5.6328125) (0.0009203074340820313, 5.634765625) (0.0008986954345703125, 5.63671875) (0.0008757637939453125, 5.638671875) (0.00085153662109375, 5.640625) (0.0008260458984374999, 5.642578125) (0.0007993307495117188, 5.64453125) (0.0007714378662109374, 5.646484375) (0.0007424208374023437, 5.6484375) (0.0007123399658203125, 5.650390625) (0.00068126171875, 5.65234375) (0.0006492584838867187, 5.654296875) (0.0006164083862304688, 5.65625) (0.00058279443359375, 5.658203125) (0.0005485039672851563, 5.66015625) (0.000513628173828125, 5.662109375) (0.00047826129150390625, 5.6640625) (0.00044250054931640624, 5.666015625) (0.00040644525146484376, 5.66796875) (0.00037019625854492184, 5.669921875) (0.00033385540771484375, 5.671875) (0.00029752471923828126, 5.673828125) (0.00026130584716796873, 5.67578125) (0.0002252996368408203, 5.677734375) (0.00018960557556152343, 5.6796875) (0.0001543214874267578, 5.681640625) (0.00011954227447509765, 5.68359375) (8.535905456542968e-05, 5.685546875) (5.1858715057373045e-05, 5.6875) (1.9123201370239256e-05, 5.689453125) (-1.2770442008972168e-05, 5.69140625) (-4.375018310546875e-05, 5.693359375) (-7.37498321533203e-05, 5.6953125) (-0.00010270979309082031, 5.697265625) (-0.00013057733154296875, 5.69921875) (-0.00015730673217773436, 5.701171875) (-0.00018285848999023436, 5.703125) (-0.0002071991271972656, 5.705078125) (-0.00023030264282226562, 5.70703125) (-0.0002521507110595703, 5.708984375) (-0.00027273367309570314, 5.7109375) (-0.00029205105590820313, 5.712890625) (-0.00031010821533203125, 5.71484375) (-0.00032691488647460936, 5.716796875) (-0.00034248565673828123, 5.71875) (-0.00035683978271484375, 5.720703125) (-0.00037000207519531246, 5.72265625) (-0.0003820048828125, 5.724609375) (-0.0003928853149414062, 5.7265625) (-0.00040268261718749996, 5.728515625) (-0.0004114400634765625, 5.73046875) (-0.00041920654296874997, 5.732421875) (-0.0004260395812988281, 5.734375) (-0.0004320065002441406, 5.736328125) (-0.0004371776123046875, 5.73828125) (-0.00044162423706054686, 5.740234375) (-0.0004454145812988281, 5.7421875) (-0.00044861126708984375, 5.744140625) (-0.00045128268432617185, 5.74609375) (-0.00045350363159179683, 5.748046875) (-0.0004553513488769531, 5.75) (-0.00045690643310546873, 5.751953125) (-0.00045824365234375, 5.75390625) (-0.0004594248657226562, 5.755859375) (-0.00046050769042968746, 5.7578125) (-0.00046154931640625, 5.759765625) (-0.0004626005859375, 5.76171875) (-0.00046370227050781247, 5.763671875) (-0.0004648696594238281, 5.765625) (-0.0004660889282226562, 5.767578125) (-0.0004673398742675781, 5.76953125) (-0.00046859628295898437, 5.771484375) (-0.000469844482421875, 5.7734375) (-0.00047109185791015625, 5.775390625) (-0.00047231573486328124, 5.77734375) (-0.00047346798706054684, 5.779296875) (-0.00047447970581054687, 5.78125) (-0.00047523596191406247, 5.783203125) (-0.00047563925170898436, 5.78515625) (-0.0004756466369628906, 5.787109375) (-0.0004752184448242187, 5.7890625) (-0.0004743350830078125, 5.791015625) (-0.00047301116943359374, 5.79296875) (-0.00047121627807617184, 5.794921875) (-0.00046899285888671874, 5.796875) (-0.0004665471496582031, 5.798828125) (-0.0004640166015625, 5.80078125) (-0.00046146871948242186, 5.802734375) (-0.00045886874389648437, 5.8046875) (-0.00045583666992187496, 5.806640625) (-0.0004519682922363281, 5.80859375) (-0.0004472625122070312, 5.810546875) (-0.0004418726806640625, 5.8125) (-0.0004359834289550781, 5.814453125) (-0.00042997534179687496, 5.81640625) (-0.0004240896606445312, 5.818359375) (-0.00041890109252929684, 5.8203125) (-0.0004160501708984375, 5.822265625) (-0.00041743893432617183, 5.82421875) (-0.0004243136291503906, 5.826171875) (-0.00043579199218749995, 5.828125) (-0.00044904345703124997, 5.830078125) (-0.00046181396484374997, 5.83203125) (-0.0004722752990722656, 5.833984375) (-0.0004824329223632812, 5.8359375) (-0.0004971473999023437, 5.837890625) (-0.00051503857421875, 5.83984375) (-0.0005324989013671874, 5.841796875) (-0.0005411539916992187, 5.84375) (-0.0005249984130859375, 5.845703125) (-0.0004774594116210937, 5.84765625) (-0.00039810638427734374, 5.849609375) (-0.00029018603515625, 5.8515625) (-0.0001691248779296875, 5.853515625) (-4.849340057373047e-05, 5.85546875) (6.063471603393554e-05, 5.857421875) (0.00014434353637695312, 5.859375) (0.00019334425354003906, 5.861328125) (0.00020116424560546873, 5.86328125) (0.0001660552978515625, 5.865234375) (9.352091979980468e-05, 5.8671875) (-3.926109313964843e-06, 5.869140625) (-0.00010856922912597656, 5.87109375) (-0.00020395761108398436, 5.873046875) (-0.00027422528076171874, 5.875) (-0.00030697540283203126, 5.876953125) (-0.0002979201965332031, 5.87890625) (-0.00024727316284179685, 5.880859375) (-0.00015990362548828124, 5.8828125) (-4.87857437133789e-05, 5.884765625) (7.10596466064453e-05, 5.88671875) (0.0001846117401123047, 5.888671875) (0.0002750864868164062, 5.890625) (0.00033583099365234374, 5.892578125) (0.000369412109375, 5.89453125) (0.00038348300170898435, 5.896484375) (0.00039303527832031246, 5.8984375) (0.0004073804931640625, 5.900390625) (0.00042857431030273433, 5.90234375) (0.0004553383178710937, 5.904296875) (0.0004815881958007812, 5.90625) (0.0005043074340820312, 5.908203125) (0.0005241151123046875, 5.91015625) (0.00054230126953125, 5.912109375) (0.0005614815673828125, 5.9140625) (0.00058250048828125, 5.916015625) (0.0006045490722656249, 5.91796875) (0.0006268387451171875, 5.919921875) (0.0006482994384765624, 5.921875) (0.0006684743041992187, 5.923828125) (0.0006875252685546875, 5.92578125) (0.0007055048828125, 5.927734375) (0.0007225289306640625, 5.9296875) (0.0007386841430664062, 5.931640625) (0.0007538961181640625, 5.93359375) (0.0007681335449218749, 5.935546875) (0.0007813509521484375, 5.9375) (0.0007933970336914063, 5.939453125) (0.0008041153564453125, 5.94140625) (0.000813349365234375, 5.943359375) (0.0008209376831054687, 5.9453125) (0.0008267796020507812, 5.947265625) (0.0008308090209960937, 5.94921875) (0.0008329780273437499, 5.951171875) (0.0008332705078124999, 5.953125) (0.0008316666259765625, 5.955078125) (0.0008281473388671875, 5.95703125) (0.0008227120971679687, 5.958984375) (0.00081536767578125, 5.9609375) (0.0008061375732421875, 5.962890625) (0.0007950652465820312, 5.96484375) (0.0007821971435546874, 5.966796875) (0.0007675889892578124, 5.96875) (0.0007513086547851562, 5.970703125) (0.0007334232177734375, 5.97265625) (0.000714002197265625, 5.974609375) (0.0006931167602539062, 5.9765625) (0.0006708314208984375, 5.978515625) (0.0006472113037109374, 5.98046875) (0.00062232275390625, 5.982421875) (0.0005962316894531249, 5.984375) (0.0005690130615234374, 5.986328125) (0.0005407493896484375, 5.98828125) (0.0005115267333984375, 5.990234375) (0.0004814362487792969, 5.9921875) (0.00045057049560546874, 5.994140625) (0.00041902200317382813, 5.99609375) (0.00038688601684570313, 5.998046875) (0.00035425891113281246, 6.0) (0.000321236083984375, 6.001953125) (0.0002879132690429687, 6.00390625) (0.00025438540649414063, 6.005859375) (0.00022074620056152343, 6.0078125) (0.00018708944702148437, 6.009765625) (0.00015350765991210938, 6.01171875) (0.00012009111022949219, 6.013671875) (8.692771911621093e-05, 6.015625) (5.410158920288086e-05, 6.017578125) (2.1692626953125e-05, 6.01953125) (-1.0222968101501465e-05, 6.021484375) (-4.157311630249023e-05, 6.0234375) (-7.228982543945312e-05, 6.025390625) (-0.00010230905151367187, 6.02734375) (-0.0001315709991455078, 6.029296875) (-0.00016002014160156248, 6.03125) (-0.00018760481262207032, 6.033203125) (-0.00021427743530273436, 6.03515625) (-0.00023999438476562498, 6.037109375) (-0.00026471624755859376, 6.0390625) (-0.00028840771484374997, 6.041015625) (-0.00031103781127929684, 6.04296875) (-0.00033257995605468746, 6.044921875) (-0.0003530118713378906, 6.046875) (-0.0003723158569335937, 6.048828125) (-0.00039047869873046876, 6.05078125) (-0.00040749188232421874, 6.052734375) (-0.00042335137939453123, 6.0546875) (-0.0004380576477050781, 6.056640625) (-0.00045161532592773434, 6.05859375) (-0.00046403308105468746, 6.060546875) (-0.000475323486328125, 6.0625) (-0.00048550244140625, 6.064453125) (-0.0004945892333984374, 6.06640625) (-0.0005026059875488281, 6.068359375) (-0.000509577392578125, 6.0703125) (-0.0005155308837890625, 6.072265625) (-0.000520495849609375, 6.07421875) (-0.0005245041503906249, 6.076171875) (-0.0005275892333984375, 6.078125) (-0.0005297866821289062, 6.080078125) (-0.0005311334228515625, 6.08203125) (-0.0005316681518554687, 6.083984375) (-0.0005314310913085937, 6.0859375) (-0.000530463623046875, 6.087890625) (-0.0005288086547851562, 6.08984375) (-0.0005265101318359375, 6.091796875) (-0.0005236134033203125, 6.09375) (-0.0005201646728515625, 6.095703125) (-0.0005162117919921875, 6.09765625) (-0.0005118034057617187, 6.099609375) (-0.0005069893798828125, 6.1015625) (-0.0005018203430175781, 6.103515625) (-0.0004963480224609375, 6.10546875) (-0.0004906244812011718, 6.107421875) (-0.00048470223999023433, 6.109375) (-0.00047863388061523433, 6.111328125) (-0.00047247180175781245, 6.11328125) (-0.00046626788330078123, 6.115234375) (-0.00046007333374023437, 6.1171875) (-0.00045393844604492184, 6.119140625) (-0.00044791232299804684, 6.12109375) (-0.0004420430297851562, 6.123046875) (-0.0004363771057128906, 6.125) (-0.00043095971679687497, 6.126953125) (-0.00042583468627929683, 6.12890625) (-0.00042104388427734375, 6.130859375) (-0.000416627685546875, 6.1328125) (-0.0004126245727539062, 6.134765625) (-0.00040907089233398436, 6.13671875) (-0.00040600082397460936, 6.138671875) (-0.0004034462280273437, 6.140625) (-0.00040143649291992186, 6.142578125) (-0.000399998291015625, 6.14453125) (-0.00039915557861328125, 6.146484375) (-0.0003989294738769531, 6.1484375) (-0.0003993379211425781, 6.150390625) (-0.0004003957824707031, 6.15234375) (-0.00040211468505859375, 6.154296875) (-0.0004045027160644531, 6.15625) (-0.0004075642700195312, 6.158203125) (-0.0004112999572753906, 6.16015625) (-0.0004157063903808594, 6.162109375) (-0.0004207762451171875, 6.1640625) (-0.0004264978332519531, 6.166015625) (-0.0004328555908203125, 6.16796875) (-0.000439829833984375, 6.169921875) (-0.0004473968200683594, 6.171875) (-0.00045552917480468747, 6.173828125) (-0.0004641959838867187, 6.17578125) (-0.00047336297607421875, 6.177734375) (-0.0004829926147460937, 6.1796875) (-0.0004930447692871094, 6.181640625) (-0.000503476318359375, 6.18359375) (-0.00051424169921875, 6.185546875) (-0.0005252930908203125, 6.1875) (-0.0005365803833007812, 6.189453125) (-0.000548051513671875, 6.19140625) (-0.0005596527709960937, 6.193359375) (-0.0005713287353515625, 6.1953125) (-0.0005830228271484375, 6.197265625) (-0.0005946776123046875, 6.19921875) (-0.0006062349853515625, 6.201171875) (-0.0006176363525390625, 6.203125) (-0.0006288231201171875, 6.205078125) (-0.0006397370605468749, 6.20703125) (-0.0006503201293945312, 6.208984375) (-0.0006605153808593749, 6.2109375) (-0.0006702666015625, 6.212890625) (-0.0006795193481445312, 6.21484375) (-0.0006882205810546875, 6.216796875) (-0.0006963193969726562, 6.21875) (-0.0007037674560546875, 6.220703125) (-0.0007105190429687499, 6.22265625) (-0.0007165317993164062, 6.224609375) (-0.0007217669677734374, 6.2265625) (-0.0007261895141601562, 6.228515625) (-0.0007297686767578124, 6.23046875) (-0.000732478271484375, 6.232421875) (-0.0007342959594726562, 6.234375) (-0.0007352046508789063, 6.236328125) (-0.00073519140625, 6.23828125) (-0.0007342481689453124, 6.240234375) (-0.000732371337890625, 6.2421875) (-0.0007295620727539062, 6.244140625) (-0.0007258259277343749, 6.24609375) (-0.0007211732177734375, 6.248046875) (-0.0007156185302734375, 6.25) (-0.0007091814575195312, 6.251953125) (-0.0007018858642578124, 6.25390625) (-0.000693760009765625, 6.255859375) (-0.0006848363037109374, 6.2578125) (-0.0006751513061523437, 6.259765625) (-0.0006647453002929687, 6.26171875) (-0.0006536622314453125, 6.263671875) (-0.0006419490966796874, 6.265625) (-0.0006296563110351562, 6.267578125) (-0.0006168367919921875, 6.26953125) (-0.0006035458984375, 6.271484375) (-0.0005898414306640625, 6.2734375) (-0.0005757831420898438, 6.275390625) (-0.0005614326171875, 6.27734375) (-0.0005468526000976563, 6.279296875) (-0.0005321064453125, 6.28125) (-0.0005172581176757813, 6.283203125) (-0.0005023714904785156, 6.28515625) (-0.0004875101318359375, 6.287109375) (-0.0004727363891601562, 6.2890625) (-0.00045811080932617185, 6.291015625) (-0.0004436918029785156, 6.29296875) (-0.0004295351867675781, 6.294921875) (-0.0004156944580078125, 6.296875) (-0.00040222030639648436, 6.298828125) (-0.00038916015624999997, 6.30078125) (-0.0003765580444335937, 6.302734375) (-0.0003644542846679687, 6.3046875) (-0.00035288595581054686, 6.306640625) (-0.0003418867797851562, 6.30859375) (-0.0003314871215820312, 6.310546875) (-0.00032171334838867186, 6.3125) (-0.0003125871887207031, 6.314453125) (-0.00030412609863281247, 6.31640625) (-0.00029634332275390625, 6.318359375) (-0.00028924816894531247, 6.3203125) (-0.0002828462524414062, 6.322265625) (-0.00027713928222656246, 6.32421875) (-0.00027212518310546874, 6.326171875) (-0.00026779812622070313, 6.328125) (-0.00026414926147460936, 6.330078125) (-0.00026116668701171874, 6.33203125) (-0.00025883605957031247, 6.333984375) (-0.00025714013671875, 6.3359375) (-0.0002560584716796875, 6.337890625) (-0.00025556738281249996, 6.33984375) (-0.0002556408538818359, 6.341796875) (-0.00025625146484375, 6.34375) (-0.00025737054443359373, 6.345703125) (-0.0002589678039550781, 6.34765625) (-0.00026101187133789063, 6.349609375) (-0.0002634708557128906, 6.3515625) (-0.00026631353759765623, 6.353515625) (-0.0002695106811523437, 6.35546875) (-0.00027303427124023434, 6.357421875) (-0.00027685675048828124, 6.359375) (-0.0002809513854980469, 6.361328125) (-0.00028529290771484375, 6.36328125) (-0.00028985812377929686, 6.365234375) (-0.0002946260070800781, 6.3671875) (-0.000299576171875, 6.369140625) (-0.0003046878967285156, 6.37109375) (-0.0003099405212402344, 6.373046875) (-0.000315315185546875, 6.375) (-0.00032079522705078125, 6.376953125) (-0.00032636657714843747, 6.37890625) (-0.00033201708984375, 6.380859375) (-0.000337735595703125, 6.3828125) (-0.0003435123291015625, 6.384765625) (-0.0003493385620117187, 6.38671875) (-0.0003552068481445312, 6.388671875) (-0.00036111056518554685, 6.390625) (-0.0003670425415039062, 6.392578125) (-0.0003729945068359375, 6.39453125) (-0.00037895715332031247, 6.396484375) (-0.00038491986083984375, 6.3984375) (-0.0003908716125488281, 6.400390625) (-0.0003968026123046875, 6.40234375) (-0.00040270269775390626, 6.404296875) 