(-0.00017280090332031248, 0.0) (-0.00018033798217773436, 0.001953125) (-0.00018724411010742186, 0.00390625) (-0.00019329611206054688, 0.005859375) (-0.00019832769775390624, 0.0078125) (-0.00020221986389160155, 0.009765625) (-0.0002048716583251953, 0.01171875) (-0.0002062067413330078, 0.013671875) (-0.00020618643188476563, 0.015625) (-0.00020479214477539062, 0.017578125) (-0.00020203480529785157, 0.01953125) (-0.00019795912170410154, 0.021484375) (-0.00019258874511718748, 0.0234375) (-0.00018594265747070313, 0.025390625) (-0.00017806703186035156, 0.02734375) (-0.00016903619384765626, 0.029296875) (-0.0001589780731201172, 0.03125) (-0.0001480617218017578, 0.033203125) (-0.00013646897888183594, 0.03515625) (-0.00012436624145507812, 0.037109375) (-0.00011188813018798828, 0.0390625) (-9.91448745727539e-05, 0.041015625) (-8.623919677734374e-05, 0.04296875) (-7.327674865722655e-05, 0.044921875) (-6.034360885620117e-05, 0.046875) (-4.752009201049804e-05, 0.048828125) (-3.488840103149414e-05, 0.05078125) (-2.252510452270508e-05, 0.052734375) (-1.0546099662780761e-05, 0.0546875) (9.172255992889404e-07, 0.056640625) (1.177070426940918e-05, 0.05859375) (2.195140266418457e-05, 0.060546875) (3.142791366577148e-05, 0.0625) (4.020399475097656e-05, 0.064453125) (4.829014205932617e-05, 0.06640625) (5.567280578613281e-05, 0.068359375) (6.233876037597656e-05, 0.0703125) (6.8271728515625e-05, 0.072265625) (7.344599914550781e-05, 0.07421875) (7.786184692382813e-05, 0.076171875) (8.152287292480469e-05, 0.078125) (8.44466323852539e-05, 0.080078125) (8.669047546386718e-05, 0.08203125) (8.833667755126953e-05, 0.083984375) (8.951226043701171e-05, 0.0859375) (9.036577606201171e-05, 0.087890625) (9.101590728759765e-05, 0.08984375) (9.155633544921875e-05, 0.091796875) (9.208097839355468e-05, 0.09375) (9.267009735107422e-05, 0.095703125) (9.340472412109375e-05, 0.09765625) (9.440042114257812e-05, 0.099609375) (9.57572021484375e-05, 0.1015625) (9.757442474365234e-05, 0.103515625) (9.998052215576172e-05, 0.10546875) (0.00010307555389404296, 0.107421875) (0.00010693919372558593, 0.109375) (0.00011162680053710937, 0.111328125) (0.0001171357421875, 0.11328125) (0.00012342628479003907, 0.115234375) (0.00013043397521972656, 0.1171875) (0.0001380726623535156, 0.119140625) (0.0001462634582519531, 0.12109375) (0.00015494696044921874, 0.123046875) (0.00016404241943359375, 0.125) (0.00017346745300292967, 0.126953125) (0.00018314584350585935, 0.12890625) (0.0001929597473144531, 0.130859375) (0.00020279405212402342, 0.1328125) (0.00021252728271484373, 0.134765625) (0.00022199044799804687, 0.13671875) (0.00023102496337890625, 0.138671875) (0.00023950302124023436, 0.140625) (0.000247318115234375, 0.142578125) (0.0002544082641601562, 0.14453125) (0.00026074462890625, 0.146484375) (0.0002662964782714844, 0.1484375) (0.00027104681396484376, 0.150390625) (0.00027499212646484375, 0.15234375) (0.0002781112670898437, 0.154296875) (0.0002803980712890625, 0.15625) (0.00028184643554687497, 0.158203125) (0.0002824306640625, 0.16015625) (0.000282159912109375, 0.162109375) (0.000281063232421875, 0.1640625) (0.00027918267822265626, 0.166015625) (0.0002766040649414062, 0.16796875) (0.0002734228210449219, 0.169921875) (0.0002697044677734375, 0.171875) (0.0002655005493164062, 0.173828125) (0.00026084924316406246, 0.17578125) (0.00025576794433593747, 0.177734375) (0.000250285888671875, 0.1796875) (0.0002444301605224609, 0.181640625) (0.00023821180725097654, 0.18359375) (0.00023165643310546873, 0.185546875) (0.00022479673767089844, 0.1875) (0.00021767941284179685, 0.189453125) (0.00021037001037597656, 0.19140625) (0.00020291500854492187, 0.193359375) (0.0001953356475830078, 0.1953125) (0.00018763812255859373, 0.197265625) (0.00017980889892578125, 0.19921875) (0.00017182521057128905, 0.201171875) (0.00016368222045898436, 0.203125) (0.00015538223266601563, 0.205078125) (0.00014692221069335937, 0.20703125) (0.00013830404663085937, 0.208984375) (0.00012952262878417967, 0.2109375) (0.00012057396697998046, 0.212890625) (0.00011145681762695312, 0.21484375) (0.00010216117858886718, 0.216796875) (9.266641235351561e-05, 0.21875) (8.292890930175781e-05, 0.220703125) (7.290296173095703e-05, 0.22265625) (6.256364440917968e-05, 0.224609375) (5.190522003173828e-05, 0.2265625) (4.093858337402344e-05, 0.228515625) (2.9681392669677734e-05, 0.23046875) (1.8148420333862304e-05, 0.232421875) (6.345405101776123e-06, 0.234375) (-5.709779739379883e-06, 0.236328125) (-1.7974132537841797e-05, 0.23828125) (-3.0392860412597655e-05, 0.240234375) (-4.289645385742187e-05, 0.2421875) (-5.541569519042969e-05, 0.244140625) (-6.787767028808593e-05, 0.24609375) (-8.019645690917968e-05, 0.248046875) (-9.225950622558593e-05, 0.25) (-0.00010392462158203125, 0.251953125) (-0.00011509352111816406, 0.25390625) (-0.00012569377136230467, 0.255859375) (-0.00013565542602539063, 0.2578125) (-0.00014492376708984375, 0.259765625) (-0.0001534046630859375, 0.26171875) (-0.00016096096801757813, 0.263671875) (-0.00016751039123535154, 0.265625) (-0.00017302954101562499, 0.267578125) (-0.000177366943359375, 0.26953125) (-0.00018037326049804686, 0.271484375) (-0.00018214381408691404, 0.2734375) (-0.0001826882629394531, 0.275390625) (-0.00018202822875976562, 0.27734375) (-0.00018053369140625, 0.279296875) (-0.00017757133483886718, 0.28125) (-0.0001725635986328125, 0.283203125) (-0.00016669528198242186, 0.28515625) (-0.00016041056823730467, 0.287109375) (-0.00015573304748535156, 0.2890625) (-0.00015508547973632812, 0.291015625) (-0.00015614520263671874, 0.29296875) (-0.00015746014404296874, 0.294921875) (-0.00015680639648437498, 0.296875) (-0.00015098448181152343, 0.298828125) (-0.00014317710876464844, 0.30078125) (-0.00013610350036621094, 0.302734375) (-0.00013162484741210937, 0.3046875) (-0.00013274194335937499, 0.306640625) (-0.00013749183654785155, 0.30859375) (-0.00014380795288085937, 0.310546875) (-0.00015122238159179688, 0.3125) (-0.0001584239501953125, 0.314453125) (-0.00016606748962402342, 0.31640625) (-0.00017502355957031248, 0.318359375) (-0.00018501171874999998, 0.3203125) (-0.00019599220275878906, 0.322265625) (-0.0002077205810546875, 0.32421875) (-0.00021978222656249998, 0.326171875) (-0.0002320170440673828, 0.328125) (-0.00024427645874023436, 0.330078125) (-0.0002562965393066406, 0.33203125) (-0.00026781954956054684, 0.333984375) (-0.0002786557006835937, 0.3359375) (-0.0002886058654785156, 0.337890625) (-0.0002974592895507812, 0.33984375) (-0.00030508224487304684, 0.341796875) (-0.0003113665466308594, 0.34375) (-0.0003162187805175781, 0.345703125) (-0.00031962646484374996, 0.34765625) (-0.0003215912170410156, 0.349609375) (-0.00032211737060546875, 0.3515625) (-0.00032127743530273436, 0.353515625) (-0.00031917291259765624, 0.35546875) (-0.00031592770385742186, 0.357421875) (-0.00031172518920898436, 0.359375) (-0.00030673495483398436, 0.361328125) (-0.00030111334228515626, 0.36328125) (-0.00029504754638671874, 0.365234375) (-0.0002886926574707031, 0.3671875) (-0.0002821896057128906, 0.369140625) (-0.0002756910400390625, 0.37109375) (-0.0002693004760742187, 0.373046875) (-0.00026308892822265626, 0.375) (-0.00025712539672851563, 0.376953125) (-0.00025144732666015625, 0.37890625) (-0.0002460744934082031, 0.380859375) (-0.00024102404785156248, 0.3828125) (-0.00023627645874023436, 0.384765625) (-0.00023179029846191404, 0.38671875) (-0.00022752210998535155, 0.388671875) (-0.00022340109252929686, 0.390625) (-0.00021935601806640623, 0.392578125) (-0.00021531854248046874, 0.39453125) (-0.00021119992065429685, 0.396484375) (-0.00020693070983886718, 0.3984375) (-0.00020245915222167967, 0.400390625) (-0.0001977314453125, 0.40234375) (-0.00019271693420410156, 0.404296875) (-0.00018740142822265625, 0.40625) (-0.00018176852416992186, 0.408203125) (-0.00017581634521484374, 0.41015625) (-0.00016955624389648438, 0.412109375) (-0.0001629957580566406, 0.4140625) (-0.00015615252685546874, 0.416015625) (-0.0001490528869628906, 0.41796875) (-0.00014171751403808594, 0.419921875) (-0.00013417579650878907, 0.421875) (-0.00012646217346191406, 0.423828125) (-0.00011861083984375, 0.42578125) (-0.00011066365051269531, 0.427734375) (-0.00010265541076660156, 0.4296875) (-9.461062622070312e-05, 0.431640625) (-8.655198669433593e-05, 0.43359375) (-7.849660491943358e-05, 0.435546875) (-7.04570541381836e-05, 0.4375) (-6.244687271118163e-05, 0.439453125) (-5.447514724731445e-05, 0.44140625) (-4.654511260986328e-05, 0.443359375) (-3.866396331787109e-05, 0.4453125) (-3.084023666381836e-05, 0.447265625) (-2.3081813812255857e-05, 0.44921875) (-1.540030574798584e-05, 0.451171875) (-7.80576992034912e-06, 0.453125) (-3.056521415710449e-07, 0.455078125) (7.09204626083374e-06, 0.45703125) (1.4379844665527344e-05, 0.458984375) (2.154940032958984e-05, 0.4609375) (2.858997344970703e-05, 0.462890625) (3.5489952087402344e-05, 0.46484375) (4.223786163330078e-05, 0.466796875) (4.882142639160156e-05, 0.46875) (5.5227905273437496e-05, 0.470703125) (6.144367218017578e-05, 0.47265625) (6.745382690429687e-05, 0.474609375) (7.324467468261718e-05, 0.4765625) (7.880397796630859e-05, 0.478515625) (8.412007141113281e-05, 0.48046875) (8.918205261230468e-05, 0.482421875) (9.39789581298828e-05, 0.484375) (9.849989318847656e-05, 0.486328125) (0.00010273483276367187, 0.48828125) (0.00010667478942871093, 0.490234375) (0.00011031098175048827, 0.4921875) (0.00011363495635986328, 0.494140625) (0.00011663871765136718, 0.49609375) (0.00011931478881835938, 0.498046875) (0.00012165678405761719, 0.5) (0.00012365948486328126, 0.501953125) (0.00012531861114501951, 0.50390625) (0.0001266308135986328, 0.505859375) (0.00012759373474121094, 0.5078125) (0.00012820614624023437, 0.509765625) (0.0001284678955078125, 0.51171875) (0.00012838003540039061, 0.513671875) (0.00012794479370117188, 0.515625) (0.00012716520690917967, 0.517578125) (0.00012604513549804687, 0.51953125) (0.0001245894088745117, 0.521484375) (0.0001228036651611328, 0.5234375) (0.00012069459533691405, 0.525390625) (0.000118269775390625, 0.52734375) (0.00011553748321533202, 0.529296875) (0.00011250664520263672, 0.53125) (0.00010918704986572265, 0.533203125) (0.00010558927154541015, 0.53515625) (0.0001017247314453125, 0.537109375) (9.760561370849609e-05, 0.5390625) (9.324468231201172e-05, 0.541015625) (8.86552734375e-05, 0.54296875) (8.385136413574218e-05, 0.544921875) (7.884742736816406e-05, 0.546875) (7.365836334228515e-05, 0.548828125) (6.829939270019531e-05, 0.55078125) (6.27858657836914e-05, 0.552734375) (5.7133388519287106e-05, 0.5546875) (5.135777282714844e-05, 0.556640625) (4.547486114501953e-05, 0.55859375) (3.950049591064453e-05, 0.560546875) (3.34504165649414e-05, 0.5625) (2.7340112686157225e-05, 0.564453125) (2.1184762954711913e-05, 0.56640625) (1.4999204635620117e-05, 0.568359375) (8.797744750976562e-06, 0.5703125) (2.594130992889404e-06, 0.572265625) (-3.5984883308410645e-06, 0.57421875) (-9.767662048339844e-06, 0.576171875) (-1.5901592254638672e-05, 0.578125) (-2.198908233642578e-05, 0.580078125) (-2.8019542694091797e-05, 0.58203125) (-3.3982963562011716e-05, 0.583984375) (-3.98698844909668e-05, 0.5859375) (-4.567147064208984e-05, 0.587890625) (-5.137947845458984e-05, 0.58984375) (-5.698628234863281e-05, 0.591796875) (-6.248484802246094e-05, 0.59375) (-6.78688507080078e-05, 0.595703125) (-7.313265228271484e-05, 0.59765625) (-7.827142333984374e-05, 0.599609375) (-8.328104400634766e-05, 0.6015625) (-8.815815734863281e-05, 0.603515625) (-9.290008544921874e-05, 0.60546875) (-9.750485229492187e-05, 0.607421875) (-0.00010197113037109374, 0.609375) (-0.00010629819488525391, 0.611328125) (-0.0001104859390258789, 0.61328125) (-0.00011453474426269531, 0.615234375) (-0.0001184455337524414, 0.6171875) (-0.0001222196807861328, 0.619140625) (-0.00012585894775390624, 0.62109375) (-0.00012936549377441406, 0.623046875) (-0.00013274177551269532, 0.625) (-0.000135990478515625, 0.626953125) (-0.00013911444091796874, 0.62890625) (-0.00014211654663085936, 0.630859375) (-0.00014499967956542968, 0.6328125) (-0.0001477667236328125, 0.634765625) (-0.00015042047119140625, 0.63671875) (-0.000152963623046875, 0.638671875) (-0.00015539871215820313, 0.640625) (-0.00015772827148437498, 0.642578125) (-0.00015995472717285155, 0.64453125) (-0.00016208050537109373, 0.646484375) (-0.0001641079864501953, 0.6484375) (-0.00016603961181640625, 0.650390625) (-0.00016787771606445313, 0.65234375) (-0.00016962467956542967, 0.654296875) (-0.00017128279113769532, 0.65625) (-0.00017285433959960937, 0.658203125) (-0.00017434152221679685, 0.66015625) (-0.00017574636840820312, 0.662109375) (-0.00017707080078125, 0.6640625) (-0.00017831658935546873, 0.666015625) (-0.00017948538208007811, 0.66796875) (-0.0001805786590576172, 0.669921875) (-0.00018159771728515624, 0.671875) (-0.00018254376220703123, 0.673828125) (-0.00018341773986816406, 0.67578125) (-0.00018422048950195313, 0.677734375) (-0.00018495265197753904, 0.6796875) (-0.0001856148681640625, 0.681640625) (-0.00018620755004882813, 0.68359375) (-0.00018673110961914063, 0.685546875) (-0.00018718594360351561, 0.6875) (-0.00018757238769531248, 0.689453125) (-0.000187890869140625, 0.69140625) (-0.0001881419677734375, 0.693359375) (-0.00018832638549804687, 0.6953125) (-0.00018844491577148437, 0.697265625) (-0.00018849856567382812, 0.69921875) (-0.00018848849487304687, 0.701171875) (-0.00018841606140136718, 0.703125) (-0.0001882828369140625, 0.705078125) (-0.0001880905303955078, 0.70703125) (-0.0001878408966064453, 0.708984375) (-0.00018753582763671875, 0.7109375) (-0.00018717697143554686, 0.712890625) (-0.00018676586914062498, 0.71484375) (-0.0001863043212890625, 0.716796875) (-0.0001857939758300781, 0.71875) (-0.00018523594665527344, 0.720703125) (-0.0001846316223144531, 0.72265625) (-0.0001839812316894531, 0.724609375) (-0.00018328454589843749, 0.7265625) (-0.00018254408264160155, 0.728515625) (-0.00018176214599609374, 0.73046875) (-0.00018093960571289062, 0.732421875) (-0.0001800781555175781, 0.734375) (-0.00017917753601074218, 0.736328125) (-0.00017823544311523437, 0.73828125) (-0.00017725653076171874, 0.740234375) (-0.00017624606323242187, 0.7421875) (-0.00017519590759277343, 0.744140625) (-0.0001741001434326172, 0.74609375) (-0.00017295420837402342, 0.748046875) (-0.0001717499084472656, 0.75) (-0.00017049549865722657, 0.751953125) (-0.00016920614624023436, 0.75390625) (-0.0001678714599609375, 0.755859375) (-0.00016648007202148436, 0.7578125) (-0.00016506321716308592, 0.759765625) (-0.0001636451416015625, 0.76171875) (-0.00016224314880371093, 0.763671875) (-0.00016088275146484374, 0.765625) (-0.00015954380798339842, 0.767578125) (-0.00015818319702148436, 0.76953125) (-0.00015681881713867186, 0.771484375) (-0.00015549151611328124, 0.7734375) (-0.00015407350158691405, 0.775390625) (-0.00015241160583496092, 0.77734375) (-0.00015060025024414062, 0.779296875) (-0.00014864533996582032, 0.78125) (-0.00014650988769531248, 0.783203125) (-0.00014449673461914062, 0.78515625) (-0.00014179132080078126, 0.787109375) (-0.00013759567260742187, 0.7890625) (-0.00013309991455078124, 0.791015625) (-0.00012868705749511717, 0.79296875) (-0.00012649291229248046, 0.794921875) (-0.0001290571746826172, 0.796875) (-0.00013355392456054687, 0.798828125) (-0.00013812712097167968, 0.80078125) (-0.0001398421630859375, 0.802734375) (-0.00013468733215332032, 0.8046875) (-0.0001261832275390625, 0.806640625) (-0.0001172427520751953, 0.80859375) (-0.00010984412384033203, 0.810546875) (-0.00010756735229492187, 0.8125) (-0.00010731655120849608, 0.814453125) (-0.00010598409271240234, 0.81640625) (-0.00010406971740722656, 0.818359375) (-0.00010043058776855468, 0.8203125) (-9.780448913574218e-05, 0.822265625) (-9.954290771484375e-05, 0.82421875) (-0.00010294132995605468, 0.826171875) (-0.00010647576141357421, 0.828125) (-0.00010759560394287108, 0.830078125) (-0.00010267472839355469, 0.83203125) (-9.487609863281249e-05, 0.833984375) (-8.687432861328125e-05, 0.8359375) (-8.038518524169921e-05, 0.837890625) (-7.829670715332031e-05, 0.83984375) (-7.855430603027344e-05, 0.841796875) (-7.905720520019531e-05, 0.84375) (-7.932900238037109e-05, 0.845703125) (-7.808467102050781e-05, 0.84765625) (-7.604293823242188e-05, 0.849609375) (-7.41300048828125e-05, 0.8515625) (-7.217034912109375e-05, 0.853515625) (-7.029107666015625e-05, 0.85546875) (-6.841868591308594e-05, 0.857421875) (-6.635507202148437e-05, 0.859375) (-6.422149658203125e-05, 0.861328125) (-6.211121368408203e-05, 0.86328125) (-5.998633575439453e-05, 0.865234375) (-5.783440399169921e-05, 0.8671875) (-5.5656280517578123e-05, 0.869140625) (-5.3438545227050776e-05, 0.87109375) (-5.116523742675781e-05, 0.873046875) (-4.882265090942383e-05, 0.875) (-4.63823356628418e-05, 0.876953125) (-4.381241607666015e-05, 0.87890625) (-4.111079406738281e-05, 0.880859375) (-3.827711868286133e-05, 0.8828125) (-3.530194091796875e-05, 0.884765625) (-3.217854690551758e-05, 0.88671875) (-2.8897846221923827e-05, 0.888671875) (-2.5447616577148437e-05, 0.890625) (-2.1817054748535154e-05, 0.892578125) (-1.8000776290893554e-05, 0.89453125) (-1.399558162689209e-05, 0.896484375) (-9.79985237121582e-06, 0.8984375) (-5.415169239044189e-06, 0.900390625) (-8.46331238746643e-07, 0.90234375) (3.898232460021973e-06, 0.904296875) (8.800577163696289e-06, 0.90625) (1.383224105834961e-05, 0.908203125) (1.8968210220336912e-05, 0.91015625) (2.4186954498291016e-05, 0.912109375) (2.9469566345214844e-05, 0.9140625) (3.4803871154785155e-05, 0.916015625) (4.01700439453125e-05, 0.91796875) (4.5542125701904295e-05, 0.919921875) (5.089753723144531e-05, 0.921875) (5.6215759277343746e-05, 0.923828125) (6.148745727539062e-05, 0.92578125) (6.671483612060546e-05, 0.927734375) (7.190023803710938e-05, 0.9296875) (7.704498291015625e-05, 0.931640625) (8.216387939453124e-05, 0.93359375) (8.728598785400391e-05, 0.935546875) (9.245686340332031e-05, 0.9375) (9.774073028564452e-05, 0.939453125) (0.0001031850814819336, 0.94140625) (0.00010882147216796874, 0.943359375) (0.00011467922210693358, 0.9453125) (0.00012077828979492187, 0.947265625) (0.0001271468811035156, 0.94921875) (0.00013381167602539062, 0.951171875) (0.00014077261352539062, 0.953125) (0.0001480048828125, 0.955078125) (0.00015546440124511717, 0.95703125) (0.0001630902404785156, 0.958984375) (0.0001708142395019531, 0.9609375) (0.00017856721496582032, 0.962890625) (0.00018624658203124998, 0.96484375) (0.00019371533203125, 0.966796875) (0.0002008229522705078, 0.96875) (0.0002074027404785156, 0.970703125) (0.0002133119201660156, 0.97265625) (0.00021842950439453123, 0.974609375) (0.00022262655639648435, 0.9765625) (0.0002257734680175781, 0.978515625) (0.00022774134826660154, 0.98046875) (0.0002284256134033203, 0.982421875) (0.0002277750549316406, 0.984375) (0.0002257882843017578, 0.986328125) (0.00022248724365234374, 0.98828125) (0.00021791329956054686, 0.990234375) (0.0002121327209472656, 0.9921875) (0.00020522564697265624, 0.994140625) (0.0001973242950439453, 0.99609375) (0.00018861022949218749, 0.998046875) (0.0001792667999267578, 1.0) (0.00016948721313476563, 1.001953125) (0.00015945826721191404, 1.00390625) (0.00014935980224609375, 1.005859375) (0.0001394007873535156, 1.0078125) (0.00012981869506835936, 1.009765625) (0.00012084532165527343, 1.01171875) (0.00011267583465576172, 1.013671875) (0.00010545693206787109, 1.015625) (9.928813934326172e-05, 1.017578125) (9.425489044189453e-05, 1.01953125) (9.043395233154296e-05, 1.021484375) (8.787124633789062e-05, 1.0234375) (8.65902862548828e-05, 1.025390625) (8.657128906249999e-05, 1.02734375) (8.775790405273437e-05, 1.029296875) (9.010538482666015e-05, 1.03125) (9.35676040649414e-05, 1.033203125) (9.808223724365234e-05, 1.03515625) (0.0001035770263671875, 1.037109375) (0.00010994612121582031, 1.0390625) (0.00011703526306152343, 1.041015625) (0.0001246865005493164, 1.04296875) (0.0001327667541503906, 1.044921875) (0.00014115866088867187, 1.046875) (0.00014976281738281248, 1.048828125) (0.00015848497009277344, 1.05078125) (0.00016722537231445312, 1.052734375) (0.00017588339233398436, 1.0546875) (0.0001843643035888672, 1.056640625) (0.00019259030151367186, 1.05859375) (0.000200480224609375, 1.060546875) (0.00020794622802734373, 1.0625) (0.00021492916870117186, 1.064453125) (0.0002213865966796875, 1.06640625) (0.00022727175903320312, 1.068359375) (0.00023258839416503906, 1.0703125) (0.00023738694763183592, 1.072265625) (0.00024168864440917968, 1.07421875) (0.00024553695678710937, 1.076171875) (0.00024898756408691405, 1.078125) (0.0002520162353515625, 1.080078125) (0.0002545675354003906, 1.08203125) (0.00025659881591796874, 1.083984375) (0.00025798937988281246, 1.0859375) (0.00025860910034179686, 1.087890625) (0.000258763671875, 1.08984375) (0.0002589549560546875, 1.091796875) (0.00025935601806640626, 1.09375) (0.0002603227844238281, 1.095703125) (0.0002615516662597656, 1.09765625) (0.00026184112548828124, 1.099609375) (0.00026183151245117185, 1.1015625) (0.00026285437011718747, 1.103515625) (0.000266696533203125, 1.10546875) (0.0002777416381835937, 1.107421875) (0.0002964617309570312, 1.109375) (0.00031900119018554685, 1.111328125) (0.00034020556640624997, 1.11328125) (0.00035007745361328123, 1.115234375) (0.00034400106811523435, 1.1171875) (0.0003268606567382812, 1.119140625) (0.00030708078002929684, 1.12109375) (0.00029831396484375, 1.123046875) (0.00030895462036132813, 1.125) (0.0003370520629882812, 1.126953125) (0.00037730297851562496, 1.12890625) (0.00042279513549804687, 1.130859375) (0.00047020776367187497, 1.1328125) (0.0005201168212890625, 1.134765625) (0.0005712050170898437, 1.13671875) (0.0006169534912109374, 1.138671875) (0.000647529052734375, 1.140625) (0.0006553860473632813, 1.142578125) (0.0006395698852539062, 1.14453125) (0.000609193359375, 1.146484375) (0.0005784356689453125, 1.1484375) (0.0005599423828125, 1.150390625) (0.0005607291259765625, 1.15234375) (0.0005783167724609375, 1.154296875) (0.0006047952270507813, 1.15625) (0.0006304134521484374, 1.158203125) (0.0006478251342773437, 1.16015625) (0.0006558178710937499, 1.162109375) (0.000656703369140625, 1.1640625) (0.0006551112060546875, 1.166015625) (0.000654810546875, 1.16796875) (0.0006564483032226562, 1.169921875) (0.0006593197021484375, 1.171875) (0.0006620451049804688, 1.173828125) (0.0006638676757812499, 1.17578125) (0.0006651987304687499, 1.177734375) (0.0006666613159179687, 1.1796875) (0.0006686168823242187, 1.181640625) (0.0006710535278320312, 1.18359375) (0.0006737410888671874, 1.185546875) (0.0006764798583984375, 1.1875) (0.0006792125244140624, 1.189453125) (0.0006819278564453125, 1.19140625) (0.0006845631713867187, 1.193359375) (0.0006870422363281249, 1.1953125) (0.0006893186035156249, 1.197265625) (0.0006913635864257813, 1.19921875) (0.0006931846923828124, 1.201171875) (0.0006947954711914062, 1.203125) (0.0006961703491210938, 1.205078125) (0.0006972918701171875, 1.20703125) (0.0006981470947265625, 1.208984375) (0.0006987164306640625, 1.2109375) (0.0006990035400390624, 1.212890625) (0.0006990258178710937, 1.21484375) (0.00069880126953125, 1.216796875) (0.000698357177734375, 1.21875) (0.0006977216796875, 1.220703125) (0.0006969122924804687, 1.22265625) (0.0006959537353515624, 1.224609375) (0.0006948740234374999, 1.2265625) (0.0006937027587890624, 1.228515625) (0.000692476806640625, 1.23046875) (0.0006912216796875, 1.232421875) (0.0006899542236328125, 1.234375) (0.0006886917724609375, 1.236328125) (0.0006874483032226562, 1.23828125) (0.0006862384033203125, 1.240234375) (0.00068507861328125, 1.2421875) (0.0006839765014648437, 1.244140625) (0.000682931640625, 1.24609375) (0.0006819453124999999, 1.248046875) (0.0006810185546875, 1.25) (0.0006801524658203125, 1.251953125) (0.0006793516845703125, 1.25390625) (0.0006786166381835937, 1.255859375) (0.000677944091796875, 1.2578125) (0.0006773309326171874, 1.259765625) (0.0006767730712890625, 1.26171875) (0.000676267333984375, 1.263671875) (0.0006758126220703125, 1.265625) (0.0006754071044921875, 1.267578125) (0.000675047607421875, 1.26953125) (0.0006747317504882812, 1.271484375) (0.0006744566650390625, 1.2734375) (0.0006742206420898438, 1.275390625) (0.0006740230712890625, 1.27734375) (0.0006738620605468749, 1.279296875) (0.0006737340698242187, 1.28125) (0.0006736353149414062, 1.283203125) (0.0006735614013671875, 1.28515625) (0.0006735081787109375, 1.287109375) (0.0006734718017578125, 1.2890625) (0.0006734479980468749, 1.291015625) (0.000673431396484375, 1.29296875) (0.0006734173583984375, 1.294921875) (0.0006734012451171875, 1.296875) (0.0006733783569335938, 1.298828125) (0.0006733438720703125, 1.30078125) (0.0006732927856445312, 1.302734375) (0.0006732196044921875, 1.3046875) (0.0006731185302734375, 1.306640625) (0.0006729844360351562, 1.30859375) (0.00067281201171875, 1.310546875) (0.0006725960083007812, 1.3125) (0.0006723314208984375, 1.314453125) (0.0006720133056640625, 1.31640625) (0.000671636962890625, 1.318359375) (0.0006711983642578125, 1.3203125) (0.0006706934814453124, 1.322265625) (0.0006701185302734375, 1.32421875) (0.000669469970703125, 1.326171875) (0.0006687444458007813, 1.328125) (0.0006679385375976563, 1.330078125) (0.0006670493774414062, 1.33203125) (0.0006660742797851562, 1.333984375) (0.0006650107421875, 1.3359375) (0.0006638563842773438, 1.337890625) (0.000662609130859375, 1.33984375) (0.00066126708984375, 1.341796875) (0.00065982861328125, 1.34375) (0.0006582924194335938, 1.345703125) (0.0006566571044921875, 1.34765625) (0.0006549217529296875, 1.349609375) (0.0006530855712890625, 1.3515625) (0.0006511483154296875, 1.353515625) (0.0006491100463867187, 1.35546875) (0.0006469715576171874, 1.357421875) (0.0006447337036132812, 1.359375) (0.0006423981323242187, 1.361328125) (0.000639967041015625, 1.36328125) (0.000637443115234375, 1.365234375) (0.0006348300170898437, 1.3671875) (0.0006321315917968749, 1.369140625) (0.0006293521728515625, 1.37109375) (0.0006264969482421875, 1.373046875) (0.0006235712280273437, 1.375) (0.0006205809936523437, 1.376953125) (0.00061753271484375, 1.37890625) (0.0006144329833984375, 1.380859375) (0.0006112886962890625, 1.3828125) (0.0006081071777343749, 1.384765625) (0.0006048958129882812, 1.38671875) (0.0006016622314453124, 1.388671875) (0.0005984144287109374, 1.390625) (0.000595160400390625, 1.392578125) (0.0005919082031249999, 1.39453125) (0.0005886663208007812, 1.396484375) (0.00058544287109375, 1.3984375) (0.0005822464599609375, 1.400390625) (0.0005790856933593749, 1.40234375) (0.0005759688720703125, 1.404296875) (0.0005729045410156249, 1.40625) (0.0005699013061523438, 1.408203125) (0.00056696728515625, 1.41015625) (0.0005641108398437499, 1.412109375) (0.0005613396606445313, 1.4140625) (0.000558661376953125, 1.416015625) (0.0005560830078125, 1.41796875) (0.000553611083984375, 1.419921875) (0.000551251708984375, 1.421875) (0.0005490099487304687, 1.423828125) (0.0005468905029296874, 1.42578125) (0.0005448970336914062, 1.427734375) (0.0005430323486328124, 1.4296875) (0.0005412985229492187, 1.431640625) (0.0005396966552734375, 1.43359375) (0.0005382270507812499, 1.435546875) (0.0005368890380859374, 1.4375) (0.0005356812744140625, 1.439453125) (0.0005346013793945312, 1.44140625) (0.000533646484375, 1.443359375) (0.0005328129882812499, 1.4453125) (0.000532096435546875, 1.447265625) (0.000531491943359375, 1.44921875) (0.000530993896484375, 1.451171875) (0.0005305960693359374, 1.453125) (0.0005302918701171875, 1.455078125) (0.0005300739135742187, 1.45703125) (0.0005299345092773437, 1.458984375) (0.0005298654785156249, 1.4609375) (0.000529858154296875, 1.462890625) (0.0005299033813476562, 1.46484375) (0.00052999169921875, 1.466796875) (0.000530113525390625, 1.46875) (0.0005302588500976563, 1.470703125) (0.00053041748046875, 1.47265625) (0.0005305789794921875, 1.474609375) (0.000530733154296875, 1.4765625) (0.0005308694458007813, 1.478515625) (0.0005309776611328125, 1.48046875) (0.0005310476074218749, 1.482421875) (0.0005310693359374999, 1.484375) (0.0005310333251953125, 1.486328125) (0.0005309306030273438, 1.48828125) (0.00053075244140625, 1.490234375) (0.0005304908447265625, 1.4921875) (0.0005301384277343749, 1.494140625) (0.0005296884765625, 1.49609375) (0.0005291349487304688, 1.498046875) (0.0005284725341796875, 1.5) (0.000527696533203125, 1.501953125) (0.000526802734375, 1.50390625) (0.0005257878417968749, 1.505859375) (0.0005246490478515625, 1.5078125) (0.0005233839111328125, 1.509765625) (0.0005219909667968749, 1.51171875) (0.0005204689331054687, 1.513671875) (0.0005188173828125, 1.515625) (0.0005170361938476563, 1.517578125) (0.0005151259765625, 1.51953125) (0.0005130877075195312, 1.521484375) (0.0005109229431152344, 1.5234375) (0.0005086337890625, 1.525390625) (0.0005062226562499999, 1.52734375) (0.0005036925659179688, 1.529296875) (0.0005010468444824218, 1.53125) (0.0004982892456054688, 1.533203125) (0.0004954240112304688, 1.53515625) (0.00049245556640625, 1.537109375) (0.000489388916015625, 1.5390625) (0.000486229248046875, 1.541015625) (0.0004829819946289062, 1.54296875) (0.00047965277099609375, 1.544921875) (0.0004762473754882812, 1.546875) (0.00047277175903320313, 1.548828125) (0.0004692318725585937, 1.55078125) (0.00046563348388671874, 1.552734375) (0.0004619822998046875, 1.5546875) (0.00045828399658203123, 1.556640625) (0.00045454391479492185, 1.55859375) (0.0004507674865722656, 1.560546875) (0.000446959716796875, 1.5625) (0.0004431256103515625, 1.564453125) (0.0004392699279785156, 1.56640625) (0.0004353973693847656, 1.568359375) (0.0004315123901367187, 1.5703125) (0.00042761944580078123, 1.572265625) (0.0004237228393554687, 1.57421875) (0.0004198267517089844, 1.576171875) (0.00041593518066406247, 1.578125) (0.00041205206298828125, 1.580078125) (0.00040818115234375, 1.58203125) (0.00040432617187499995, 1.583984375) (0.0004004905090332031, 1.5859375) (0.0003966776123046875, 1.587890625) (0.00039289062499999996, 1.58984375) (0.00038913253784179686, 1.591796875) (0.00038540621948242185, 1.59375) (0.0003817142639160156, 1.595703125) (0.00037805905151367183, 1.59765625) (0.000374442626953125, 1.599609375) (0.00037086679077148434, 1.6015625) (0.0003673330688476562, 1.603515625) (0.00036384271240234373, 1.60546875) (0.0003603966369628906, 1.607421875) (0.00035699554443359373, 1.609375) (0.0003536399536132812, 1.611328125) (0.00035033020019531246, 1.61328125) (0.00034706628417968747, 1.615234375) (0.0003438482666015625, 1.6171875) (0.000340676025390625, 1.619140625) (0.0003375492553710937, 1.62109375) (0.00033446752929687496, 1.623046875) (0.00033143023681640624, 1.625) (0.0003284366760253906, 1.626953125) (0.00032548590087890623, 1.62890625) (0.0003225767822265625, 1.630859375) (0.0003197080078125, 1.6328125) (0.0003168779907226562, 1.634765625) (0.0003140850830078125, 1.63671875) (0.00031132727050781246, 1.638671875) (0.0003086024475097656, 1.640625) (0.0003059083251953125, 1.642578125) (0.00030324237060546874, 1.64453125) (0.00030060198974609373, 1.646484375) (0.00029798431396484376, 1.6484375) (0.0002953864440917969, 1.650390625) (0.0002928053588867187, 1.65234375) (0.00029023809814453125, 1.654296875) (0.00028768148803710934, 1.65625) (0.0002851325073242187, 1.658203125) (0.0002825882568359375, 1.66015625) (0.00028004583740234374, 1.662109375) (0.0002775028076171875, 1.6640625) (0.00027495675659179684, 1.666015625) (0.00027240560913085934, 1.66796875) (0.0002698475341796875, 1.669921875) (0.0002672810363769531, 1.671875) (0.00026470489501953125, 1.673828125) (0.0002621182250976562, 1.67578125) (0.0002595202331542969, 1.677734375) (0.000256910400390625, 1.6796875) (0.00025428848266601564, 1.681640625) (0.00025165438842773434, 1.68359375) (0.0002490083465576172, 1.685546875) (0.00024635092163085936, 1.6875) (0.0002436828918457031, 1.689453125) (0.00024100537109375, 1.69140625) (0.00023831964111328124, 1.693359375) (0.0002356273193359375, 1.6953125) (0.00023293032836914062, 1.697265625) (0.0002302308349609375, 1.69921875) (0.00022753121948242188, 1.701171875) (0.00022483395385742186, 1.703125) (0.00022214154052734375, 1.705078125) (0.00021945680236816405, 1.70703125) (0.00021678273010253905, 1.708984375) (0.00021412240600585935, 1.7109375) (0.00021147906494140624, 1.712890625) (0.00020885585021972655, 1.71484375) (0.0002062558898925781, 1.716796875) (0.000203682373046875, 1.71875) (0.00020113847351074218, 1.720703125) (0.00019862704467773438, 1.72265625) (0.00019615066528320312, 1.724609375) (0.00019371142578125, 1.7265625) (0.00019131095886230467, 1.728515625) (0.0001889503479003906, 1.73046875) (0.00018663023376464842, 1.732421875) (0.0001843505859375, 1.734375) (0.0001821107482910156, 1.736328125) (0.00017990951538085937, 1.73828125) (0.00017774516296386719, 1.740234375) (0.00017561549377441405, 1.7421875) (0.00017351792907714843, 1.744140625) (0.00017144927978515623, 1.74609375) (0.00016940579223632813, 1.748046875) (0.00016738320922851562, 1.75) (0.00016537661743164063, 1.751953125) (0.00016338075256347657, 1.75390625) (0.00016139002990722657, 1.755859375) (0.00015939837646484375, 1.7578125) (0.00015739950561523438, 1.759765625) (0.00015538714599609374, 1.76171875) (0.00015335449218749998, 1.763671875) (0.0001512946014404297, 1.765625) (0.00014920062255859376, 1.767578125) (0.00014706512451171874, 1.76953125) (0.00014488046264648436, 1.771484375) (0.00014263926696777342, 1.7734375) (0.00014033410644531249, 1.775390625) (0.00013795770263671874, 1.77734375) (0.00013550326538085936, 1.779296875) (0.00013296408081054688, 1.78125) (0.0001303340606689453, 1.783203125) (0.00012760867309570312, 1.78515625) (0.0001247838592529297, 1.787109375) (0.00012185609436035156, 1.7890625) (0.00011882188415527343, 1.791015625) (0.000115677490234375, 1.79296875) (0.00011242143249511718, 1.794921875) (0.00010905519104003906, 1.796875) (0.00010558250427246093, 1.798828125) (0.00010200875091552734, 1.80078125) (9.833969116210937e-05, 1.802734375) (9.45811767578125e-05, 1.8046875) (9.074150085449219e-05, 1.806640625) (8.683150482177734e-05, 1.80859375) (8.286151123046874e-05, 1.810546875) (7.884085845947265e-05, 1.8125) (7.477558898925781e-05, 1.814453125) (7.066832733154297e-05, 1.81640625) (6.652444458007812e-05, 1.818359375) (6.235267639160156e-05, 1.8203125) (5.816578674316406e-05, 1.822265625) (5.398087310791015e-05, 1.82421875) (4.981144714355469e-05, 1.826171875) (4.5666900634765625e-05, 1.828125) (4.155793762207031e-05, 1.830078125) (3.749863815307617e-05, 1.83203125) (3.3508163452148435e-05, 1.833984375) (2.9606149673461912e-05, 1.8359375) (2.5803403854370115e-05, 1.837890625) (2.2104652404785154e-05, 1.83984375) (1.8523128509521484e-05, 1.841796875) (1.5084793090820312e-05, 1.84375) (1.182399272918701e-05, 1.845703125) (8.768749237060546e-06, 1.84765625) (5.9256896972656245e-06, 1.849609375) (3.3000011444091797e-06, 1.8515625) (9.022014737129211e-07, 1.853515625) (-1.2566561698913574e-06, 1.85546875) (-3.161877632141113e-06, 1.857421875) (-4.816534996032715e-06, 1.859375) (-6.203464508056641e-06, 1.861328125) (-7.237618923187255e-06, 1.86328125) (-7.816884040832518e-06, 1.865234375) (-7.884644985198974e-06, 1.8671875) (-7.4425988197326655e-06, 1.869140625) (-6.563680171966552e-06, 1.87109375) (-5.317853927612305e-06, 1.873046875) (-3.696653366088867e-06, 1.875) (-1.8560985326766966e-06, 1.876953125) (-2.4937748908996583e-07, 1.87890625) (7.703998088836669e-07, 1.880859375) (1.1340932846069335e-06, 1.8828125) (1.104555606842041e-06, 1.884765625) (1.3300564289093016e-06, 1.88671875) (1.5101362466812133e-06, 1.888671875) (3.0228930711746215e-07, 1.890625) (-2.7046823501586915e-06, 1.892578125) (-6.506041526794433e-06, 1.89453125) (-7.460209369659423e-06, 1.896484375) (-5.801901817321777e-07, 1.8984375) (1.5377582550048828e-05, 1.900390625) (3.738924407958984e-05, 1.90234375) (5.8577148437499995e-05, 1.904296875) (7.045419311523438e-05, 1.90625) (6.925168609619141e-05, 1.908203125) (5.521424865722656e-05, 1.91015625) (3.130794334411621e-05, 1.912109375) (3.988573551177978e-06, 1.9140625) (-2.1923017501831053e-05, 1.916015625) (-4.1279647827148434e-05, 1.91796875) (-4.69456787109375e-05, 1.919921875) (-3.606998062133789e-05, 1.921875) (-6.6821422576904295e-06, 1.923828125) (3.974443817138672e-05, 1.92578125) (9.349716186523437e-05, 1.927734375) (0.00014480625915527342, 1.9296875) (0.00018241671752929688, 1.931640625) (0.00019696598815917968, 1.93359375) (0.0001892284393310547, 1.935546875) (0.00016478761291503907, 1.9375) (0.00013316307067871093, 1.939453125) (0.00010388824462890625, 1.94140625) (8.005996704101562e-05, 1.943359375) (6.060202407836914e-05, 1.9453125) (4.2070541381835936e-05, 1.947265625) (2.1984378814697264e-05, 1.94921875) (5.220785140991211e-07, 1.951171875) (-2.0703502655029296e-05, 1.953125) (-3.9507228851318355e-05, 1.955078125) (-5.525451278686523e-05, 1.95703125) (-6.847101593017577e-05, 1.958984375) (-7.98583526611328e-05, 1.9609375) (-9.046752166748047e-05, 1.962890625) (-0.00010083265686035155, 1.96484375) (-0.00011097001647949219, 1.966796875) (-0.0001209861831665039, 1.96875) (-0.00013081658935546874, 1.970703125) (-0.00014018276977539063, 1.97265625) (-0.00014889614868164063, 1.974609375) (-0.0001567021484375, 1.9765625) (-0.0001633034973144531, 1.978515625) (-0.00016865721130371092, 1.98046875) (-0.00017283322143554688, 1.982421875) (-0.00017593701171875, 1.984375) (-0.0001781936798095703, 1.986328125) (-0.00017979794311523436, 1.98828125) (-0.00018090274047851562, 1.990234375) (-0.00018171286010742186, 1.9921875) (-0.00018239833068847656, 1.994140625) (-0.0001830790252685547, 1.99609375) (-0.00018387486267089844, 1.998046875) (-0.00018484494018554686, 2.0) (-0.00018600384521484374, 2.001953125) (-0.000187385498046875, 2.00390625) (-0.00018900701904296874, 2.005859375) (-0.00019087144470214843, 2.0078125) (-0.00019298326110839842, 2.009765625) (-0.00019530218505859373, 2.01171875) (-0.00019776365661621092, 2.013671875) (-0.0002003067169189453, 2.015625) (-0.0002028501739501953, 2.017578125) (-0.00020532125854492186, 2.01953125) (-0.0002076544494628906, 2.021484375) (-0.00020976512145996093, 2.0234375) (-0.00021159007263183593, 2.025390625) (-0.00021308595275878906, 2.02734375) (-0.00021420811462402343, 2.029296875) (-0.00021493653869628906, 2.03125) (-0.00021526669311523438, 2.033203125) (-0.00021518809509277342, 2.03515625) (-0.00021470330810546874, 2.037109375) (-0.0002138269348144531, 2.0390625) (-0.0002125697326660156, 2.041015625) (-0.00021095623779296874, 2.04296875) (-0.00020902182006835937, 2.044921875) (-0.00020679641723632812, 2.046875) (-0.00020431884765624998, 2.048828125) (-0.00020163224792480467, 2.05078125) (-0.00019877883911132812, 2.052734375) (-0.0001958087615966797, 2.0546875) (-0.0001927653350830078, 2.056640625) (-0.00018968103027343749, 2.05859375) (-0.00018658627319335938, 2.060546875) (-0.00018350555419921873, 2.0625) (-0.00018045834350585938, 2.064453125) (-0.0001774653625488281, 2.06640625) (-0.00017454257202148438, 2.068359375) (-0.0001716995849609375, 2.0703125) (-0.0001689490203857422, 2.072265625) (-0.00016630339050292969, 2.07421875) (-0.0001637731475830078, 2.076171875) (-0.0001613712921142578, 2.078125) (-0.00015910809326171875, 2.080078125) (-0.0001569899444580078, 2.08203125) (-0.0001550227813720703, 2.083984375) (-0.00015321081542968748, 2.0859375) (-0.00015155783081054688, 2.087890625) (-0.0001500690002441406, 2.08984375) (-0.00014874923706054686, 2.091796875) (-0.000147602294921875, 2.09375) (-0.00014663174438476562, 2.095703125) (-0.00014584068298339843, 2.09765625) (-0.00014523196411132813, 2.099609375) (-0.00014480865478515623, 2.1015625) (-0.00014457170104980468, 2.103515625) (-0.00014451953124999998, 2.10546875) (-0.00014464901733398438, 2.107421875) (-0.0001449554748535156, 2.109375) (-0.0001454332580566406, 2.111328125) (-0.00014607595825195312, 2.11328125) (-0.00014687551879882812, 2.115234375) (-0.00014782247924804686, 2.1171875) (-0.00014890676879882812, 2.119140625) (-0.00015011795043945312, 2.12109375) (-0.00015144509887695312, 2.123046875) (-0.00015287686157226563, 2.125) (-0.00015440126037597656, 2.126953125) (-0.00015600564575195313, 2.12890625) (-0.00015767716979980467, 2.130859375) (-0.0001594029541015625, 2.1328125) (-0.00016117013549804687, 2.134765625) (-0.00016296583557128905, 2.13671875) (-0.00016477735900878904, 2.138671875) (-0.0001665921630859375, 2.140625) (-0.00016839794921875, 2.142578125) (-0.00017018292236328124, 2.14453125) (-0.0001719359130859375, 2.146484375) (-0.00017364628601074217, 2.1484375) (-0.00017530393981933593, 2.150390625) (-0.00017689926147460935, 2.15234375) (-0.00017842294311523437, 2.154296875) (-0.0001798665313720703, 2.15625) (-0.0001812223663330078, 2.158203125) (-0.00018248373413085937, 2.16015625) (-0.00018364459228515623, 2.162109375) (-0.00018469989013671873, 2.1640625) (-0.0001856453857421875, 2.166015625) (-0.0001864779510498047, 2.16796875) (-0.00018719572448730467, 2.169921875) (-0.00018779789733886718, 2.171875) (-0.00018828469848632812, 2.173828125) (-0.00018865745544433592, 2.17578125) (-0.00018891847229003905, 2.177734375) (-0.00018907119750976562, 2.1796875) (-0.0001891200714111328, 2.181640625) (-0.00018907054138183593, 2.18359375) (-0.0001889289855957031, 2.185546875) (-0.00018870278930664062, 2.1875) (-0.00018840008544921874, 2.189453125) (-0.00018802957153320313, 2.19140625) (-0.00018760040283203125, 2.193359375) (-0.0001871222686767578, 2.1953125) (-0.00018660508728027343, 2.197265625) (-0.00018605883789062498, 2.19921875) (-0.00018549359130859373, 2.201171875) (-0.0001849192199707031, 2.203125) (-0.0001843458557128906, 2.205078125) (-0.00018378396606445312, 2.20703125) (-0.00018324374389648438, 2.208984375) (-0.00018273515319824218, 2.2109375) (-0.00018226829528808592, 2.212890625) (-0.00018185321044921873, 2.21484375) (-0.00018150006103515625, 2.216796875) (-0.0001812191467285156, 2.21875) (-0.00018101979064941406, 2.220703125) (-0.0001809100799560547, 2.22265625) (-0.00018089755249023438, 2.224609375) (-0.00018098913574218748, 2.2265625) (-0.0001811905517578125, 2.228515625) (-0.0001815065002441406, 2.23046875) (-0.00018193968200683593, 2.232421875) (-0.00018249095153808592, 2.234375) (-0.00018316058349609373, 2.236328125) (-0.0001839486846923828, 2.23828125) (-0.00018485482788085936, 2.240234375) (-0.00018587814331054686, 2.2421875) (-0.00018701670837402342, 2.244140625) (-0.00018826715087890623, 2.24609375) (-0.00018962553405761718, 2.248046875) (-0.0001910872344970703, 2.25) (-0.000192646240234375, 2.251953125) (-0.00019429531860351562, 2.25390625) (-0.00019602444458007812, 2.255859375) (-0.00019782049560546875, 2.2578125) (-0.00019967063903808592, 2.259765625) (-0.00020156333923339843, 2.26171875) (-0.0002034884796142578, 2.263671875) (-0.00020543853759765623, 2.265625) (-0.00020740370178222656, 2.267578125) (-0.00020936965942382812, 2.26953125) (-0.00021132107543945312, 2.271484375) (-0.00021324256896972655, 2.2734375) (-0.00021511491394042968, 2.275390625) (-0.0002169136962890625, 2.27734375) (-0.00021860729980468748, 2.279296875) (-0.00022015454101562498, 2.28125) (-0.00022151536560058592, 2.283203125) (-0.00022265821838378906, 2.28515625) (-0.00022355850219726563, 2.287109375) (-0.00022420071411132812, 2.2890625) (-0.0002245736083984375, 2.291015625) (-0.00022466587829589842, 2.29296875) (-0.00022446881103515624, 2.294921875) (-0.00022397564697265623, 2.296875) (-0.00022318191528320313, 2.298828125) (-0.00022208935546875, 2.30078125) (-0.00022070263671875, 2.302734375) (-0.00021902035522460936, 2.3046875) (-0.00021705003356933594, 2.306640625) (-0.00021481823730468749, 2.30859375) (-0.00021236788940429686, 2.310546875) (-0.00020977584838867186, 2.3125) (-0.0002071337432861328, 2.314453125) (-0.00020450033569335938, 2.31640625) (-0.0002019080810546875, 2.318359375) (-0.00019937826538085938, 2.3203125) (-0.000196911865234375, 2.322265625) (-0.0001945126953125, 2.32421875) (-0.00019219236755371093, 2.326171875) (-0.00018991839599609374, 2.328125) (-0.00018762815856933593, 2.330078125) (-0.00018530271911621092, 2.33203125) (-0.00018296957397460935, 2.333984375) (-0.00018067236328125, 2.3359375) (-0.00017843362426757812, 2.337890625) (-0.00017618896484374998, 2.33984375) (-0.0001737636260986328, 2.341796875) (-0.0001709628448486328, 2.34375) (-0.00016767665100097655, 2.345703125) (-0.00016373219299316405, 2.34765625) (-0.00015876644897460938, 2.349609375) (-0.00015258245849609375, 2.3515625) (-0.00014522647094726562, 2.353515625) (-0.00013669874572753906, 2.35546875) (-0.0001274157485961914, 2.357421875) (-0.00011728126525878906, 2.359375) (-0.00010496228027343749, 2.361328125) (-9.071806335449218e-05, 2.36328125) (-7.598894500732422e-05, 2.365234375) (-6.299312591552734e-05, 2.3671875) (-5.599788665771484e-05, 2.369140625) (-5.490752029418945e-05, 2.37109375) (-5.502984619140625e-05, 2.373046875) (-5.1496131896972656e-05, 2.375) (-3.80947380065918e-05, 2.376953125) (-1.4586624145507812e-05, 2.37890625) (1.249377155303955e-05, 2.380859375) (3.763990020751953e-05, 2.3828125) (5.518192672729492e-05, 2.384765625) (6.350711059570313e-05, 2.38671875) (6.612957000732422e-05, 2.388671875) (6.465924072265625e-05, 2.390625) (6.03688850402832e-05, 2.392578125) (5.390816497802734e-05, 2.39453125) (4.4004257202148435e-05, 2.396484375) (3.088522720336914e-05, 2.3984375) (1.546827507019043e-05, 2.400390625) (-1.7859506607055663e-06, 2.40234375) (-1.9771318435668944e-05, 2.404296875) (-3.733187484741211e-05, 2.40625) (-5.394480514526367e-05, 2.408203125) (-6.922161865234374e-05, 2.41015625) (-8.313179779052734e-05, 2.412109375) (-9.620152282714843e-05, 2.4140625) (-0.00010869471740722656, 2.416015625) (-0.000120546142578125, 2.41796875) (-0.0001317634582519531, 2.419921875) (-0.00014239270019531249, 2.421875) (-0.00015244137573242186, 2.423828125) (-0.00016193362426757812, 2.42578125) (-0.00017072080993652344, 2.427734375) (-0.00017841915893554688, 2.4296875) (-0.00018479638671875, 2.431640625) (-0.0001898070068359375, 2.43359375) (-0.00019349217224121093, 2.435546875) (-0.00019600930786132812, 2.4375) (-0.00019752226257324217, 2.439453125) (-0.00019815811157226562, 2.44140625) (-0.00019808502197265625, 2.443359375) (-0.00019752227783203125, 2.4453125) (-0.00019668035888671873, 2.447265625) (-0.00019576571655273436, 2.44921875) (-0.00019494699096679686, 2.451171875) (-0.000194315673828125, 2.453125) (-0.00019393789672851562, 2.455078125) (-0.00019386795043945313, 2.45703125) (-0.0001941533966064453, 2.458984375) (-0.00019484494018554685, 2.4609375) (-0.00019596575927734373, 2.462890625) (-0.00019750338745117186, 2.46484375) (-0.00019942703247070311, 2.466796875) (-0.00020168685913085936, 2.46875) (-0.0002042271270751953, 2.470703125) (-0.00020699755859375, 2.47265625) (-0.00020992846679687498, 2.474609375) (-0.0002129333953857422, 2.4765625) (-0.00021593563842773437, 2.478515625) (-0.0002188460235595703, 2.48046875) (-0.00022155364990234373, 2.482421875) (-0.00022398362731933594, 2.484375) (-0.0002260843505859375, 2.486328125) (-0.00022781060791015624, 2.48828125) (-0.00022916540527343748, 2.490234375) (-0.00023017250061035154, 2.4921875) (-0.0002308045959472656, 2.494140625) (-0.00023103330993652342, 2.49609375) (-0.0002309939727783203, 2.498046875) (-0.0002308445129394531, 2.5) (-0.00023052745056152343, 2.501953125) (-0.0002300672607421875, 2.50390625) (-0.00022951237487792966, 2.505859375) (-0.00022860891723632811, 2.5078125) (-0.0002281612854003906, 2.509765625) (-0.00022895765686035155, 2.51171875) (-0.0002299628143310547, 2.513671875) (-0.0002308738250732422, 2.515625) (-0.000229747802734375, 2.517578125) (-0.00022425122070312498, 2.51953125) (-0.0002169908752441406, 2.521484375) (-0.0002097071838378906, 2.5234375) (-0.00020497991943359373, 2.525390625) (-0.00020634501647949217, 2.52734375) (-0.0002106703643798828, 2.529296875) (-0.00021530322265624999, 2.53125) (-0.000218428466796875, 2.533203125) (-0.00021704739379882813, 2.53515625) (-0.00021331166076660155, 2.537109375) (-0.00020939926147460936, 2.5390625) (-0.000205794677734375, 2.541015625) (-0.0002038256072998047, 2.54296875) (-0.00020272413635253906, 2.544921875) (-0.00020150376892089843, 2.546875) (-0.0002003568878173828, 2.548828125) (-0.00019916058349609374, 2.55078125) (-0.00019798551940917967, 2.552734375) (-0.00019703721618652344, 2.5546875) (-0.00019619023132324217, 2.556640625) (-0.0001953463134765625, 2.55859375) (-0.00019454544067382812, 2.560546875) (-0.00019379925537109374, 2.5625) (-0.0001930992431640625, 2.564453125) (-0.00019245109558105469, 2.56640625) (-0.0001918649444580078, 2.568359375) (-0.00019134765625, 2.5703125) (-0.00019092028808593748, 2.572265625) (-0.0001906073303222656, 2.57421875) (-0.00019040287780761717, 2.576171875) (-0.00019029873657226562, 2.578125) (-0.00019029673767089844, 2.580078125) (-0.00019039555358886718, 2.58203125) (-0.00019059469604492188, 2.583984375) (-0.0001908954620361328, 2.5859375) (-0.00019129800415039063, 2.587890625) (-0.0001917970275878906, 2.58984375) (-0.0001923838195800781, 2.591796875) (-0.00019306091308593748, 2.59375) (-0.00019383908081054688, 2.595703125) (-0.00019472520446777342, 2.59765625) (-0.00019572723388671875, 2.599609375) (-0.00019683941650390624, 2.6015625) (-0.00019803332519531248, 2.603515625) (-0.00019929962158203124, 2.60546875) (-0.00020065406799316406, 2.607421875) (-0.00020207106018066407, 2.609375) (-0.00020349171447753904, 2.611328125) (-0.00020486801147460935, 2.61328125) (-0.0002061463623046875, 2.615234375) (-0.0002073122100830078, 2.6171875) (-0.0002084195098876953, 2.619140625) (-0.00020947433471679686, 2.62109375) (-0.00021039593505859375, 2.623046875) (-0.00021124432373046873, 2.625) (-0.00021225595092773438, 2.626953125) (-0.00021346844482421874, 2.62890625) (-0.00021479747009277343, 2.630859375) (-0.000216263916015625, 2.6328125) (-0.00021758377075195313, 2.634765625) (-0.00021925271606445311, 2.63671875) (-0.00022280010986328123, 2.638671875) (-0.0002278538818359375, 2.640625) (-0.00023299523925781248, 2.642578125) (-0.0002358539123535156, 2.64453125) (-0.00023201861572265625, 2.646484375) (-0.00022181683349609374, 2.6484375) (-0.0002096337890625, 2.650390625) (-0.00019986614990234375, 2.65234375) (-0.00019875856018066406, 2.654296875) (-0.00020660401916503907, 2.65625) (-0.00021750173950195313, 2.658203125) (-0.0002268941650390625, 2.66015625) (-0.00022983139038085937, 2.662109375) (-0.00022551983642578124, 2.6640625) (-0.0002183671875, 2.666015625) (-0.00021105908203125, 2.66796875) (-0.000205457275390625, 2.669921875) (-0.0002020924072265625, 2.671875) (-0.00019916494750976563, 2.673828125) (-0.00019587794494628906, 2.67578125) (-0.00019229273986816404, 2.677734375) (-0.00018835827636718748, 2.6796875) (-0.00018435241699218748, 2.681640625) (-0.0001803407287597656, 2.68359375) (-0.00017608250427246093, 2.685546875) (-0.00017150625610351563, 2.6875) (-0.00016666058349609373, 2.689453125) (-0.0001615519104003906, 2.69140625) (-0.00015618536376953124, 2.693359375) (-0.00015059304809570312, 2.6953125) (-0.00014479348754882813, 2.697265625) (-0.00013880459594726562, 2.69921875) (-0.00013266436767578124, 2.701171875) (-0.000126374755859375, 2.703125) (-0.00011992766571044921, 2.705078125) (-0.00011335494995117187, 2.70703125) (-0.00010668047332763672, 2.708984375) (-9.991587066650391e-05, 2.7109375) (-9.307832336425781e-05, 2.712890625) (-8.615711975097656e-05, 2.71484375) (-7.918433380126952e-05, 2.716796875) (-7.226780700683594e-05, 2.71875) (-6.539703369140624e-05, 2.720703125) (-5.846331405639648e-05, 2.72265625) (-5.1372676849365233e-05, 2.724609375) (-4.398314666748047e-05, 2.7265625) (-3.632353973388672e-05, 2.728515625) (-2.866535949707031e-05, 2.73046875) (-2.1116533279418944e-05, 2.732421875) (-1.3608267784118651e-05, 2.734375) (-6.298177242279053e-06, 2.736328125) (5.442202091217041e-07, 2.73828125) (6.604658126831054e-06, 2.740234375) (1.138008689880371e-05, 2.7421875) (1.4863543510437011e-05, 2.744140625) (1.763128662109375e-05, 2.74609375) (1.9982738494873045e-05, 2.748046875) (2.1990970611572263e-05, 2.75) (2.39290714263916e-05, 2.751953125) (2.605860900878906e-05, 2.75390625) (2.8794473648071287e-05, 2.755859375) (3.287846755981445e-05, 2.7578125) (3.835395812988281e-05, 2.759765625) (4.4520149230957026e-05, 2.76171875) (5.0959403991699216e-05, 2.763671875) (5.741902160644531e-05, 2.765625) (6.360933685302734e-05, 2.767578125) (6.943077087402343e-05, 2.76953125) (7.457242584228516e-05, 2.771484375) (7.839559173583984e-05, 2.7734375) (8.083822631835937e-05, 2.775390625) (8.239727783203124e-05, 2.77734375) (8.339962768554687e-05, 2.779296875) (8.412466430664062e-05, 2.78125) (8.475954437255859e-05, 2.783203125) (8.525212097167968e-05, 2.78515625) (8.57192153930664e-05, 2.787109375) (8.647927856445312e-05, 2.7890625) (8.75843048095703e-05, 2.791015625) (8.886441040039063e-05, 2.79296875) (9.019878387451172e-05, 2.794921875) (9.144722747802733e-05, 2.796875) (9.256413269042968e-05, 2.798828125) (9.364891052246093e-05, 2.80078125) (9.472550964355468e-05, 2.802734375) (9.575109100341796e-05, 2.8046875) (9.6730712890625e-05, 2.806640625) (9.76883316040039e-05, 2.80859375) (9.865222930908202e-05, 2.810546875) (9.967189788818359e-05, 2.8125) (0.00010076155090332031, 2.814453125) (0.00010189714813232421, 2.81640625) (0.00010306779479980469, 2.818359375) (0.00010426757049560546, 2.8203125) (0.00010549818420410156, 2.822265625) (0.0001067758560180664, 2.82421875) (0.00010811010742187499, 2.826171875) (0.00010950474548339843, 2.828125) (0.00011096378326416016, 2.830078125) (0.00011248875427246093, 2.83203125) (0.00011408200073242186, 2.833984375) (0.00011574693298339844, 2.8359375) (0.00011748583984375, 2.837890625) (0.00011930076599121093, 2.83984375) (0.00012119242858886718, 2.841796875) (0.0001231598205566406, 2.84375) (0.00012520298767089842, 2.845703125) (0.000127322265625, 2.84765625) (0.00012951742553710937, 2.849609375) (0.00013178887939453124, 2.8515625) (0.00013413330078125, 2.853515625) (0.00013654342651367186, 2.85546875) (0.00013901239013671874, 2.857421875) (0.0001415327911376953, 2.859375) (0.00014409727478027342, 2.861328125) (0.00014669964599609375, 2.86328125) (0.00014933258056640624, 2.865234375) (0.00015198745727539061, 2.8671875) (0.00015465579223632812, 2.869140625) (0.00015732882690429686, 2.87109375) (0.00015999736022949217, 2.873046875) (0.00016265272521972656, 2.875) (0.00016528594970703124, 2.876953125) (0.00016788702392578125, 2.87890625) (0.000170446044921875, 2.880859375) (0.0001729531555175781, 2.8828125) (0.0001753979797363281, 2.884765625) (0.0001777718048095703, 2.88671875) (0.00018006640625, 2.888671875) (0.0001822705383300781, 2.890625) (0.00018437265014648437, 2.892578125) (0.0001863626251220703, 2.89453125) (0.0001882286376953125, 2.896484375) (0.00018996124267578124, 2.8984375) (0.0001915562744140625, 2.900390625) (0.00019300236511230468, 2.90234375) (0.00019428692626953124, 2.904296875) (0.00019541233825683593, 2.90625) (0.0001963775634765625, 2.908203125) (0.00019717941284179687, 2.91015625) (0.00019782614135742187, 2.912109375) (0.0001983094940185547, 2.9140625) (0.00019860235595703125, 2.916015625) (0.00019870877075195311, 2.91796875) (0.0001986360626220703, 2.919921875) (0.00019834559631347654, 2.921875) (0.00019782382202148438, 2.923828125) (0.00019706924438476562, 2.92578125) (0.00019604563903808593, 2.927734375) (0.00019476953124999998, 2.9296875) (0.00019332106018066404, 2.931640625) (0.00019170108032226562, 2.93359375) (0.0001898858642578125, 2.935546875) (0.00018803179931640624, 2.9375) (0.00018627090454101562, 2.939453125) (0.00018448167419433592, 2.94140625) (0.00018270513916015624, 2.943359375) (0.00018102120971679687, 2.9453125) (0.00017901748657226562, 2.947265625) (0.00017742698669433594, 2.94921875) (0.00017716600036621092, 2.951171875) (0.00017706069946289062, 2.953125) (0.00017674510192871093, 2.955078125) (0.0001743448028564453, 2.95703125) (0.00016653146362304686, 2.958984375) (0.00015546693420410155, 2.9609375) (0.00014412313842773438, 2.962890625) (0.00013568553161621093, 2.96484375) (0.00013600505065917967, 2.966796875) (0.00014392547607421875, 2.96875) (0.00015399391174316407, 2.970703125) (0.0001625247802734375, 2.97265625) (0.00016368850708007812, 2.974609375) (0.00015641966247558593, 2.9765625) (0.00014619670104980468, 2.978515625) (0.0001361501770019531, 2.98046875) (0.00012951937866210938, 2.982421875) (0.00012837554931640624, 2.984375) (0.00012951226806640623, 2.986328125) (0.00013099447631835937, 2.98828125) (0.00013218896484375, 2.990234375) (0.00013185604858398438, 2.9921875) (0.00013094949340820313, 2.994140625) (0.0001302813262939453, 2.99609375) (0.00012957034301757812, 2.998046875) (0.00012898776245117186, 3.0) (0.00012845982360839843, 3.001953125) (0.00012780147552490234, 3.00390625) (0.00012718885803222654, 3.005859375) (0.00012676062774658202, 3.0078125) (0.0001265530776977539, 3.009765625) (0.00012660853576660155, 3.01171875) (0.00012688816833496093, 3.013671875) (0.00012735003662109375, 3.015625) (0.00012805223083496093, 3.017578125) (0.00012891815185546874, 3.01953125) (0.00012973880004882811, 3.021484375) (0.00013055174255371092, 3.0234375) (0.00013142817687988281, 3.025390625) (0.00013240223693847657, 3.02734375) (0.0001340238800048828, 3.029296875) (0.00013591175842285155, 3.03125) (0.0001365226593017578, 3.033203125) (0.0001362515411376953, 3.03515625) (0.00013619192504882812, 3.037109375) (0.0001390469055175781, 3.0390625) (0.00015044601440429686, 3.041015625) (0.00017036065673828123, 3.04296875) (0.00019337110900878904, 3.044921875) (0.00021136383056640624, 3.046875) (0.00021294984436035156, 3.048828125) (0.00019507922363281248, 3.05078125) (0.00016551629638671874, 3.052734375) (0.000137169677734375, 3.0546875) (0.00012394684600830076, 3.056640625) (0.00013197962951660156, 3.05859375) (0.0001558863525390625, 3.060546875) (0.00018210375976562498, 3.0625) (0.00019886566162109374, 3.064453125) (0.00019979940795898437, 3.06640625) (0.00018524691772460935, 3.068359375) (0.00016445184326171875, 3.0703125) (0.00014426200866699218, 3.072265625) (0.00012804458618164062, 3.07421875) (0.0001179090347290039, 3.076171875) (0.00010999305725097656, 3.078125) (0.00010180709075927734, 3.080078125) (9.334123229980468e-05, 3.08203125) (8.350675201416015e-05, 3.083984375) (7.341316986083984e-05, 3.0859375) (6.41156997680664e-05, 3.087890625) (5.4999515533447264e-05, 3.08984375) (4.697955322265625e-05, 3.091796875) (4.082797622680664e-05, 3.09375) (3.531550216674805e-05, 3.095703125) (3.0341287612915038e-05, 3.09765625) (2.4161293029785154e-05, 3.099609375) (1.4457508087158203e-05, 3.1015625) (3.8716042041778565e-06, 3.103515625) (-5.859816551208496e-06, 3.10546875) (-1.223342227935791e-05, 3.107421875) (-1.1803846359252929e-05, 3.109375) (-7.80998945236206e-06, 3.111328125) (-3.04343843460083e-06, 3.11328125) (5.269711017608643e-07, 3.115234375) (-2.0711876451969146e-07, 3.1171875) (-3.161926984786987e-06, 3.119140625) (-6.206011772155761e-06, 3.12109375) (-8.884815216064453e-06, 3.123046875) (-9.90831470489502e-06, 3.125) (-1.0107340812683105e-05, 3.126953125) (-1.0545673370361328e-05, 3.12890625) (-1.1088292121887206e-05, 3.130859375) (-1.189203929901123e-05, 3.1328125) (-1.2902161598205565e-05, 3.134765625) (-1.3910318374633788e-05, 3.13671875) (-1.5033135414123535e-05, 3.138671875) (-1.635190963745117e-05, 3.140625) (-1.7791946411132812e-05, 3.142578125) (-1.9282981872558593e-05, 3.14453125) (-2.076572036743164e-05, 3.146484375) (-2.2186616897583005e-05, 3.1484375) (-2.3509702682495115e-05, 3.150390625) (-2.4722497940063475e-05, 3.15234375) (-2.5806449890136717e-05, 3.154296875) (-2.6731380462646484e-05, 3.15625) (-2.7490640640258788e-05, 3.158203125) (-2.807661247253418e-05, 3.16015625) (-2.8480054855346677e-05, 3.162109375) (-2.870268630981445e-05, 3.1640625) (-2.874748611450195e-05, 3.166015625) (-2.861663055419922e-05, 3.16796875) (-2.8315507888793944e-05, 3.169921875) (-2.7858123779296874e-05, 3.171875) (-2.7265298843383786e-05, 3.173828125) (-2.6570459365844725e-05, 3.17578125) (-2.581246566772461e-05, 3.177734375) (-2.50181884765625e-05, 3.1796875) (-2.42047061920166e-05, 3.181640625) (-2.3382385253906248e-05, 3.18359375) (-2.2557315826416016e-05, 3.185546875) (-2.1736747741699216e-05, 3.1875) (-2.0928510665893554e-05, 3.189453125) (-2.013562774658203e-05, 3.19140625) (-1.9355655670166015e-05, 3.193359375) (-1.858821678161621e-05, 3.1953125) (-1.7835330963134765e-05, 3.197265625) (-1.710107421875e-05, 3.19921875) (-1.6391565322875974e-05, 3.201171875) (-1.570891284942627e-05, 3.203125) (-1.5050760269165038e-05, 3.205078125) (-1.4412561416625976e-05, 3.20703125) (-1.3789323806762695e-05, 3.208984375) (-1.317794132232666e-05, 3.2109375) (-1.2577213287353514e-05, 3.212890625) (-1.1986247062683105e-05, 3.21484375) (-1.1403800964355468e-05, 3.216796875) (-1.082969570159912e-05, 3.21875) (-1.0265334129333496e-05, 3.220703125) (-9.713813781738282e-06, 3.22265625) (-9.180462837219238e-06, 3.224609375) (-8.66943359375e-06, 3.2265625) (-8.181076049804687e-06, 3.228515625) (-7.715396881103516e-06, 3.23046875) (-7.2731561660766596e-06, 3.232421875) (-6.854776382446289e-06, 3.234375) (-6.462811946868896e-06, 3.236328125) (-6.101134777069092e-06, 3.23828125) (-5.766787528991699e-06, 3.240234375) (-5.4568424224853515e-06, 3.2421875) (-5.181085109710693e-06, 3.244140625) (-4.947708129882812e-06, 3.24609375) (-4.763918399810791e-06, 3.248046875) (-4.6401610374450684e-06, 3.25) (-4.5709228515625e-06, 3.251953125) (-4.54421329498291e-06, 3.25390625) (-4.573019027709961e-06, 3.255859375) (-4.670745849609375e-06, 3.2578125) (-4.8111944198608396e-06, 3.259765625) (-4.9746141433715814e-06, 3.26171875) (-5.145350456237792e-06, 3.263671875) (-5.298489570617675e-06, 3.265625) (-5.455497741699219e-06, 3.267578125) (-5.658772468566894e-06, 3.26953125) (-5.8849725723266595e-06, 3.271484375) (-6.091603279113769e-06, 3.2734375) (-6.388679981231689e-06, 3.275390625) (-6.9058866500854486e-06, 3.27734375) (-7.563903331756591e-06, 3.279296875) (-8.368732452392578e-06, 3.28125) (-9.342942237854004e-06, 3.283203125) (-1.020292854309082e-05, 3.28515625) (-1.170356273651123e-05, 3.287109375) (-1.457901382446289e-05, 3.2890625) (-1.7773021697998047e-05, 3.291015625) (-2.0962984085083008e-05, 3.29296875) (-2.2210693359375e-05, 3.294921875) (-1.919663429260254e-05, 3.296875) (-1.4480362892150878e-05, 3.298828125) (-9.766523361206053e-06, 3.30078125) (-7.595102787017822e-06, 3.302734375) (-1.145640754699707e-05, 3.3046875) (-1.825487518310547e-05, 3.306640625) (-2.5365600585937498e-05, 3.30859375) (-3.098824691772461e-05, 3.310546875) (-3.215082550048828e-05, 3.3125) (-3.096964645385742e-05, 3.314453125) (-2.9589683532714842e-05, 3.31640625) (-2.848381996154785e-05, 3.318359375) (-2.8957603454589844e-05, 3.3203125) (-3.024546432495117e-05, 3.322265625) (-3.1364501953125e-05, 3.32421875) (-3.249657440185547e-05, 3.326171875) (-3.351247406005859e-05, 3.328125) (-3.4473403930664063e-05, 3.330078125) (-3.557348251342773e-05, 3.33203125) (-3.66790771484375e-05, 3.333984375) (-3.7682609558105464e-05, 3.3359375) (-3.8615024566650386e-05, 3.337890625) (-3.9480731964111326e-05, 3.33984375) (-4.0264652252197266e-05, 3.341796875) (-4.0967182159423826e-05, 3.34375) (-4.159381103515625e-05, 3.345703125) (-4.2146759033203125e-05, 3.34765625) (-4.2643600463867185e-05, 3.349609375) (-4.310567855834961e-05, 3.3515625) (-4.352310562133789e-05, 3.353515625) (-4.3886383056640626e-05, 3.35546875) (-4.419869232177734e-05, 3.357421875) (-4.445899200439453e-05, 3.359375) (-4.4667537689208985e-05, 3.361328125) (-4.482620239257812e-05, 3.36328125) (-4.493257141113281e-05, 3.365234375) (-4.498428726196289e-05, 3.3671875) (-4.498348236083984e-05, 3.369140625) (-4.493209075927734e-05, 3.37109375) (-4.4831054687499997e-05, 3.373046875) (-4.468202209472656e-05, 3.375) (-4.4485996246337886e-05, 3.376953125) (-4.424395751953125e-05, 3.37890625) (-4.395746612548828e-05, 3.380859375) (-4.36280403137207e-05, 3.3828125) (-4.325714874267578e-05, 3.384765625) (-4.284633255004883e-05, 3.38671875) (-4.239713287353515e-05, 3.388671875) (-4.191119003295898e-05, 3.390625) (-4.139022064208984e-05, 3.392578125) (-4.083601379394531e-05, 3.39453125) (-4.025041198730469e-05, 3.396484375) (-3.9635276794433595e-05, 3.3984375) (-3.8992424011230466e-05, 3.400390625) (-3.832362365722656e-05, 3.40234375) (-3.7630584716796876e-05, 3.404296875) (-3.691490173339843e-05, 3.40625) (-3.617806625366211e-05, 3.408203125) (-3.542146301269531e-05, 3.41015625) (-3.464644622802734e-05, 3.412109375) (-3.385435104370117e-05, 3.4140625) (-3.304657745361328e-05, 3.416015625) (-3.222457885742187e-05, 3.41796875) (-3.138984680175781e-05, 3.419921875) (-3.0543956756591794e-05, 3.421875) (-2.9688514709472656e-05, 3.423828125) (-2.8825170516967773e-05, 3.42578125) (-2.795558166503906e-05, 3.427734375) (-2.7081371307373046e-05, 3.4296875) (-2.620408821105957e-05, 3.431640625) (-2.5325199127197264e-05, 3.43359375) (-2.4446083068847654e-05, 3.435546875) (-2.3568073272705078e-05, 3.4375) (-2.2692426681518553e-05, 3.439453125) (-2.1820335388183593e-05, 3.44140625) (-2.095288276672363e-05, 3.443359375) (-2.009103012084961e-05, 3.4453125) (-1.9235599517822266e-05, 3.447265625) (-1.8387252807617185e-05, 3.44921875) (-1.7546464920043945e-05, 3.451171875) (-1.6713489532470703e-05, 3.453125) (-1.5888330459594724e-05, 3.455078125) (-1.5070773124694823e-05, 3.45703125) (-1.4260406494140625e-05, 3.458984375) (-1.3456685066223143e-05, 3.4609375) (-1.2658970832824706e-05, 3.462890625) (-1.1866559028625487e-05, 3.46484375) (-1.1078706741333008e-05, 3.466796875) (-1.0294656753540039e-05, 3.46875) (-9.513660430908202e-06, 3.470703125) (-8.73497200012207e-06, 3.47265625) (-7.957829475402832e-06, 3.474609375) (-7.181409835815429e-06, 3.4765625) (-6.404791831970214e-06, 3.478515625) (-5.626947402954101e-06, 3.48046875) (-4.846746921539307e-06, 3.482421875) (-4.062968254089355e-06, 3.484375) (-3.274304151535034e-06, 3.486328125) (-2.4793629646301267e-06, 3.48828125) (-1.6766800880432128e-06, 3.490234375) (-8.647531270980834e-07, 3.4921875) (-4.2075484991073606e-08, 3.494140625) (7.928351163864135e-07, 3.49609375) (1.6414253711700439e-06, 3.498046875) (2.50510835647583e-06, 3.5) (3.385246992111206e-06, 3.501953125) (4.283111572265625e-06, 3.50390625) (5.199827671051025e-06, 3.505859375) (6.136325359344482e-06, 3.5078125) (7.093300819396972e-06, 3.509765625) (8.071199417114257e-06, 3.51171875) (9.070189476013184e-06, 3.513671875) (1.0090136528015137e-05, 3.515625) (1.1130578994750976e-05, 3.517578125) (1.219074821472168e-05, 3.51953125) (1.326961898803711e-05, 3.521484375) (1.4365962028503418e-05, 3.5234375) (1.547840881347656e-05, 3.525390625) (1.6605495452880858e-05, 3.52734375) (1.7745693206787108e-05, 3.529296875) (1.8897436141967772e-05, 3.53125) (2.0059169769287108e-05, 3.533203125) (2.1229366302490235e-05, 3.53515625) (2.240652275085449e-05, 3.537109375) (2.3589141845703126e-05, 3.5390625) (2.4775714874267576e-05, 3.541015625) (2.596468162536621e-05, 3.54296875) (2.715446662902832e-05, 3.544921875) (2.834346008300781e-05, 3.546875) (2.9530014038085937e-05, 3.548828125) (3.0712451934814455e-05, 3.55078125) (3.188904190063476e-05, 3.552734375) (3.3058002471923824e-05, 3.5546875) (3.421755218505859e-05, 3.556640625) (3.536589050292969e-05, 3.55859375) (3.6501255035400386e-05, 3.560546875) (3.762191772460937e-05, 3.5625) (3.872618865966797e-05, 3.564453125) (3.9812461853027344e-05, 3.56640625) (4.087928009033203e-05, 3.568359375) (4.192537689208984e-05, 3.5703125) (4.294972991943359e-05, 3.572265625) (4.395154571533203e-05, 3.57421875) (4.493032836914062e-05, 3.576171875) (4.5885860443115235e-05, 3.578125) (4.681820678710937e-05, 3.580078125) (4.7727741241455076e-05, 3.58203125) (4.861505889892578e-05, 3.583984375) (4.94809455871582e-05, 3.5859375) (5.032629776000976e-05, 3.587890625) (5.1152065277099604e-05, 3.58984375) (5.1959194183349605e-05, 3.591796875) (5.274860763549805e-05, 3.59375) (5.352113342285156e-05, 3.595703125) (5.427748107910156e-05, 3.59765625) (5.501822662353515e-05, 3.599609375) (5.574380493164062e-05, 3.6015625) (5.645454025268554e-05, 3.603515625) (5.715066528320312e-05, 3.60546875) (5.7832359313964844e-05, 3.607421875) (5.849972915649414e-05, 3.609375) (5.9152843475341796e-05, 3.611328125) (5.9791748046874997e-05, 3.61328125) (6.041651153564453e-05, 3.615234375) (6.1027198791503905e-05, 3.6171875) (6.16239128112793e-05, 3.619140625) (6.220676422119141e-05, 3.62109375) (6.277584838867188e-05, 3.623046875) (6.333129119873046e-05, 3.625) (6.387321472167969e-05, 3.626953125) (6.440174102783203e-05, 3.62890625) (6.491694641113281e-05, 3.630859375) (6.541883850097655e-05, 3.6328125) (6.590731811523437e-05, 3.634765625) (6.638214874267578e-05, 3.63671875) (6.684297180175781e-05, 3.638671875) (6.72892608642578e-05, 3.640625) (6.772035217285156e-05, 3.642578125) (6.813540649414062e-05, 3.64453125) (6.853346252441406e-05, 3.646484375) (6.891349792480468e-05, 3.6484375) (6.927450561523437e-05, 3.650390625) (6.961552429199219e-05, 3.65234375) (6.993572235107422e-05, 3.654296875) (7.023445892333985e-05, 3.65625) (7.051129913330077e-05, 3.658203125) (7.076606750488281e-05, 3.66015625) (7.099886322021485e-05, 3.662109375) (7.121002960205078e-05, 3.6640625) (7.140016174316406e-05, 3.666015625) (7.1570068359375e-05, 3.66796875) (7.172065734863281e-05, 3.669921875) (7.185303497314453e-05, 3.671875) (7.19683837890625e-05, 3.673828125) (7.206799316406249e-05, 3.67578125) (7.215318298339844e-05, 3.677734375) (7.222532653808594e-05, 3.6796875) (7.228582000732421e-05, 3.681640625) (7.233602142333983e-05, 3.68359375) (7.23772964477539e-05, 3.685546875) (7.241094970703124e-05, 3.6875) (7.243822479248046e-05, 3.689453125) (7.246026611328125e-05, 3.69140625) (7.247811126708984e-05, 3.693359375) (7.249276733398437e-05, 3.6953125) (7.250515747070313e-05, 3.697265625) (7.251618957519531e-05, 3.69921875) (7.252678680419922e-05, 3.701171875) (7.253787994384766e-05, 3.703125) (7.255040740966796e-05, 3.705078125) (7.256537628173828e-05, 3.70703125) (7.258377838134765e-05, 3.708984375) (7.260659790039062e-05, 3.7109375) (7.263470458984374e-05, 3.712890625) (7.266880798339844e-05, 3.71484375) (7.270940399169921e-05, 3.716796875) (7.275673675537109e-05, 3.71875) (7.281078338623047e-05, 3.720703125) (7.287120056152343e-05, 3.72265625) (7.29373779296875e-05, 3.724609375) (7.300845336914063e-05, 3.7265625) (7.308328247070312e-05, 3.728515625) (7.316057586669921e-05, 3.73046875) (7.323887634277343e-05, 3.732421875) (7.331661224365234e-05, 3.734375) (7.339209747314452e-05, 3.736328125) (7.346353149414062e-05, 3.73828125) (7.352905273437499e-05, 3.740234375) (7.358675384521484e-05, 3.7421875) (7.36347198486328e-05, 3.744140625) (7.367105865478515e-05, 3.74609375) (7.369393157958984e-05, 3.748046875) (7.370166015625e-05, 3.75) (7.36927032470703e-05, 3.751953125) (7.366576385498047e-05, 3.75390625) (7.361976623535156e-05, 3.755859375) (7.355387115478516e-05, 3.7578125) (7.346742248535156e-05, 3.759765625) (7.335995483398437e-05, 3.76171875) (7.323112487792968e-05, 3.763671875) (7.308072662353516e-05, 3.765625) (7.290863800048828e-05, 3.767578125) (7.271484375e-05, 3.76953125) (7.249945068359374e-05, 3.771484375) (7.226271057128906e-05, 3.7734375) (7.200505065917969e-05, 3.775390625) (7.17271728515625e-05, 3.77734375) (7.143004608154297e-05, 3.779296875) (7.111492919921875e-05, 3.78125) (7.078338623046875e-05, 3.783203125) (7.043719482421875e-05, 3.78515625) (7.007839965820313e-05, 3.787109375) (6.970924377441406e-05, 3.7890625) (6.933212280273438e-05, 3.791015625) (6.89495849609375e-05, 3.79296875) (6.856427001953125e-05, 3.794921875) (6.817890167236328e-05, 3.796875) (6.779632568359374e-05, 3.798828125) (6.741947937011718e-05, 3.80078125) (6.705137634277344e-05, 3.802734375) (6.669509887695312e-05, 3.8046875) (6.635369873046874e-05, 3.806640625) (6.603019714355469e-05, 3.80859375) (6.572745513916015e-05, 3.810546875) (6.544815063476562e-05, 3.8125) (6.519469451904297e-05, 3.814453125) (6.496917724609375e-05, 3.81640625) (6.477336120605469e-05, 3.818359375) (6.460862731933594e-05, 3.8203125) (6.44760284423828e-05, 3.822265625) (6.437632751464844e-05, 3.82421875) (6.430998229980469e-05, 3.826171875) (6.427718353271485e-05, 3.828125) (6.427781677246094e-05, 3.830078125) (6.43114776611328e-05, 3.83203125) (6.437744140625e-05, 3.833984375) (6.447461700439452e-05, 3.8359375) (6.46015625e-05, 3.837890625) (6.475640106201171e-05, 3.83984375) (6.493687438964843e-05, 3.841796875) (6.514031982421875e-05, 3.84375) (6.536373901367188e-05, 3.845703125) (6.560381317138671e-05, 3.84765625) (6.585699462890624e-05, 3.849609375) (6.61195068359375e-05, 3.8515625) (6.638735961914062e-05, 3.853515625) (6.665638732910157e-05, 3.85546875) (6.692220306396483e-05, 3.857421875) (6.718025970458984e-05, 3.859375) (6.742580413818358e-05, 3.861328125) (6.765390014648437e-05, 3.86328125) (6.785935974121093e-05, 3.865234375) (6.803691101074218e-05, 3.8671875) (6.818115234374999e-05, 3.869140625) (6.828668212890625e-05, 3.87109375) (6.834817504882812e-05, 3.873046875) (6.836041259765625e-05, 3.875) (6.83183822631836e-05, 3.876953125) (6.821734619140624e-05, 3.87890625) (6.805279541015624e-05, 3.880859375) (6.7820556640625e-05, 3.8828125) (6.751674652099608e-05, 3.884765625) (6.713780212402343e-05, 3.88671875) (6.668048095703125e-05, 3.888671875) (6.614189910888671e-05, 3.890625) (6.551953125e-05, 3.892578125) (6.481134796142577e-05, 3.89453125) (6.401571655273437e-05, 3.896484375) (6.313157653808594e-05, 3.8984375) (6.215834045410157e-05, 3.900390625) (6.10959587097168e-05, 3.90234375) (5.994484329223633e-05, 3.904296875) (5.8705871582031246e-05, 3.90625) (5.738031768798828e-05, 3.908203125) (5.59698257446289e-05, 3.91015625) (5.4476329803466795e-05, 3.912109375) (5.290206146240234e-05, 3.9140625) (5.124953460693359e-05, 3.916015625) (4.9521583557128905e-05, 3.91796875) (4.7721336364746094e-05, 3.919921875) (4.585227966308594e-05, 3.921875) (4.3918212890625e-05, 3.923828125) (4.1923286437988276e-05, 3.92578125) (3.987194442749023e-05, 3.927734375) (3.7768890380859376e-05, 3.9296875) (3.5619045257568356e-05, 3.931640625) (3.3427509307861324e-05, 3.93359375) (3.1199459075927735e-05, 3.935546875) (2.8940141677856446e-05, 3.9375) (2.6654781341552733e-05, 3.939453125) (2.4348556518554687e-05, 3.94140625) (2.202663230895996e-05, 3.943359375) (1.9694114685058594e-05, 3.9453125) (1.7356021881103515e-05, 3.947265625) (1.5017221450805663e-05, 3.94921875) (1.2682410240173339e-05, 3.951171875) (1.0356037139892577e-05, 3.953125) (8.042289733886719e-06, 3.955078125) (5.745059013366699e-06, 3.95703125) (3.4678237438201904e-06, 3.958984375) (1.2136214971542359e-06, 3.9609375) (-1.0149414539337157e-06, 3.962890625) (-3.2156665325164793e-06, 3.96484375) (-5.386683464050292e-06, 3.966796875) (-7.5263977050781245e-06, 3.96875) (-9.633468627929687e-06, 3.970703125) (-1.170680809020996e-05, 3.97265625) (-1.3745566368103027e-05, 3.974609375) (-1.5749128341674803e-05, 3.9765625) (-1.771707534790039e-05, 3.978515625) (-1.9649215698242187e-05, 3.98046875) (-2.1545639038085938e-05, 3.982421875) (-2.3406747817993164e-05, 3.984375) (-2.5233291625976562e-05, 3.986328125) (-2.7026325225830077e-05, 3.98828125) (-2.8787057876586913e-05, 3.990234375) (-3.0516845703125e-05, 3.9921875) (-3.2217247009277344e-05, 3.994140625) (-3.389000701904297e-05, 3.99609375) (-3.553702545166016e-05, 3.998046875) (-3.716039276123047e-05, 4.0) (-3.876221084594726e-05, 4.001953125) (-4.03445816040039e-05, 4.00390625) (-4.19097900390625e-05, 4.005859375) (-4.3460323333740235e-05, 4.0078125) (-4.499877166748047e-05, 4.009765625) (-4.652778625488281e-05, 4.01171875) (-4.8049964904785155e-05, 4.013671875) (-4.956776428222656e-05, 4.015625) (-5.108364868164062e-05, 4.017578125) (-5.260012054443359e-05, 4.01953125) (-5.41194839477539e-05, 4.021484375) (-5.56437873840332e-05, 4.0234375) (-5.71748161315918e-05, 4.025390625) (-5.8714088439941406e-05, 4.02734375) (-6.026307296752929e-05, 4.029296875) (-6.182328796386718e-05, 4.03125) (-6.339623641967773e-05, 4.033203125) (-6.498330688476562e-05, 4.03515625) (-6.658571624755859e-05, 4.037109375) (-6.820447540283202e-05, 4.0390625) (-6.984057617187499e-05, 4.041015625) (-7.149494934082031e-05, 4.04296875) (-7.316828155517578e-05, 4.044921875) (-7.486106872558593e-05, 4.046875) (-7.657328796386719e-05, 4.048828125) (-7.830459594726562e-05, 4.05078125) (-8.00546875e-05, 4.052734375) (-8.182327270507812e-05, 4.0546875) (-8.36098175048828e-05, 4.056640625) (-8.541344451904297e-05, 4.05859375) (-8.723281860351562e-05, 4.060546875) (-8.906610870361328e-05, 4.0625) (-9.091139984130859e-05, 4.064453125) (-9.276673126220702e-05, 4.06640625) (-9.462955474853515e-05, 4.068359375) (-9.649660491943359e-05, 4.0703125) (-9.836416625976562e-05, 4.072265625) (-0.00010022816467285156, 4.07421875) (-0.00010208409118652343, 4.076171875) (-0.00010392720031738281, 4.078125) (-0.00010575198364257813, 4.080078125) (-0.00010755184936523437, 4.08203125) (-0.00010931998443603515, 4.083984375) (-0.00011104969787597656, 4.0859375) (-0.00011273406982421875, 4.087890625) (-0.000114365966796875, 4.08984375) (-0.00011593812561035156, 4.091796875) (-0.00011744285583496093, 4.09375) (-0.00011887263488769531, 4.095703125) (-0.00012022067260742186, 4.09765625) (-0.00012147985839843749, 4.099609375) (-0.00012264222717285156, 4.1015625) (-0.0001236990509033203, 4.103515625) (-0.0001246407012939453, 4.10546875) (-0.00012545752716064452, 4.107421875) (-0.00012614017486572266, 4.109375) (-0.00012667928314208984, 4.111328125) (-0.00012706498718261717, 4.11328125) (-0.00012728675842285157, 4.115234375) (-0.00012733340454101563, 4.1171875) (-0.00012719583129882812, 4.119140625) (-0.00012686743927001952, 4.12109375) (-0.0001263408203125, 4.123046875) (-0.00012560832214355468, 4.125) (-0.00012465965270996092, 4.126953125) (-0.00012348159790039062, 4.12890625) (-0.0001220665283203125, 4.130859375) (-0.00012041337585449218, 4.1328125) (-0.0001185235366821289, 4.134765625) (-0.00011640139770507812, 4.13671875) (-0.00011405455780029296, 4.138671875) (-0.00011149252319335937, 4.140625) (-0.00010873416137695312, 4.142578125) (-0.00010580894470214843, 4.14453125) (-0.00010274468994140624, 4.146484375) (-9.956658935546874e-05, 4.1484375) (-9.629356384277344e-05, 4.150390625) (-9.293792724609374e-05, 4.15234375) (-8.951846313476562e-05, 4.154296875) (-8.605992126464843e-05, 4.15625) (-8.259033966064453e-05, 4.158203125) (-7.913765716552734e-05, 4.16015625) (-7.57151870727539e-05, 4.162109375) (-7.232137298583985e-05, 4.1640625) (-6.895469665527343e-05, 4.166015625) (-6.561099243164063e-05, 4.16796875) (-6.227569580078125e-05, 4.169921875) (-5.89260025024414e-05, 4.171875) (-5.551318740844726e-05, 4.173828125) (-5.196779632568359e-05, 4.17578125) (-4.8236083984375e-05, 4.177734375) (-4.4281196594238276e-05, 4.1796875) (-4.0080078124999995e-05, 4.181640625) (-3.562240219116211e-05, 4.18359375) (-3.088885498046875e-05, 4.185546875) (-2.5851280212402344e-05, 4.1875) (-2.049551773071289e-05, 4.189453125) (-1.4829714775085448e-05, 4.19140625) (-8.889647483825683e-06, 4.193359375) (-2.7378387451171875e-06, 4.1953125) (3.5622601509094235e-06, 4.197265625) (9.940017700195311e-06, 4.19921875) (1.6295047760009766e-05, 4.201171875) (2.2499443054199217e-05, 4.203125) (2.838212203979492e-05, 4.205078125) (3.3748741149902344e-05, 4.20703125) (3.843335723876953e-05, 4.208984375) (4.229921722412109e-05, 4.2109375) (4.522053527832031e-05, 4.212890625) (4.707976531982422e-05, 4.21484375) (4.775520324707031e-05, 4.216796875) (4.712156295776367e-05, 4.21875) (4.5096290588378904e-05, 4.220703125) (4.1648857116699215e-05, 4.22265625) (3.678202438354492e-05, 4.224609375) (3.053292083740234e-05, 4.2265625) (2.294882583618164e-05, 4.228515625) (1.4096406936645507e-05, 4.23046875) (4.095745086669922e-06, 4.232421875) (-6.88026475906372e-06, 4.234375) (-1.861038589477539e-05, 4.236328125) (-3.0855457305908204e-05, 4.23828125) (-4.339579010009765e-05, 4.240234375) (-5.6032848358154297e-05, 4.2421875) (-6.855816650390625e-05, 4.244140625) (-8.075003051757813e-05, 4.24609375) (-9.238993835449218e-05, 4.248046875) (-0.0001032635498046875, 4.25) (-0.00011320855712890625, 4.251953125) (-0.00012212004089355469, 4.25390625) (-0.0001299129638671875, 4.255859375) (-0.00013652696228027344, 4.2578125) (-0.00014191802978515624, 4.259765625) (-0.00014606719970703124, 4.26171875) (-0.00014900868225097656, 4.263671875) (-0.00015083157348632812, 4.265625) (-0.0001516553955078125, 4.267578125) (-0.0001516042022705078, 4.26953125) (-0.00015080200195312498, 4.271484375) (-0.00014936846923828124, 4.2734375) (-0.00014744830322265624, 4.275390625) (-0.00014521432495117186, 4.27734375) (-0.00014282675170898437, 4.279296875) (-0.00014043325805664062, 4.28125) (-0.00013814462280273436, 4.283203125) (-0.00013603358459472655, 4.28515625) (-0.0001341693420410156, 4.287109375) (-0.00013261309814453125, 4.2890625) (-0.0001314097900390625, 4.291015625) (-0.0001305839080810547, 4.29296875) (-0.00013013148498535157, 4.294921875) (-0.00013001766967773437, 4.296875) (-0.0001302016143798828, 4.298828125) (-0.0001306495666503906, 4.30078125) (-0.00013131793212890625, 4.302734375) (-0.00013215916442871093, 4.3046875) (-0.00013310659790039062, 4.306640625) (-0.0001340725860595703, 4.30859375) (-0.00013498655700683594, 4.310546875) (-0.00013579452514648436, 4.3125) (-0.00013645960998535155, 4.314453125) (-0.00013696200561523437, 4.31640625) (-0.0001372821044921875, 4.318359375) (-0.00013740142822265625, 4.3203125) (-0.00013731478881835938, 4.322265625) (-0.00013703082275390624, 4.32421875) (-0.00013656405639648437, 4.326171875) (-0.00013593692016601562, 4.328125) (-0.00013516819763183594, 4.330078125) (-0.00013426942443847656, 4.33203125) (-0.00013326069641113282, 4.333984375) (-0.00013216671752929688, 4.3359375) (-0.0001310186767578125, 4.337890625) (-0.0001298551483154297, 4.33984375) (-0.00012870413208007812, 4.341796875) (-0.00012758317565917968, 4.34375) (-0.0001265056457519531, 4.345703125) (-0.0001254800033569336, 4.34765625) (-0.00012451284027099608, 4.349609375) (-0.0001236098403930664, 4.3515625) (-0.00012276947784423828, 4.353515625) (-0.0001219833526611328, 4.35546875) (-0.00012124510192871094, 4.357421875) (-0.00012054945373535155, 4.359375) (-0.00011989321136474608, 4.361328125) (-0.00011927602386474609, 4.36328125) (-0.00011869423675537108, 4.365234375) (-0.00011814195251464843, 4.3671875) (-0.00011761323547363281, 4.369140625) (-0.0001171016845703125, 4.37109375) (-0.00011660299682617186, 4.373046875) (-0.00011611515045166015, 4.375) (-0.0001156359405517578, 4.376953125) (-0.00011516327667236328, 4.37890625) (-0.00011469647216796875, 4.380859375) (-0.00011423543548583983, 4.3828125) (-0.00011378169250488281, 4.384765625) (-0.00011333831787109375, 4.38671875) (-0.00011290693664550781, 4.388671875) (-0.00011248791503906249, 4.390625) (-0.0001120814971923828, 4.392578125) (-0.0001116873779296875, 4.39453125) (-0.00011130532836914061, 4.396484375) (-0.00011093536376953124, 4.3984375) (-0.00011057685089111327, 4.400390625) (-0.00011022864532470703, 4.40234375) (-0.00010989019775390625, 4.404296875) (-0.00010956142425537109, 4.40625) (-0.00010924256896972655, 4.408203125) (-0.0001089341583251953, 4.41015625) (-0.00010863659667968749, 4.412109375) (-0.0001083502197265625, 4.4140625) (-0.00010807560729980468, 4.416015625) (-0.0001078134765625, 4.41796875) (-0.000107564453125, 4.419921875) (-0.00010732909393310546, 4.421875) (-0.00010710781097412108, 4.423828125) (-0.0001069008560180664, 4.42578125) (-0.00010670854949951171, 4.427734375) (-0.00010653124237060547, 4.4296875) (-0.00010636888122558593, 4.431640625) (-0.00010622113037109375, 4.43359375) (-0.0001060877456665039, 4.435546875) (-0.00010596814727783203, 4.4375) (-0.00010586145782470703, 4.439453125) (-0.00010576708984375, 4.44140625) (-0.00010568324279785156, 4.443359375) (-0.0001056077880859375, 4.4453125) (-0.00010554102325439453, 4.447265625) (-0.00010548309326171875, 4.44921875) (-0.00010543303680419922, 4.451171875) (-0.00010539092254638671, 4.453125) (-0.00010535501098632812, 4.455078125) (-0.00010532172393798828, 4.45703125) (-0.00010529434204101563, 4.458984375) (-0.00010527693939208985, 4.4609375) (-0.0001052612075805664, 4.462890625) (-0.00010524112701416015, 4.46484375) (-0.00010521212005615234, 4.466796875) (-0.00010516582489013672, 4.46875) (-0.0001051099853515625, 4.470703125) (-0.00010505899810791015, 4.47265625) (-0.00010500126647949218, 4.474609375) (-0.0001049244384765625, 4.4765625) (-0.00010485664367675781, 4.478515625) (-0.00010481887054443359, 4.48046875) (-0.000104827392578125, 4.482421875) (-0.00010490807342529296, 4.484375) (-0.00010503874969482421, 4.486328125) (-0.00010517552185058593, 4.48828125) (-0.00010534225463867187, 4.490234375) (-0.00010558221435546874, 4.4921875) (-0.00010578060150146484, 4.494140625) (-0.00010580204772949218, 4.49609375) (-0.00010572701263427734, 4.498046875) (-0.00010554727172851562, 4.5) (-0.00010523685455322265, 4.501953125) (-0.00010508596038818359, 4.50390625) (-0.00010431024169921874, 4.505859375) (-0.0001021466064453125, 4.5078125) (-9.968376159667968e-05, 4.509765625) (-9.725126647949218e-05, 4.51171875) (-9.684947204589843e-05, 4.513671875) (-0.00010087278747558594, 4.515625) (-0.00010666844940185547, 4.517578125) (-0.00011246771240234375, 4.51953125) (-0.0001156373291015625, 4.521484375) (-0.00011256047058105468, 4.5234375) (-0.00010643197631835937, 4.525390625) (-9.995943450927734e-05, 4.52734375) (-9.499718475341797e-05, 4.529296875) (-9.461146545410156e-05, 4.53125) (-9.66053466796875e-05, 4.533203125) (-9.875237274169922e-05, 4.53515625) (-0.0001005557861328125, 4.537109375) (-0.00010065785217285155, 4.5390625) (-9.984347534179687e-05, 4.541015625) (-9.912277221679687e-05, 4.54296875) (-9.830146789550781e-05, 4.544921875) (-9.750739288330078e-05, 4.546875) (-9.667169189453125e-05, 4.548828125) (-9.558840179443359e-05, 4.55078125) (-9.439105987548827e-05, 4.552734375) (-9.318682861328125e-05, 4.5546875) (-9.194020843505859e-05, 4.556640625) (-9.064375305175781e-05, 4.55859375) (-8.931083679199218e-05, 4.560546875) (-8.793953704833984e-05, 4.5625) (-8.65233154296875e-05, 4.564453125) (-8.505973052978516e-05, 4.56640625) (-8.353111267089843e-05, 4.568359375) (-8.191639709472656e-05, 4.5703125) (-8.022743225097656e-05, 4.572265625) (-7.847628021240234e-05, 4.57421875) (-7.666251373291015e-05, 4.576171875) (-7.479073333740234e-05, 4.578125) (-7.286511993408202e-05, 4.580078125) (-7.088897705078124e-05, 4.58203125) (-6.88709259033203e-05, 4.583984375) (-6.682038879394531e-05, 4.5859375) (-6.47427978515625e-05, 4.587890625) (-6.264442062377929e-05, 4.58984375) (-6.0533138275146485e-05, 4.591796875) (-5.8416496276855464e-05, 4.59375) (-5.63028564453125e-05, 4.595703125) (-5.4200683593749995e-05, 4.59765625) (-5.211786651611328e-05, 4.599609375) (-5.006243133544922e-05, 4.6015625) (-4.8042510986328126e-05, 4.603515625) (-4.606605529785156e-05, 4.60546875) (-4.4140869140625e-05, 4.607421875) (-4.227449798583984e-05, 4.609375) (-4.047423934936523e-05, 4.611328125) (-3.8747200012207026e-05, 4.61328125) (-3.7100120544433594e-05, 4.615234375) (-3.553908538818359e-05, 4.6171875) (-3.406957626342773e-05, 4.619140625) (-3.269647979736328e-05, 4.62109375) (-3.142396545410156e-05, 4.623046875) (-3.025550651550293e-05, 4.625) (-2.919403839111328e-05, 4.626953125) (-2.8241699218749997e-05, 4.62890625) (-2.7399810791015625e-05, 4.630859375) (-2.666904830932617e-05, 4.6328125) (-2.604914855957031e-05, 4.634765625) (-2.553879928588867e-05, 4.63671875) (-2.513597297668457e-05, 4.638671875) (-2.483761405944824e-05, 4.640625) (-2.4638990402221677e-05, 4.642578125) (-2.453390884399414e-05, 4.64453125) (-2.4514678955078123e-05, 4.646484375) (-2.457204818725586e-05, 4.6484375) (-2.4696117401123046e-05, 4.650390625) (-2.4876327514648435e-05, 4.65234375) (-2.510092544555664e-05, 4.654296875) (-2.535737991333008e-05, 4.65625) (-2.563306427001953e-05, 4.658203125) (-2.5915285110473633e-05, 4.66015625) (-2.6191642761230468e-05, 4.662109375) (-2.6450103759765624e-05, 4.6640625) (-2.6678052902221677e-05, 4.666015625) (-2.686215019226074e-05, 4.66796875) (-2.698853302001953e-05, 4.669921875) (-2.704282569885254e-05, 4.671875) (-2.701038360595703e-05, 4.673828125) (-2.687686729431152e-05, 4.67578125) (-2.6628206253051757e-05, 4.677734375) (-2.6249486923217772e-05, 4.6796875) (-2.572379493713379e-05, 4.681640625) (-2.503271484375e-05, 4.68359375) (-2.4160423278808592e-05, 4.685546875) (-2.3094764709472655e-05, 4.6875) (-2.182570648193359e-05, 4.689453125) (-2.0343730926513672e-05, 4.69140625) (-1.8635374069213868e-05, 4.693359375) (-1.669034957885742e-05, 4.6953125) (-1.451435089111328e-05, 4.697265625) (-1.2126505851745605e-05, 4.69921875) (-9.544421195983887e-06, 4.701171875) (-6.77936315536499e-06, 4.703125) (-3.832191944122314e-06, 4.705078125) (-6.998549699783325e-07, 4.70703125) (2.602820634841919e-06, 4.708984375) (6.071857452392578e-06, 4.7109375) (9.744115829467772e-06, 4.712890625) (1.3674085617065429e-05, 4.71484375) (1.7889556884765624e-05, 4.716796875) (2.2385334014892578e-05, 4.71875) (2.7114322662353516e-05, 4.720703125) (3.2001903533935544e-05, 4.72265625) (3.7007202148437495e-05, 4.724609375) (4.200247192382812e-05, 4.7265625) (4.668134307861328e-05, 4.728515625) (5.0801017761230465e-05, 4.73046875) (5.4352096557617185e-05, 4.732421875) (5.7452613830566405e-05, 4.734375) (6.032717895507812e-05, 4.736328125) (6.259616088867187e-05, 4.73828125) (6.314641952514648e-05, 4.740234375) (6.146052932739257e-05, 4.7421875) (5.8415042877197265e-05, 4.744140625) (5.7528724670410155e-05, 4.74609375) (6.366083526611328e-05, 4.748046875) (7.989517211914062e-05, 4.75) (0.00010541332244873047, 4.751953125) (0.00013318414306640625, 4.75390625) (0.00015368507385253905, 4.755859375) (0.00015899172973632812, 4.7578125) (0.00014622911071777344, 4.759765625) (0.00012170870971679687, 4.76171875) (9.610104370117187e-05, 4.763671875) (8.072278594970703e-05, 4.765625) (8.296620178222655e-05, 4.767578125) (0.00010096527099609375, 4.76953125) (0.00012735061645507812, 4.771484375) (0.00015190660095214844, 4.7734375) (0.00016656008911132813, 4.775390625) (0.00016971586608886718, 4.77734375) (0.0001640493621826172, 4.779296875) (0.0001549473876953125, 4.78125) (0.00014663233947753904, 4.783203125) (0.00014022286987304687, 4.78515625) (0.0001351373596191406, 4.787109375) (0.00012973583984374998, 4.7890625) (0.00012313106536865234, 4.791015625) (0.00011547187805175781, 4.79296875) (0.00010703930664062499, 4.794921875) (9.815252685546875e-05, 4.796875) (8.886258697509765e-05, 4.798828125) (7.903163146972656e-05, 4.80078125) (6.869100952148437e-05, 4.802734375) (5.800608444213867e-05, 4.8046875) (4.7157619476318355e-05, 4.806640625) (3.6322196960449214e-05, 4.80859375) (2.564805793762207e-05, 4.810546875) (1.5274377822875975e-05, 4.8125) (5.348516464233398e-06, 4.814453125) (-3.977799892425537e-06, 4.81640625) (-1.2565162658691406e-05, 4.818359375) (-2.0327404022216795e-05, 4.8203125) (-2.7214897155761716e-05, 4.822265625) (-3.320760345458984e-05, 4.82421875) (-3.8333629608154295e-05, 4.826171875) (-4.263643646240234e-05, 4.828125) (-4.615208435058594e-05, 4.830078125) (-4.893697357177734e-05, 4.83203125) (-5.106551361083984e-05, 4.833984375) (-5.2631420135498045e-05, 4.8359375) (-5.37528076171875e-05, 4.837890625) (-5.452000045776367e-05, 4.83984375) (-5.498623657226562e-05, 4.841796875) (-5.519844055175781e-05, 4.84375) (-5.520065307617187e-05, 4.845703125) (-5.505545425415039e-05, 4.84765625) (-5.484879302978515e-05, 4.849609375) (-5.464310836791992e-05, 4.8515625) (-5.446951293945312e-05, 4.853515625) (-5.4345909118652344e-05, 4.85546875) (-5.426837539672851e-05, 4.857421875) (-5.4228916168212885e-05, 4.859375) (-5.423017883300781e-05, 4.861328125) (-5.425379562377929e-05, 4.86328125) (-5.426058197021484e-05, 4.865234375) (-5.420179748535156e-05, 4.8671875) (-5.401702880859375e-05, 4.869140625) (-5.366925048828125e-05, 4.87109375) (-5.31522102355957e-05, 4.873046875) (-5.246535110473633e-05, 4.875) (-5.160968780517578e-05, 4.876953125) (-5.0579952239990233e-05, 4.87890625) (-4.936194229125976e-05, 4.880859375) (-4.795636749267578e-05, 4.8828125) (-4.638252258300781e-05, 4.884765625) (-4.4660480499267574e-05, 4.88671875) (-4.2810394287109376e-05, 4.888671875) (-4.084893035888672e-05, 4.890625) (-3.878898239135742e-05, 4.892578125) (-3.665719223022461e-05, 4.89453125) (-3.4495243072509767e-05, 4.896484375) (-3.234989547729492e-05, 4.8984375) (-3.0265569686889648e-05, 4.900390625) (-2.8270908355712888e-05, 4.90234375) (-2.638013458251953e-05, 4.904296875) (-2.4603025436401366e-05, 4.90625) (-2.294635009765625e-05, 4.908203125) (-2.1414957046508787e-05, 4.91015625) (-2.0004074096679686e-05, 4.912109375) (-1.8694385528564454e-05, 4.9140625) (-1.746190643310547e-05, 4.916015625) (-1.6285629272460936e-05, 4.91796875) (-1.5157049179077147e-05, 4.919921875) (-1.4080252647399902e-05, 4.921875) (-1.3055352210998534e-05, 4.923828125) (-1.2074832916259765e-05, 4.92578125) (-1.1126028060913085e-05, 4.927734375) (-1.0190825462341309e-05, 4.9296875) (-9.263034820556641e-06, 4.931640625) (-8.352761268615722e-06, 4.93359375) (-7.464239597320556e-06, 4.935546875) (-6.597357273101807e-06, 4.9375) (-5.7555108070373534e-06, 4.939453125) (-4.9414539337158205e-06, 4.94140625) (-4.180634498596192e-06, 4.943359375) (-3.5190539360046384e-06, 4.9453125) (-2.9896676540374754e-06, 4.947265625) (-2.611250877380371e-06, 4.94921875) (-2.378331184387207e-06, 4.951171875) (-2.259023189544678e-06, 4.953125) (-2.2264881134033204e-06, 4.955078125) (-2.258525848388672e-06, 4.95703125) (-2.3206911087036133e-06, 4.958984375) (-2.3779213428497314e-06, 4.9609375) (-2.3775603771209716e-06, 4.962890625) (-2.2426795959472657e-06, 4.96484375) (-1.9189902544021604e-06, 4.966796875) (-1.3652900457382202e-06, 4.96875) (-5.305132269859314e-07, 4.970703125) (6.375238299369811e-07, 4.97265625) (2.223257064819336e-06, 4.974609375) (4.340499401092529e-06, 4.9765625) (7.080483436584472e-06, 4.978515625) (1.050356388092041e-05, 4.98046875) (1.4639801025390625e-05, 4.982421875) (1.948688507080078e-05, 4.984375) (2.5042137145996093e-05, 4.986328125) (3.130637168884277e-05, 4.98828125) (3.8251953124999997e-05, 4.990234375) (4.584023284912109e-05, 4.9921875) (5.4016014099121094e-05, 4.994140625) (6.269953155517577e-05, 4.99609375) (7.184123229980468e-05, 4.998046875) (8.140252685546875e-05, 5.0) (9.132342529296875e-05, 5.001953125) (0.00010152877807617187, 5.00390625) (0.00011190447998046875, 5.005859375) (0.00012229991912841796, 5.0078125) (0.00013257554626464843, 5.009765625) (0.00014262619018554686, 5.01171875) (0.0001523675079345703, 5.013671875) (0.00016173638916015625, 5.015625) (0.00017067437744140625, 5.017578125) (0.00017911766052246093, 5.01953125) (0.0001870296173095703, 5.021484375) (0.00019438581848144532, 5.0234375) (0.00020116824340820312, 5.025390625) (0.00020736642456054685, 5.02734375) (0.00021293954467773435, 5.029296875) (0.00021784219360351562, 5.03125) (0.00022205107116699219, 5.033203125) (0.0002255673370361328, 5.03515625) (0.0002284261779785156, 5.037109375) (0.00023069473266601562, 5.0390625) (0.00023244671630859374, 5.041015625) (0.00023373185729980468, 5.04296875) (0.00023459245300292968, 5.044921875) (0.00023506309509277343, 5.046875) (0.00023517054748535156, 5.048828125) (0.00023494607543945312, 5.05078125) (0.000234406494140625, 5.052734375) (0.0002335616760253906, 5.0546875) (0.00023242311096191405, 5.056640625) (0.00023101219177246092, 5.05859375) (0.00022937437438964842, 5.060546875) (0.000227557373046875, 5.0625) (0.00022559945678710938, 5.064453125) (0.00022352058410644531, 5.06640625) (0.00022132232666015623, 5.068359375) (0.00021898983764648437, 5.0703125) (0.00021649801635742187, 5.072265625) (0.0002138346710205078, 5.07421875) (0.0002109910430908203, 5.076171875) (0.000207963623046875, 5.078125) (0.00020475979614257813, 5.080078125) (0.00020138951110839842, 5.08203125) (0.0001978706512451172, 5.083984375) (0.00019422752380371093, 5.0859375) (0.00019048612976074218, 5.087890625) (0.00018666302490234375, 5.08984375) (0.00018276416015625, 5.091796875) (0.00017879541015624999, 5.09375) (0.00017476358032226562, 5.095703125) (0.00017068478393554687, 5.09765625) (0.0001665827941894531, 5.099609375) (0.0001624869689941406, 5.1015625) (0.00015843267822265625, 5.103515625) (0.00015445208740234374, 5.10546875) (0.00015057565307617188, 5.107421875) (0.00014683010864257812, 5.109375) (0.00014323529052734374, 5.111328125) (0.00013980625915527344, 5.11328125) (0.00013655331420898436, 5.115234375) (0.00013348132324218748, 5.1171875) (0.00013059071350097654, 5.119140625) (0.00012788404846191404, 5.12109375) (0.00012536522674560548, 5.123046875) (0.000123037109375, 5.125) (0.00012090281677246093, 5.126953125) (0.00011896170806884766, 5.12890625) (0.0001172096710205078, 5.130859375) (0.00011564044189453125, 5.1328125) (0.00011424505615234375, 5.134765625) (0.00011301280212402343, 5.13671875) (0.00011193168640136718, 5.138671875) (0.00011098941040039062, 5.140625) (0.0001101737060546875, 5.142578125) (0.00010947300720214844, 5.14453125) (0.00010887644958496093, 5.146484375) (0.00010837393188476562, 5.1484375) (0.00010795642852783203, 5.150390625) (0.00010761439514160156, 5.15234375) (0.00010733758544921875, 5.154296875) (0.00010711518859863281, 5.15625) (0.00010693543243408202, 5.158203125) (0.00010678646850585937, 5.16015625) (0.00010665652465820312, 5.162109375) (0.00010653371429443358, 5.1640625) (0.00010640596008300781, 5.166015625) (0.00010626188659667968, 5.16796875) (0.00010609074401855469, 5.169921875) (0.000105882568359375, 5.171875) (0.00010562847137451172, 5.173828125) (0.00010532029724121093, 5.17578125) (0.00010495050048828125, 5.177734375) (0.00010451234436035156, 5.1796875) (0.00010399995422363281, 5.181640625) (0.00010340821838378906, 5.18359375) (0.00010273298645019531, 5.185546875) (0.00010197103118896484, 5.1875) (0.00010112001037597656, 5.189453125) (0.00010017851257324218, 5.19140625) (9.914613342285156e-05, 5.193359375) (9.802339172363281e-05, 5.1953125) (9.681180572509765e-05, 5.197265625) (9.551382446289062e-05, 5.19921875) (9.413262939453124e-05, 5.201171875) (9.267202758789063e-05, 5.203125) (9.113626861572266e-05, 5.205078125) (8.953006744384766e-05, 5.20703125) (8.785844421386719e-05, 5.208984375) (8.612664031982422e-05, 5.2109375) (8.434008789062499e-05, 5.212890625) (8.250436401367187e-05, 5.21484375) (8.062525939941405e-05, 5.216796875) (7.87089614868164e-05, 5.21875) (7.676197052001953e-05, 5.220703125) (7.479114532470703e-05, 5.22265625) (7.280369567871093e-05, 5.224609375) (7.080683898925781e-05, 5.2265625) (6.880795288085938e-05, 5.228515625) (6.681468200683594e-05, 5.23046875) (6.483448028564453e-05, 5.232421875) (6.287432861328125e-05, 5.234375) (6.094121932983398e-05, 5.236328125) (5.9040973663330074e-05, 5.23828125) (5.717884063720703e-05, 5.240234375) (5.536212539672851e-05, 5.2421875) (5.3597629547119136e-05, 5.244140625) (5.189065933227539e-05, 5.24609375) (5.0246845245361326e-05, 5.248046875) (4.8669635772705076e-05, 5.25) (4.7160106658935545e-05, 5.251953125) (4.5724853515624996e-05, 5.25390625) (4.4370330810546874e-05, 5.255859375) (4.309058380126953e-05, 5.2578125) (4.188090133666992e-05, 5.259765625) (4.0737228393554686e-05, 5.26171875) (3.965155410766601e-05, 5.263671875) (3.863027191162109e-05, 5.265625) (3.768557739257812e-05, 5.267578125) (3.6805324554443356e-05, 5.26953125) (3.597635650634765e-05, 5.271484375) (3.522283935546875e-05, 5.2734375) (3.456204223632812e-05, 5.275390625) (3.4006580352783204e-05, 5.27734375) (3.3577491760253904e-05, 5.279296875) (3.325101852416992e-05, 5.28125) (3.298281097412109e-05, 5.283203125) (3.2790775299072266e-05, 5.28515625) (3.271042633056641e-05, 5.287109375) (3.2630844116210935e-05, 5.2890625) (3.242178726196289e-05, 5.291015625) (3.215231323242187e-05, 5.29296875) (3.180929946899414e-05, 5.294921875) (3.1363185882568355e-05, 5.296875) (3.107648849487304e-05, 5.298828125) (3.021854782104492e-05, 5.30078125) (2.8078317642211912e-05, 5.302734375) (2.5656219482421874e-05, 5.3046875) (2.325118637084961e-05, 5.306640625) (2.270657730102539e-05, 5.30859375) (2.6230331420898437e-05, 5.310546875) (3.1366241455078124e-05, 5.3125) (3.6475723266601564e-05, 5.314453125) (3.912197113037109e-05, 5.31640625) (3.5959888458251955e-05, 5.318359375) (2.9940599441528317e-05, 5.3203125) (2.3565608978271482e-05, 5.322265625) (1.8548492431640623e-05, 5.32421875) (1.772335433959961e-05, 5.326171875) (1.9060504913330076e-05, 5.328125) (2.050331115722656e-05, 5.330078125) (2.1594108581542968e-05, 5.33203125) (2.1079837799072264e-05, 5.333984375) (1.9687990188598633e-05, 5.3359375) (1.8354522705078125e-05, 5.337890625) (1.6902626037597656e-05, 5.33984375) (1.545355987548828e-05, 5.341796875) (1.3947205543518065e-05, 5.34375) (1.2197085380554198e-05, 5.345703125) (1.0330751419067383e-05, 5.34765625) (8.451574325561522e-06, 5.349609375) (6.5312762260437005e-06, 5.3515625) (4.56768798828125e-06, 5.353515625) (2.5780277252197265e-06, 5.35546875) (5.654715895652771e-07, 5.357421875) (-1.4709140062332152e-06, 5.359375) (-3.528173446655273e-06, 5.361328125) (-5.617322921752929e-06, 5.36328125) (-7.752362251281738e-06, 5.365234375) (-9.916889190673828e-06, 5.3671875) (-1.2094482421875e-05, 5.369140625) (-1.4280506134033202e-05, 5.37109375) (-1.6466081619262694e-05, 5.373046875) (-1.864333915710449e-05, 5.375) (-2.080584716796875e-05, 5.376953125) (-2.2943031311035155e-05, 5.37890625) (-2.504438781738281e-05, 5.380859375) (-2.7103694915771483e-05, 5.3828125) (-2.9114574432373046e-05, 5.384765625) (-3.106973457336426e-05, 5.38671875) (-3.2962577819824215e-05, 5.388671875) (-3.478608703613281e-05, 5.390625) (-3.653347015380859e-05, 5.392578125) (-3.819877243041992e-05, 5.39453125) (-3.9776283264160155e-05, 5.396484375) (-4.1260555267333986e-05, 5.3984375) (-4.264656448364257e-05, 5.400390625) (-4.3929664611816406e-05, 5.40234375) (-4.510576248168945e-05, 5.404296875) (-4.617129516601562e-05, 5.40625) (-4.712318801879883e-05, 5.408203125) (-4.795883941650391e-05, 5.41015625) (-4.8676116943359374e-05, 5.412109375) (-4.9273445129394526e-05, 5.4140625) (-4.9749862670898435e-05, 5.416015625) (-5.010506057739258e-05, 5.41796875) (-5.0339298248291014e-05, 5.419921875) (-5.0453369140624995e-05, 5.421875) (-5.044863128662109e-05, 5.423828125) (-5.0327079772949213e-05, 5.42578125) (-5.009142303466796e-05, 5.427734375) (-4.974504089355469e-05, 5.4296875) (-4.929178237915039e-05, 5.431640625) (-4.873588180541992e-05, 5.43359375) (-4.8081901550292966e-05, 5.435546875) (-4.733481216430664e-05, 5.4375) (-4.6500072479248045e-05, 5.439453125) (-4.5583488464355465e-05, 5.44140625) (-4.4591064453125e-05, 5.443359375) (-4.3529052734374995e-05, 5.4453125) (-4.2403900146484376e-05, 5.447265625) (-4.122240447998047e-05, 5.44921875) (-3.999182891845703e-05, 5.451171875) (-3.871965026855469e-05, 5.453125) (-3.741340637207031e-05, 5.455078125) (-3.60806770324707e-05, 5.45703125) (-3.472909545898437e-05, 5.458984375) (-3.336635208129883e-05, 5.4609375) (-3.200026702880859e-05, 5.462890625) (-3.063867950439453e-05, 5.46484375) (-2.928919219970703e-05, 5.466796875) (-2.795920372009277e-05, 5.46875) (-2.6655923843383787e-05, 5.470703125) (-2.538634490966797e-05, 5.47265625) (-2.4157276153564452e-05, 5.474609375) (-2.2975185394287107e-05, 5.4765625) (-2.1846126556396484e-05, 5.478515625) (-2.077573013305664e-05, 5.48046875) (-1.976921463012695e-05, 5.482421875) (-1.8831464767456054e-05, 5.484375) (-1.7966876983642577e-05, 5.486328125) (-1.7179216384887696e-05, 5.48828125) (-1.647146415710449e-05, 5.490234375) (-1.584603691101074e-05, 5.4921875) (-1.5304949760437012e-05, 5.494140625) (-1.4849788665771483e-05, 5.49609375) (-1.4481403350830078e-05, 5.498046875) (-1.419951820373535e-05, 5.5) (-1.4003296852111815e-05, 5.501953125) (-1.3891712188720703e-05, 5.50390625) (-1.3863743782043457e-05, 5.505859375) (-1.391810131072998e-05, 5.5078125) (-1.4051549911499022e-05, 5.509765625) (-1.425855255126953e-05, 5.51171875) (-1.4532432556152344e-05, 5.513671875) (-1.4866464614868163e-05, 5.515625) (-1.525435733795166e-05, 5.517578125) (-1.5689388275146482e-05, 5.51953125) (-1.6163093566894532e-05, 5.521484375) (-1.666532516479492e-05, 5.5234375) (-1.718576622009277e-05, 5.525390625) (-1.7715702056884764e-05, 5.52734375) (-1.8249441146850584e-05, 5.529296875) (-1.8782760620117188e-05, 5.53125) (-1.930875015258789e-05, 5.533203125) (-1.9818080902099607e-05, 5.53515625) (-2.0299591064453126e-05, 5.537109375) (-2.074080467224121e-05, 5.5390625) (-2.1134361267089843e-05, 5.541015625) (-2.14763126373291e-05, 5.54296875) (-2.175864791870117e-05, 5.544921875) (-2.1969554901123046e-05, 5.546875) (-2.2094326019287107e-05, 5.548828125) (-2.211918067932129e-05, 5.55078125) (-2.20369758605957e-05, 5.552734375) (-2.18445987701416e-05, 5.5546875) (-2.1536014556884766e-05, 5.556640625) (-2.109728240966797e-05, 5.55859375) (-2.050555419921875e-05, 5.560546875) (-1.9737180709838865e-05, 5.5625) (-1.8778072357177733e-05, 5.564453125) (-1.761903381347656e-05, 5.56640625) (-1.6257167816162107e-05, 5.568359375) (-1.4698438644409178e-05, 5.5703125) (-1.2935929298400878e-05, 5.572265625) (-1.0962324142456055e-05, 5.57421875) (-8.784605026245117e-06, 5.576171875) (-6.407840251922607e-06, 5.578125) (-3.862629652023315e-06, 5.580078125) (-1.1999151706695555e-06, 5.58203125) (1.5533745288848877e-06, 5.583984375) (4.382335662841797e-06, 5.5859375) (7.276868343353271e-06, 5.587890625) (1.0242594718933105e-05, 5.58984375) (1.3231628417968749e-05, 5.591796875) (1.612706756591797e-05, 5.59375) (1.891847801208496e-05, 5.595703125) (2.17015323638916e-05, 5.59765625) (2.458498764038086e-05, 5.599609375) (2.7738828659057616e-05, 5.6015625) (3.11987190246582e-05, 5.603515625) (3.4794281005859375e-05, 5.60546875) (3.8490928649902344e-05, 5.607421875) (4.245388412475586e-05, 5.609375) (4.667750930786133e-05, 5.611328125) (5.094598770141601e-05, 5.61328125) (5.494049072265625e-05, 5.615234375) (5.8102195739746094e-05, 5.6171875) (6.0177947998046874e-05, 5.619140625) (6.154970550537109e-05, 5.62109375) (6.256710052490234e-05, 5.623046875) (6.333794403076172e-05, 5.625) (6.419024658203125e-05, 5.626953125) (6.569970703125e-05, 5.62890625) (6.854212951660155e-05, 5.630859375) (7.379533386230469e-05, 5.6328125) (8.220680236816406e-05, 5.634765625) (9.347265625e-05, 5.63671875) (0.0001069838409423828, 5.638671875) (0.0001221437225341797, 5.640625) (0.00013796655273437498, 5.642578125) (0.00015320281982421875, 5.64453125) (0.00016664038085937498, 5.646484375) (0.0001766704406738281, 5.6484375) (0.0001818154754638672, 5.650390625) (0.00018163519287109375, 5.65234375) (0.00017621360778808593, 5.654296875) (0.00016591455078125, 5.65625) (0.00015168296813964844, 5.658203125) (0.00013474552917480467, 5.66015625) (0.0001161380615234375, 5.662109375) (9.709893798828124e-05, 5.6640625) (7.895248413085937e-05, 5.666015625) (6.242755126953125e-05, 5.66796875) (4.79134521484375e-05, 5.669921875) (3.556107330322266e-05, 5.671875) (2.502442932128906e-05, 5.673828125) (1.5771416664123534e-05, 5.67578125) (7.5505051612854e-06, 5.677734375) (1.598072052001953e-07, 5.6796875) (-6.659669876098632e-06, 5.681640625) (-1.2937393188476562e-05, 5.68359375) (-1.86495246887207e-05, 5.685546875) (-2.3754379272460938e-05, 5.6875) (-2.796856689453125e-05, 5.689453125) (-3.095109176635742e-05, 5.69140625) (-3.2580570220947266e-05, 5.693359375) (-3.285798645019531e-05, 5.6953125) (-3.186166000366211e-05, 5.697265625) (-2.980051612854004e-05, 5.69921875) (-2.6855398178100585e-05, 5.701171875) (-2.316706657409668e-05, 5.703125) (-1.8964529037475584e-05, 5.705078125) (-1.4499801635742187e-05, 5.70703125) (-9.975872039794921e-06, 5.708984375) (-5.581079959869384e-06, 5.7109375) (-1.4358613491058348e-06, 5.712890625) (2.41117525100708e-06, 5.71484375) (5.8978319168090815e-06, 5.716796875) (8.96181297302246e-06, 5.71875) (1.1559877395629882e-05, 5.720703125) (1.3655818939208983e-05, 5.72265625) (1.5253573417663573e-05, 5.724609375) (1.6402044296264647e-05, 5.7265625) (1.715618324279785e-05, 5.728515625) (1.757628059387207e-05, 5.73046875) (1.773106575012207e-05, 5.732421875) (1.7682823181152344e-05, 5.734375) (1.7512277603149413e-05, 5.736328125) (1.73162784576416e-05, 5.73828125) (1.717062759399414e-05, 5.740234375) (1.7136777877807618e-05, 5.7421875) (1.7254966735839843e-05, 5.744140625) (1.7539608001708983e-05, 5.74609375) (1.8005706787109374e-05, 5.748046875) (1.8668001174926758e-05, 5.75) (1.952861213684082e-05, 5.751953125) (2.0580516815185546e-05, 5.75390625) (2.1806371688842774e-05, 5.755859375) (2.3175167083740233e-05, 5.7578125) (2.4657848358154296e-05, 5.759765625) (2.622941780090332e-05, 5.76171875) (2.7857645034790037e-05, 5.763671875) (2.9508968353271483e-05, 5.765625) (3.114360427856445e-05, 5.767578125) (3.271526336669922e-05, 5.76953125) (3.4190059661865234e-05, 5.771484375) (3.5544906616210935e-05, 5.7734375) (3.676242828369141e-05, 5.775390625) (3.783296585083007e-05, 5.77734375) (3.874799346923828e-05, 5.779296875) (3.949884033203125e-05, 5.78125) (4.0084098815917964e-05, 5.783203125) (4.0508113861083985e-05, 5.78515625) (4.0773841857910156e-05, 5.787109375) (4.088479614257812e-05, 5.7890625) (4.084280395507812e-05, 5.791015625) (4.0646934509277345e-05, 5.79296875) (4.0300506591796876e-05, 5.794921875) (3.980970001220703e-05, 5.796875) (3.918134307861328e-05, 5.798828125) (3.842370223999023e-05, 5.80078125) (3.7543258666992186e-05, 5.802734375) (3.6544376373291014e-05, 5.8046875) (3.543233871459961e-05, 5.806640625) (3.4213027954101564e-05, 5.80859375) (3.289186096191406e-05, 5.810546875) (3.14745979309082e-05, 5.8125) (2.9966272354125974e-05, 5.814453125) (2.8371221542358396e-05, 5.81640625) (2.669616889953613e-05, 5.818359375) (2.494979476928711e-05, 5.8203125) (2.3141502380371093e-05, 5.822265625) (2.1281570434570312e-05, 5.82421875) (1.9380186080932615e-05, 5.826171875) (1.744732093811035e-05, 5.828125) (1.549374771118164e-05, 5.830078125) (1.3530792236328124e-05, 5.83203125) (1.1569196701049804e-05, 5.833984375) (9.619301795959472e-06, 5.8359375) (7.691215515136719e-06, 5.837890625) (5.7946872711181635e-06, 5.83984375) (3.939848661422729e-06, 5.841796875) (2.1370887756347655e-06, 5.84375) (3.961987495422363e-07, 5.845703125) (-1.2734781503677367e-06, 5.84765625) (-2.8625841140747067e-06, 5.849609375) (-4.362298965454101e-06, 5.8515625) (-5.7643947601318355e-06, 5.853515625) (-7.0606145858764645e-06, 5.85546875) (-8.244507789611816e-06, 5.857421875) (-9.31072998046875e-06, 5.859375) (-1.0251981735229491e-05, 5.861328125) (-1.106184673309326e-05, 5.86328125) (-1.1735708236694335e-05, 5.865234375) (-1.226876640319824e-05, 5.8671875) (-1.2659080505371094e-05, 5.869140625) (-1.290794563293457e-05, 5.87109375) (-1.3011119842529297e-05, 5.873046875) (-1.29649658203125e-05, 5.875) (-1.2779567718505859e-05, 5.876953125) (-1.2463872909545898e-05, 5.87890625) (-1.202672004699707e-05, 5.880859375) (-1.1482264518737793e-05, 5.8828125) (-1.0829673767089844e-05, 5.884765625) (-1.0062101364135741e-05, 5.88671875) (-9.199594497680664e-06, 5.888671875) (-8.262738227844238e-06, 5.890625) (-7.232527732849121e-06, 5.892578125) (-6.100464344024658e-06, 5.89453125) (-4.8630619049072264e-06, 5.896484375) (-3.5067315101623533e-06, 5.8984375) (-2.0666570663452146e-06, 5.900390625) (-5.982210636138916e-07, 5.90234375) (9.117329716682434e-07, 5.904296875) (2.488666534423828e-06, 5.90625) (4.001072883605957e-06, 5.908203125) (5.309727191925048e-06, 5.91015625) (6.486863136291504e-06, 5.912109375) (7.515789985656738e-06, 5.9140625) (8.366323471069336e-06, 5.916015625) (9.304975509643554e-06, 5.91796875) (9.529650688171386e-06, 5.919921875) (8.28580379486084e-06, 5.921875) (6.651071548461914e-06, 5.923828125) (4.9129142761230465e-06, 5.92578125) (5.018477439880371e-06, 5.927734375) (9.30948829650879e-06, 5.9296875) (1.5129199028015137e-05, 5.931640625) (2.074607467651367e-05, 5.93359375) (2.359950065612793e-05, 5.935546875) (2.0089902877807617e-05, 5.9375) (1.3333276748657225e-05, 5.939453125) (6.120644569396973e-06, 5.94140625) (4.178788661956787e-07, 5.943359375) (-8.181076049804687e-07, 5.9453125) (2.627173662185669e-07, 5.947265625) (1.4877666234970092e-06, 5.94921875) (2.073514938354492e-06, 5.951171875) (1.4514110088348387e-06, 5.953125) (1.1486809253692626e-06, 5.955078125) (1.099451780319214e-06, 5.95703125) (8.198524713516235e-07, 5.958984375) (-1.5253095626831054e-06, 5.9609375) (-8.379152297973632e-06, 5.962890625) (-1.7293502807617186e-05, 5.96484375) (-2.6327249526977538e-05, 5.966796875) (-3.272259140014648e-05, 5.96875) (-3.288590621948242e-05, 5.970703125) (-2.996511650085449e-05, 5.97265625) (-2.667288017272949e-05, 5.974609375) (-2.484680938720703e-05, 5.9765625) (-2.7444509506225584e-05, 5.978515625) (-3.236044692993164e-05, 5.98046875) (-3.7642360687255856e-05, 5.982421875) (-4.285365676879883e-05, 5.984375) (-4.6564369201660153e-05, 5.986328125) (-4.956183624267578e-05, 5.98828125) (-5.25689468383789e-05, 5.990234375) (-5.5897987365722654e-05, 5.9921875) (-6.11545181274414e-05, 5.994140625) (-6.78782730102539e-05, 5.99609375) (-7.45156021118164e-05, 5.998046875) (-7.887853240966796e-05, 6.0) (-7.68166275024414e-05, 6.001953125) (-6.872700500488281e-05, 6.00390625) (-5.882049942016601e-05, 6.005859375) (-5.137660980224609e-05, 6.0078125) (-5.244424438476562e-05, 6.009765625) (-6.215848159790039e-05, 6.01171875) (-7.48417510986328e-05, 6.013671875) (-8.610702514648438e-05, 6.015625) (-9.1140869140625e-05, 6.017578125) (-8.931082153320312e-05, 6.01953125) (-8.488666534423828e-05, 6.021484375) (-8.04219512939453e-05, 6.0234375) (-7.773647308349609e-05, 6.025390625) (-7.730149078369141e-05, 6.02734375) (-7.737874603271484e-05, 6.029296875) (-7.723273468017578e-05, 6.03125) (-7.69212188720703e-05, 6.033203125) (-7.639703369140625e-05, 6.03515625) (-7.593316650390625e-05, 6.037109375) (-7.559130859375e-05, 6.0390625) (-7.514523315429687e-05, 6.041015625) (-7.453715515136719e-05, 6.04296875) (-7.38138427734375e-05, 6.044921875) (-7.297512054443359e-05, 6.046875) (-7.201727294921874e-05, 6.048828125) (-7.095555114746094e-05, 6.05078125) (-6.980567932128905e-05, 6.052734375) (-6.859502410888671e-05, 6.0546875) (-6.736869049072266e-05, 6.056640625) (-6.614232635498047e-05, 6.05859375) (-6.490126037597657e-05, 6.060546875) (-6.364345550537109e-05, 6.0625) (-6.237395858764648e-05, 6.064453125) (-6.109432601928711e-05, 6.06640625) (-5.98080825805664e-05, 6.068359375) (-5.851494598388671e-05, 6.0703125) (-5.720963668823242e-05, 6.072265625) (-5.589039611816406e-05, 6.07421875) (-5.45586929321289e-05, 6.076171875) (-5.3213989257812495e-05, 6.078125) (-5.185481262207031e-05, 6.080078125) (-5.047916030883789e-05, 6.08203125) (-4.908409118652343e-05, 6.083984375) (-4.7667026519775385e-05, 6.0859375) (-4.6225780487060546e-05, 6.087890625) (-4.475809478759765e-05, 6.08984375) (-4.3261600494384765e-05, 6.091796875) (-4.173401260375976e-05, 6.09375) (-4.017303466796875e-05, 6.095703125) (-3.8576393127441406e-05, 6.09765625) (-3.694221496582031e-05, 6.099609375) (-3.5268905639648434e-05, 6.1015625) (-3.355532836914062e-05, 6.103515625) (-3.180117034912109e-05, 6.10546875) (-3.0006822586059568e-05, 6.107421875) (-2.817321968078613e-05, 6.109375) (-2.6302429199218748e-05, 6.111328125) (-2.4397554397583007e-05, 6.11328125) (-2.2462326049804688e-05, 6.115234375) (-2.0501508712768554e-05, 6.1171875) (-1.852029037475586e-05, 6.119140625) (-1.652371406555176e-05, 6.12109375) (-1.4517189979553222e-05, 6.123046875) (-1.2506484985351562e-05, 6.125) (-1.0496932983398437e-05, 6.126953125) (-8.493691444396973e-06, 6.12890625) (-6.502333641052246e-06, 6.130859375) (-4.528546333312988e-06, 6.1328125) (-2.579071998596191e-06, 6.134765625) (-6.619457006454468e-07, 6.13671875) (1.2141435146331788e-06, 6.138671875) (3.0398797988891602e-06, 6.140625) (4.805273056030273e-06, 6.142578125) (6.499907970428467e-06, 6.14453125) (8.114124298095704e-06, 6.146484375) (9.639369964599609e-06, 6.1484375) (1.1068813323974609e-05, 6.150390625) (1.2397158622741698e-05, 6.15234375) (1.3620637893676757e-05, 6.154296875) (1.4736982345581054e-05, 6.15625) (1.5742736816406248e-05, 6.158203125) (1.6634273529052734e-05, 6.16015625) (1.740652275085449e-05, 6.162109375) (1.8052467346191405e-05, 6.1640625) (1.8567367553710937e-05, 6.166015625) (1.8948787689208983e-05, 6.16796875) (1.9197736740112303e-05, 6.169921875) (1.931875991821289e-05, 6.171875) (1.9323482513427733e-05, 6.173828125) (1.922997283935547e-05, 6.17578125) (1.9058570861816405e-05, 6.177734375) (1.883223342895508e-05, 6.1796875) (1.8569999694824217e-05, 6.181640625) (1.828651237487793e-05, 6.18359375) (1.7989797592163085e-05, 6.185546875) (1.768270683288574e-05, 6.1875) (1.736626625061035e-05, 6.189453125) (1.7035749435424802e-05, 6.19140625) (1.669473648071289e-05, 6.193359375) (1.6353076934814453e-05, 6.1953125) (1.601974105834961e-05, 6.197265625) (1.5709041595458985e-05, 6.19921875) (1.5431549072265626e-05, 6.201171875) (1.5191413879394531e-05, 6.203125) (1.4980093002319335e-05, 6.205078125) (1.4776640892028807e-05, 6.20703125) (1.4549308776855468e-05, 6.208984375) (1.4258983612060546e-05, 6.2109375) (1.3873442649841309e-05, 6.212890625) (1.3365382194519043e-05, 6.21484375) (1.2729470252990722e-05, 6.216796875) (1.1976045608520507e-05, 6.21875) (1.1126914978027343e-05, 6.220703125) (1.0224981307983398e-05, 6.22265625) (9.298024177551269e-06, 6.224609375) (8.374371528625488e-06, 6.2265625) (7.494295120239258e-06, 6.228515625) (6.6763749122619625e-06, 6.23046875) (5.923350811004639e-06, 6.232421875) (5.2296929359436036e-06, 6.234375) (4.6012797355651855e-06, 6.236328125) (4.086213111877441e-06, 6.23828125) (3.803176641464233e-06, 6.240234375) (3.890593528747558e-06, 6.2421875) (4.440460205078125e-06, 6.244140625) (5.541321754455566e-06, 6.24609375) (7.277462005615234e-06, 6.248046875) (9.768180847167969e-06, 6.25) (1.3149017333984375e-05, 6.251953125) (1.743463897705078e-05, 6.25390625) (2.2473922729492186e-05, 6.255859375) (2.797722244262695e-05, 6.2578125) (3.372128295898437e-05, 6.259765625) (3.9573078155517576e-05, 6.26171875) (4.535708999633789e-05, 6.263671875) (5.095663452148437e-05, 6.265625) (5.626921081542969e-05, 6.267578125) (6.124105834960937e-05, 6.26953125) (6.617249298095703e-05, 6.271484375) (7.093165588378906e-05, 6.2734375) (7.449711608886719e-05, 6.275390625) (7.639880371093749e-05, 6.27734375) (7.726636505126953e-05, 6.279296875) (8.021062469482421e-05, 6.28125) (9.007924652099608e-05, 6.283203125) (0.00010845185089111327, 6.28515625) (0.00013216978454589842, 6.287109375) (0.00015279434204101562, 6.2890625) (0.00016092257690429688, 6.291015625) (0.000154120361328125, 6.29296875) (0.00013593777465820313, 6.294921875) (0.00011406846618652343, 6.296875) (9.536180877685546e-05, 6.298828125) (7.856483459472656e-05, 6.30078125) (6.04271011352539e-05, 6.302734375) (4.106037902832031e-05, 6.3046875) (2.297641372680664e-05, 6.306640625) (1.4194474220275878e-05, 6.30859375) (2.0794382095336912e-05, 6.310546875) (3.7775375366210936e-05, 6.3125) (5.63871841430664e-05, 6.314453125) (6.683089447021484e-05, 6.31640625) (6.120699310302734e-05, 6.318359375) (4.3504081726074214e-05, 6.3203125) (2.26240234375e-05, 6.322265625) (5.217447280883789e-06, 6.32421875) (-2.733448266983032e-06, 6.326171875) (-2.0449528694152832e-06, 6.328125) (1.9691954851150514e-06, 6.330078125) (6.6305131912231445e-06, 6.33203125) (9.789236068725585e-06, 6.333984375) (1.0967364311218261e-05, 6.3359375) (1.1961233139038085e-05, 6.337890625) (1.3235095977783202e-05, 6.33984375) (1.4564992904663085e-05, 6.341796875) (1.5969091415405274e-05, 6.34375) (1.707015037536621e-05, 6.345703125) (1.772127532958984e-05, 6.34765625) (1.8147647857666013e-05, 6.349609375) (1.8416034698486327e-05, 6.3515625) (1.8476905822753906e-05, 6.353515625) (1.8352592468261717e-05, 6.35546875) (1.804475402832031e-05, 6.357421875) (1.7501535415649412e-05, 6.359375) (1.6702083587646482e-05, 6.361328125) 