(0.0001558370361328125, 0.0) (0.000195912353515625, 0.001953125) (0.00021514491271972655, 0.00390625) (0.0002095028381347656, 0.005859375) (0.00018651461791992186, 0.0078125) (0.00015951547241210937, 0.009765625) (0.00013896185302734375, 0.01171875) (0.00012918333435058593, 0.013671875) (0.00012750260925292967, 0.015625) (0.00012731639099121094, 0.017578125) (0.00012462205505371093, 0.01953125) (0.00011867314147949218, 0.021484375) (0.00011049794769287109, 0.0234375) (0.00010227403259277343, 0.025390625) (9.469036865234375e-05, 0.02734375) (8.703475189208984e-05, 0.029296875) (7.891548919677734e-05, 0.03125) (7.009725952148437e-05, 0.033203125) (6.052415084838867e-05, 0.03515625) (5.03675422668457e-05, 0.037109375) (3.968185806274414e-05, 0.0390625) (2.8446807861328125e-05, 0.041015625) (1.6859941482543943e-05, 0.04296875) (5.283723831176758e-06, 0.044921875) (-6.0765733718872065e-06, 0.046875) (-1.711962127685547e-05, 0.048828125) (-2.774916076660156e-05, 0.05078125) (-3.792136383056641e-05, 0.052734375) (-4.753736114501953e-05, 0.0546875) (-5.6449035644531246e-05, 0.056640625) (-6.460771179199218e-05, 0.05859375) (-7.202780151367187e-05, 0.060546875) (-7.871253967285156e-05, 0.0625) (-8.46759796142578e-05, 0.064453125) (-8.989962768554688e-05, 0.06640625) (-9.432860565185546e-05, 0.068359375) (-9.793135070800781e-05, 0.0703125) (-0.00010068237304687499, 0.072265625) (-0.00010256178283691406, 0.07421875) (-0.00010358168029785156, 0.076171875) (-0.00010376053619384765, 0.078125) (-0.00010313397216796874, 0.080078125) (-0.00010178684997558593, 0.08203125) (-9.981999969482421e-05, 0.083984375) (-9.734867095947265e-05, 0.0859375) (-9.450773620605468e-05, 0.087890625) (-9.141239929199218e-05, 0.08984375) (-8.816590118408202e-05, 0.091796875) (-8.486995697021484e-05, 0.09375) (-8.160940551757812e-05, 0.095703125) (-7.846447753906249e-05, 0.09765625) (-7.551803588867187e-05, 0.099609375) (-7.284700012207031e-05, 0.1015625) (-7.053005981445312e-05, 0.103515625) (-6.863935089111328e-05, 0.10546875) (-6.72231216430664e-05, 0.107421875) (-6.631692504882813e-05, 0.109375) (-6.593843841552734e-05, 0.111328125) (-6.60682144165039e-05, 0.11328125) (-6.666620635986328e-05, 0.115234375) (-6.767402648925781e-05, 0.1171875) (-6.90108642578125e-05, 0.119140625) (-7.059622192382812e-05, 0.12109375) (-7.235189056396484e-05, 0.123046875) (-7.419078826904297e-05, 0.125) (-7.602791595458984e-05, 0.126953125) (-7.779342651367187e-05, 0.12890625) (-7.942529296875e-05, 0.130859375) (-8.086680603027343e-05, 0.1328125) (-8.206535339355469e-05, 0.134765625) (-8.296961975097656e-05, 0.13671875) (-8.353791046142577e-05, 0.138671875) (-8.374152374267577e-05, 0.140625) (-8.356488037109375e-05, 0.142578125) (-8.300834655761719e-05, 0.14453125) (-8.20850830078125e-05, 0.146484375) (-8.081897735595703e-05, 0.1484375) (-7.924650573730469e-05, 0.150390625) (-7.741255187988281e-05, 0.15234375) (-7.53652572631836e-05, 0.154296875) (-7.316119384765624e-05, 0.15625) (-7.086100006103516e-05, 0.158203125) (-6.851153564453125e-05, 0.16015625) (-6.614945983886719e-05, 0.162109375) (-6.380685424804687e-05, 0.1640625) (-6.150975036621094e-05, 0.166015625) (-5.928324127197265e-05, 0.16796875) (-5.7150138854980465e-05, 0.169921875) (-5.5123962402343745e-05, 0.171875) (-5.3210105895996094e-05, 0.173828125) (-5.141246795654296e-05, 0.17578125) (-4.973210525512695e-05, 0.177734375) (-4.81671257019043e-05, 0.1796875) (-4.6712673187255854e-05, 0.181640625) (-4.535687637329101e-05, 0.18359375) (-4.4083847045898433e-05, 0.185546875) (-4.287413787841797e-05, 0.1875) (-4.170539093017578e-05, 0.189453125) (-4.056116104125976e-05, 0.19140625) (-3.9430412292480464e-05, 0.193359375) (-3.830405426025391e-05, 0.1953125) (-3.7176185607910156e-05, 0.197265625) (-3.60420913696289e-05, 0.19921875) (-3.4897407531738277e-05, 0.201171875) (-3.374172210693359e-05, 0.203125) (-3.2577941894531245e-05, 0.205078125) (-3.1406600952148433e-05, 0.20703125) (-3.0226715087890623e-05, 0.208984375) (-2.9036748886108397e-05, 0.2109375) (-2.783419036865234e-05, 0.212890625) (-2.6618736267089842e-05, 0.21484375) (-2.53918399810791e-05, 0.216796875) (-2.4155052185058593e-05, 0.21875) (-2.2910316467285157e-05, 0.220703125) (-2.1658897399902342e-05, 0.22265625) (-2.040117645263672e-05, 0.224609375) (-1.9137485504150388e-05, 0.2265625) (-1.786786651611328e-05, 0.228515625) (-1.659173583984375e-05, 0.23046875) (-1.5308295249938965e-05, 0.232421875) (-1.4016168594360351e-05, 0.234375) (-1.2713460922241211e-05, 0.236328125) (-1.1399518966674803e-05, 0.23828125) (-1.0074951171875e-05, 0.240234375) (-8.741090774536132e-06, 0.2421875) (-7.400187969207763e-06, 0.244140625) (-6.054783344268799e-06, 0.24609375) (-4.7074875831604e-06, 0.248046875) (-3.3615391254425047e-06, 0.25) (-2.0206894874572755e-06, 0.251953125) (-6.884725093841552e-07, 0.25390625) (6.317976117134094e-07, 0.255859375) (1.9369871616363523e-06, 0.2578125) (3.224231719970703e-06, 0.259765625) (4.490471839904785e-06, 0.26171875) (5.732414245605469e-06, 0.263671875) (6.94681978225708e-06, 0.265625) (8.130482673645019e-06, 0.267578125) (9.28022289276123e-06, 0.26953125) (1.0393007278442382e-05, 0.271484375) (1.1465889930725098e-05, 0.2734375) (1.2496047973632811e-05, 0.275390625) (1.3481029510498046e-05, 0.27734375) (1.4418767929077148e-05, 0.279296875) (1.5307567596435545e-05, 0.28125) (1.614617347717285e-05, 0.283203125) (1.693356704711914e-05, 0.28515625) (1.7668888092041016e-05, 0.287109375) (1.835153579711914e-05, 0.2890625) (1.8981197357177733e-05, 0.291015625) (1.955784797668457e-05, 0.29296875) (2.008184242248535e-05, 0.294921875) (2.05538330078125e-05, 0.296875) (2.0974737167358398e-05, 0.298828125) (2.1346054077148438e-05, 0.30078125) (2.1669963836669922e-05, 0.302734375) (2.194926071166992e-05, 0.3046875) (2.2187313079833983e-05, 0.306640625) (2.2387884140014647e-05, 0.30859375) (2.2555051803588867e-05, 0.310546875) (2.2693277359008788e-05, 0.3125) (2.2807374954223632e-05, 0.314453125) (2.2902320861816404e-05, 0.31640625) (2.2983051300048827e-05, 0.318359375) (2.305438232421875e-05, 0.3203125) (2.3120990753173826e-05, 0.322265625) (2.318753433227539e-05, 0.32421875) (2.325868606567383e-05, 0.326171875) (2.3339067459106445e-05, 0.328125) (2.343318557739258e-05, 0.330078125) (2.354524803161621e-05, 0.33203125) (2.3679105758666993e-05, 0.333984375) (2.383833312988281e-05, 0.3359375) (2.4026237487792967e-05, 0.337890625) (2.424570083618164e-05, 0.33984375) (2.4499134063720703e-05, 0.341796875) (2.478833770751953e-05, 0.34375) (2.511448097229004e-05, 0.345703125) (2.547846984863281e-05, 0.34765625) (2.5881162643432615e-05, 0.349609375) (2.6323143005371093e-05, 0.3515625) (2.6804615020751953e-05, 0.353515625) (2.732560157775879e-05, 0.35546875) (2.7885917663574217e-05, 0.357421875) (2.8485404968261717e-05, 0.359375) (2.9124095916748046e-05, 0.361328125) (2.9801431655883788e-05, 0.36328125) (3.0515846252441405e-05, 0.365234375) (3.1265153884887695e-05, 0.3671875) (3.204674530029297e-05, 0.369140625) (3.285748672485352e-05, 0.37109375) (3.3693763732910157e-05, 0.373046875) (3.455104827880859e-05, 0.375) (3.5423648834228515e-05, 0.376953125) (3.6305908203124995e-05, 0.37890625) (3.7192989349365235e-05, 0.380859375) (3.8080871582031247e-05, 0.3828125) (3.8966217041015625e-05, 0.384765625) (3.984568405151367e-05, 0.38671875) (4.071600341796875e-05, 0.388671875) (4.1574394226074215e-05, 0.390625) (4.241886901855469e-05, 0.392578125) (4.324813842773437e-05, 0.39453125) (4.4060829162597653e-05, 0.396484375) (4.485408020019531e-05, 0.3984375) (4.5623451232910154e-05, 0.400390625) (4.636579132080078e-05, 0.40234375) (4.7079322814941405e-05, 0.404296875) (4.7764862060546874e-05, 0.40625) (4.842599487304687e-05, 0.408203125) (4.906338500976562e-05, 0.41015625) (4.96743278503418e-05, 0.412109375) (5.025522994995117e-05, 0.4140625) (5.080219650268554e-05, 0.416015625) (5.131031799316406e-05, 0.41796875) (5.177212905883789e-05, 0.419921875) (5.2174343109130855e-05, 0.421875) (5.249676895141601e-05, 0.423828125) (5.272095489501953e-05, 0.42578125) (5.283528900146484e-05, 0.427734375) (5.283650207519531e-05, 0.4296875) (5.272834777832031e-05, 0.431640625) (5.251277923583984e-05, 0.43359375) (5.2190990447998045e-05, 0.435546875) (5.176341247558593e-05, 0.4375) (5.123114776611328e-05, 0.439453125) (5.0604598999023436e-05, 0.44140625) (4.9896820068359375e-05, 0.443359375) (4.9116981506347655e-05, 0.4453125) (4.827072143554687e-05, 0.447265625) (4.7366149902343746e-05, 0.44921875) (4.641978073120117e-05, 0.451171875) (4.5462474822998045e-05, 0.453125) (4.453923797607422e-05, 0.455078125) (4.368649673461914e-05, 0.45703125) (4.2922550201416017e-05, 0.458984375) (4.2248641967773434e-05, 0.4609375) (4.165290832519531e-05, 0.462890625) (4.112348937988281e-05, 0.46484375) (4.064327239990234e-05, 0.466796875) (4.018768692016601e-05, 0.46875) (3.97208251953125e-05, 0.470703125) (3.919194030761719e-05, 0.47265625) (3.855612182617187e-05, 0.474609375) (3.778145980834961e-05, 0.4765625) (3.6845638275146485e-05, 0.478515625) (3.57232437133789e-05, 0.48046875) (3.437350463867187e-05, 0.482421875) (3.273796463012695e-05, 0.484375) (3.0745468139648436e-05, 0.486328125) (2.8341518402099607e-05, 0.48828125) (2.5498512268066405e-05, 0.490234375) (2.2211286544799805e-05, 0.4921875) (1.848982810974121e-05, 0.494140625) (1.4352004051208495e-05, 0.49609375) (9.835675239562987e-06, 0.498046875) (4.996878147125244e-06, 0.5) (-8.396673202514648e-08, 0.501953125) (-5.309819221496582e-06, 0.50390625) (-1.0601487159729004e-05, 0.505859375) (-1.589505386352539e-05, 0.5078125) (-2.11368408203125e-05, 0.509765625) (-2.626988983154297e-05, 0.51171875) (-3.121513366699219e-05, 0.513671875) (-3.588098526000976e-05, 0.515625) (-4.017382431030273e-05, 0.517578125) (-4.4017280578613276e-05, 0.51953125) (-4.736648559570312e-05, 0.521484375) (-5.02029800415039e-05, 0.5234375) (-5.2517673492431636e-05, 0.525390625) (-5.432229995727539e-05, 0.52734375) (-5.5661247253417963e-05, 0.529296875) (-5.659127426147461e-05, 0.53125) (-5.7210258483886716e-05, 0.533203125) (-5.7641551971435544e-05, 0.53515625) (-5.7982658386230464e-05, 0.537109375) (-5.8332313537597655e-05, 0.5390625) (-5.87801284790039e-05, 0.541015625) (-5.9396549224853516e-05, 0.54296875) (-6.030036163330078e-05, 0.544921875) (-6.164408493041992e-05, 0.546875) (-6.352061462402343e-05, 0.548828125) (-6.59578857421875e-05, 0.55078125) (-6.888377380371094e-05, 0.552734375) (-7.210228729248046e-05, 0.5546875) (-7.543358612060547e-05, 0.556640625) (-7.874800109863281e-05, 0.55859375) (-8.183396911621093e-05, 0.560546875) (-8.441668701171874e-05, 0.5625) (-8.630152130126953e-05, 0.564453125) (-8.738114929199219e-05, 0.56640625) (-8.775357055664061e-05, 0.568359375) (-8.777139282226563e-05, 0.5703125) (-8.775318908691405e-05, 0.572265625) (-8.782315826416015e-05, 0.57421875) (-8.80483169555664e-05, 0.576171875) (-8.850282287597656e-05, 0.578125) (-8.903695678710937e-05, 0.580078125) (-8.936856079101562e-05, 0.58203125) (-8.907991790771484e-05, 0.583984375) (-8.735845184326171e-05, 0.5859375) (-8.331648254394531e-05, 0.587890625) (-7.629936218261719e-05, 0.58984375) (-6.566407012939453e-05, 0.591796875) (-5.073975372314453e-05, 0.59375) (-3.125564575195312e-05, 0.595703125) (-6.914761543273926e-06, 0.59765625) (2.2761886596679686e-05, 0.599609375) (5.7833435058593745e-05, 0.6015625) (9.831739807128905e-05, 0.603515625) (0.00014346038818359373, 0.60546875) (0.0001911839599609375, 0.607421875) (0.00023943679809570312, 0.609375) (0.0002862715454101562, 0.611328125) (0.00033178253173828126, 0.61328125) (0.0003781939697265625, 0.615234375) (0.0004250162658691406, 0.6171875) (0.00046936145019531246, 0.619140625) (0.0005032335815429687, 0.62109375) (0.0005142528076171875, 0.623046875) (0.0004964166259765624, 0.625) (0.00044878814697265625, 0.626953125) (0.00037693905639648434, 0.62890625) (0.00029216561889648435, 0.630859375) (0.0001993931884765625, 0.6328125) (0.00010183544921875, 0.634765625) (2.514167785644531e-06, 0.63671875) (-9.513849639892577e-05, 0.638671875) (-0.00018023141479492187, 0.640625) (-0.0002440266418457031, 0.642578125) (-0.00028308471679687496, 0.64453125) (-0.00029931417846679686, 0.646484375) (-0.000302483154296875, 0.6484375) (-0.00029981207275390625, 0.650390625) (-0.00029434445190429685, 0.65234375) (-0.00028684808349609375, 0.654296875) (-0.0002744774169921875, 0.65625) (-0.000257048583984375, 0.658203125) (-0.00023722735595703125, 0.66015625) (-0.0002174711456298828, 0.662109375) (-0.0002008544006347656, 0.6640625) (-0.0001890789794921875, 0.666015625) (-0.00018187725830078123, 0.66796875) (-0.00017865434265136717, 0.669921875) (-0.00017849978637695312, 0.671875) (-0.00018009552001953125, 0.673828125) (-0.0001822286682128906, 0.67578125) (-0.000183873291015625, 0.677734375) (-0.00018391012573242186, 0.6796875) (-0.00018153134155273436, 0.681640625) (-0.00017654037475585936, 0.68359375) (-0.00016898236083984374, 0.685546875) (-0.00015913702392578126, 0.6875) (-0.00014764358520507812, 0.689453125) (-0.00013519052124023436, 0.69140625) (-0.00012248179626464842, 0.693359375) (-0.00011037864685058593, 0.6953125) (-9.950654602050781e-05, 0.697265625) (-9.014759826660156e-05, 0.69921875) (-8.24583511352539e-05, 0.701171875) (-7.64120101928711e-05, 0.703125) (-7.18507308959961e-05, 0.705078125) (-6.862430572509765e-05, 0.70703125) (-6.649635314941406e-05, 0.708984375) (-6.512055969238281e-05, 0.7109375) (-6.42440948486328e-05, 0.712890625) (-6.371491241455078e-05, 0.71484375) (-6.342754745483398e-05, 0.716796875) (-6.336366271972656e-05, 0.71875) (-6.350535202026367e-05, 0.720703125) (-6.37843017578125e-05, 0.72265625) (-6.414034271240234e-05, 0.724609375) (-6.453407287597656e-05, 0.7265625) (-6.491539764404296e-05, 0.728515625) (-6.523159790039063e-05, 0.73046875) (-6.542793273925782e-05, 0.732421875) (-6.542518615722656e-05, 0.734375) (-6.515225219726562e-05, 0.736328125) (-6.457942962646484e-05, 0.73828125) (-6.3706298828125e-05, 0.740234375) (-6.255493545532226e-05, 0.7421875) (-6.115894699096679e-05, 0.744140625) (-5.9544342041015626e-05, 0.74609375) (-5.773123550415039e-05, 0.748046875) (-5.5743339538574216e-05, 0.75) (-5.360871887207031e-05, 0.751953125) (-5.1361114501953124e-05, 0.75390625) (-4.9040977478027344e-05, 0.755859375) (-4.6681854248046875e-05, 0.7578125) (-4.43104133605957e-05, 0.759765625) (-4.195917510986328e-05, 0.76171875) (-3.9662425994873044e-05, 0.763671875) (-3.746245574951172e-05, 0.765625) (-3.540712738037109e-05, 0.767578125) (-3.352257919311523e-05, 0.76953125) (-3.1813720703124995e-05, 0.771484375) (-3.0275926589965817e-05, 0.7734375) (-2.8896036148071287e-05, 0.775390625) (-2.766077423095703e-05, 0.77734375) (-2.655900192260742e-05, 0.779296875) (-2.5571714401245117e-05, 0.78125) (-2.4672508239746092e-05, 0.783203125) (-2.38365478515625e-05, 0.78515625) (-2.3039173126220703e-05, 0.787109375) (-2.2258930206298828e-05, 0.7890625) (-2.1478309631347654e-05, 0.791015625) (-2.067378234863281e-05, 0.79296875) (-1.9817787170410154e-05, 0.794921875) (-1.8880022048950196e-05, 0.796875) (-1.782749366760254e-05, 0.798828125) (-1.6635646820068358e-05, 0.80078125) (-1.5288569450378416e-05, 0.802734375) (-1.3772994995117187e-05, 0.8046875) (-1.207925796508789e-05, 0.806640625) (-1.0200204849243163e-05, 0.80859375) (-8.129880905151366e-06, 0.810546875) (-5.867721080780029e-06, 0.8125) (-3.418032646179199e-06, 0.814453125) (-7.832081913948059e-07, 0.81640625) (2.035579204559326e-06, 0.818359375) (5.0371375083923335e-06, 0.8203125) (8.220890045166015e-06, 0.822265625) (1.1583110809326171e-05, 0.82421875) (1.5117134094238281e-05, 0.826171875) (1.881547164916992e-05, 0.828125) (2.2669422149658203e-05, 0.830078125) (2.666999626159668e-05, 0.83203125) (3.0808174133300776e-05, 0.833984375) (3.507389450073242e-05, 0.8359375) (3.94562873840332e-05, 0.837890625) (4.394454193115234e-05, 0.83984375) (4.8527626037597655e-05, 0.841796875) (5.3194618225097654e-05, 0.84375) (5.7934791564941406e-05, 0.845703125) (6.273602294921874e-05, 0.84765625) (6.758496093749999e-05, 0.849609375) (7.24677734375e-05, 0.8515625) (7.737001037597655e-05, 0.853515625) (8.22770538330078e-05, 0.85546875) (8.717436981201172e-05, 0.857421875) (9.204698944091797e-05, 0.859375) (9.68797607421875e-05, 0.861328125) (0.00010165802001953125, 0.86328125) (0.00010636763763427733, 0.865234375) (0.00011099485778808594, 0.8671875) (0.0001155264663696289, 0.869140625) (0.00011994960021972655, 0.87109375) (0.00012425177001953124, 0.873046875) (0.0001284212646484375, 0.875) (0.000132447021484375, 0.876953125) (0.00013631857299804687, 0.87890625) (0.00014002606201171875, 0.880859375) (0.00014356033325195312, 0.8828125) (0.00014691302490234373, 0.884765625) (0.00015007655334472656, 0.88671875) (0.00015304428100585936, 0.888671875) (0.00015581028747558594, 0.890625) (0.0001583695068359375, 0.892578125) (0.0001607176971435547, 0.89453125) (0.00016285157775878904, 0.896484375) (0.00016476876831054686, 0.8984375) (0.00016646783447265623, 0.900390625) (0.00016794808959960937, 0.90234375) (0.0001692097930908203, 0.904296875) (0.00017025402832031249, 0.90625) (0.00017108270263671875, 0.908203125) (0.00017169862365722655, 0.91015625) (0.00017210546875, 0.912109375) (0.00017230764770507812, 0.9140625) (0.00017231033325195311, 0.916015625) (0.00017211944580078123, 0.91796875) (0.00017174174499511719, 0.919921875) (0.00017118463134765624, 0.921875) (0.000170456298828125, 0.923828125) (0.00016956541442871093, 0.92578125) (0.0001685211944580078, 0.927734375) (0.00016733335876464842, 0.9296875) (0.00016601206970214843, 0.931640625) (0.00016456781005859376, 0.93359375) (0.00016301145935058593, 0.935546875) (0.00016135404968261718, 0.9375) (0.00015960679626464842, 0.939453125) (0.00015778106689453124, 0.94140625) (0.00015588836669921876, 0.943359375) (0.00015394024658203125, 0.9453125) (0.00015194834899902342, 0.947265625) (0.00014992424011230467, 0.94921875) (0.00014787942504882812, 0.951171875) (0.000145825439453125, 0.953125) (0.00014377357482910156, 0.955078125) (0.00014173512268066406, 0.95703125) (0.00013972103881835937, 0.958984375) (0.00013774203491210936, 0.9609375) (0.00013580859375, 0.962890625) (0.0001339307861328125, 0.96484375) (0.00013211842346191405, 0.966796875) (0.00013038079833984373, 0.96875) (0.00012872692871093749, 0.970703125) (0.0001271653137207031, 0.97265625) (0.0001257040252685547, 0.974609375) (0.00012435066986083983, 0.9765625) (0.00012311233520507811, 0.978515625) (0.00012199552917480468, 0.98046875) (0.00012100617980957031, 0.982421875) (0.00012014956665039062, 0.984375) (0.00011943032073974608, 0.986328125) (0.00011885237884521484, 0.98828125) (0.00011841901397705078, 0.990234375) (0.00011813282012939453, 0.9921875) (0.00011799576568603515, 0.994140625) (0.0001180091552734375, 0.99609375) (0.00011817376708984375, 0.998046875) (0.00011848983001708983, 1.0) (0.00011895701599121094, 1.001953125) (0.00011957444763183593, 1.00390625) (0.00012034075164794921, 1.005859375) (0.00012125399780273437, 1.0078125) (0.0001223117218017578, 1.009765625) (0.00012351092529296875, 1.01171875) (0.00012484806060791015, 1.013671875) (0.00012631901550292968, 1.015625) (0.00012791915893554687, 1.017578125) (0.00012964335632324218, 1.01953125) (0.0001314860382080078, 1.021484375) (0.00013344117736816406, 1.0234375) (0.0001355022735595703, 1.025390625) (0.00013766244506835938, 1.02734375) (0.00013991436767578125, 1.029296875) (0.00014225036621093749, 1.03125) (0.000144662353515625, 1.033203125) (0.00014714192199707032, 1.03515625) (0.0001496802978515625, 1.037109375) (0.0001522684326171875, 1.0390625) (0.00015489707946777343, 1.041015625) (0.00015755679321289063, 1.04296875) (0.00016023812866210936, 1.044921875) (0.0001629315948486328, 1.046875) (0.0001656277618408203, 1.048828125) (0.00016831730651855467, 1.05078125) (0.00017099102783203125, 1.052734375) (0.0001736399688720703, 1.0546875) (0.00017625535583496094, 1.056640625) (0.00017882861328125, 1.05859375) (0.00018135134887695313, 1.060546875) (0.00018381553649902342, 1.0625) (0.00018621331787109375, 1.064453125) (0.0001885372619628906, 1.06640625) (0.0001907801513671875, 1.068359375) (0.00019293536376953124, 1.0703125) (0.0001949966125488281, 1.072265625) (0.00019695817565917967, 1.07421875) (0.00019881481933593749, 1.076171875) (0.00020056195068359373, 1.078125) (0.00020219549560546873, 1.080078125) (0.0002037120361328125, 1.08203125) (0.00020510873413085936, 1.083984375) (0.00020638339233398437, 1.0859375) (0.000207534423828125, 1.087890625) (0.00020856101989746094, 1.08984375) (0.00020946298217773437, 1.091796875) (0.00021024084472656248, 1.09375) (0.00021089588928222656, 1.095703125) (0.0002114300537109375, 1.09765625) (0.00021184606933593748, 1.099609375) (0.0002121472625732422, 1.1015625) (0.00021233761596679685, 1.103515625) (0.00021242169189453124, 1.10546875) (0.00021240454101562498, 1.107421875) (0.00021229161071777342, 1.109375) (0.00021208872985839842, 1.111328125) (0.000211802001953125, 1.11328125) (0.0002114378967285156, 1.115234375) (0.00021100308227539063, 1.1171875) (0.00021050430297851562, 1.119140625) (0.00020994859313964843, 1.12109375) (0.00020934312438964842, 1.123046875) (0.00020869503784179687, 1.125) (0.00020801161193847656, 1.126953125) (0.00020730009460449218, 1.12890625) (0.000206567626953125, 1.130859375) (0.00020582121276855467, 1.1328125) (0.00020506768798828125, 1.134765625) (0.00020431369018554686, 1.13671875) (0.00020356549072265623, 1.138671875) (0.00020282911682128904, 1.140625) (0.00020211026000976562, 1.142578125) (0.00020141419982910156, 1.14453125) (0.000200745849609375, 1.146484375) (0.00020010975646972656, 1.1484375) (0.0001995099639892578, 1.150390625) (0.00019895005798339842, 1.15234375) (0.00019843310546875, 1.154296875) (0.00019796170043945313, 1.15625) (0.00019753775024414062, 1.158203125) (0.00019716275024414062, 1.16015625) (0.00019683758544921875, 1.162109375) (0.00019656253051757812, 1.1640625) (0.00019633746337890625, 1.166015625) (0.00019616180419921873, 1.16796875) (0.00019603456115722655, 1.169921875) (0.00019595434570312498, 1.171875) (0.00019591949462890624, 1.173828125) (0.00019592808532714842, 1.17578125) (0.00019597793579101562, 1.177734375) (0.00019606657409667968, 1.1796875) (0.00019619137573242187, 1.181640625) (0.0001963495178222656, 1.18359375) (0.00019653800964355468, 1.185546875) (0.00019675372314453124, 1.1875) (0.00019699349975585938, 1.189453125) (0.00019725405883789062, 1.19140625) (0.00019753222656249998, 1.193359375) (0.00019782482910156248, 1.1953125) (0.00019812872314453123, 1.197265625) (0.00019844093322753906, 1.19921875) (0.00019875860595703124, 1.201171875) (0.0001990789794921875, 1.203125) (0.00019939950561523437, 1.205078125) (0.00019971771240234374, 1.20703125) (0.00020003138732910155, 1.208984375) (0.00020033837890624998, 1.2109375) (0.00020063690185546874, 1.212890625) (0.00020092532348632813, 1.21484375) (0.00020120223999023435, 1.216796875) (0.00020146656799316406, 1.21875) (0.00020171749877929686, 1.220703125) (0.00020195452880859374, 1.22265625) (0.00020217742919921875, 1.224609375) (0.00020238607788085938, 1.2265625) (0.00020258065795898436, 1.228515625) (0.00020276136779785156, 1.23046875) (0.00020292852783203124, 1.232421875) (0.00020308255004882812, 1.234375) (0.000203223876953125, 1.236328125) (0.00020335299682617186, 1.23828125) (0.00020347044372558593, 1.240234375) (0.00020357679748535156, 1.2421875) (0.00020367269897460938, 1.244140625) (0.00020375885009765623, 1.24609375) (0.00020383595275878905, 1.248046875) (0.00020390464782714843, 1.25) (0.00020396557617187498, 1.251953125) (0.0002040193176269531, 1.25390625) (0.00020406622314453123, 1.255859375) (0.00020410675048828123, 1.2578125) (0.00020414114379882812, 1.259765625) (0.0002041696014404297, 1.26171875) (0.00020419219970703125, 1.263671875) (0.000204208984375, 1.265625) (0.00020421998596191406, 1.267578125) (0.0002042252655029297, 1.26953125) (0.00020422479248046873, 1.271484375) (0.0002042184143066406, 1.2734375) (0.00020420587158203124, 1.275390625) (0.0002041867218017578, 1.27734375) (0.0002041604766845703, 1.279296875) (0.0002041264190673828, 1.28125) (0.0002040838165283203, 1.283203125) (0.00020403163146972655, 1.28515625) (0.00020396871948242186, 1.287109375) (0.00020389421081542968, 1.2890625) (0.00020380722045898437, 1.291015625) (0.0002037071075439453, 1.29296875) (0.00020359347534179686, 1.294921875) (0.00020346604919433594, 1.296875) (0.00020332475280761717, 1.298828125) (0.0002031697540283203, 1.30078125) (0.0002030012664794922, 1.302734375) (0.00020281961059570312, 1.3046875) (0.00020262521362304686, 1.306640625) (0.00020241851806640623, 1.30859375) (0.00020220001220703124, 1.310546875) (0.00020197050476074218, 1.3125) (0.00020173095703125, 1.314453125) (0.00020148255920410154, 1.31640625) (0.00020122689819335936, 1.318359375) (0.000200965576171875, 1.3203125) (0.0002007003173828125, 1.322265625) (0.0002004330139160156, 1.32421875) (0.00020016567993164062, 1.326171875) (0.00019990032958984373, 1.328125) (0.00019963888549804688, 1.330078125) (0.0001993831329345703, 1.33203125) (0.00019913487243652342, 1.333984375) (0.00019889614868164062, 1.3359375) (0.00019866925048828125, 1.337890625) (0.00019845664978027344, 1.33984375) (0.00019826097106933593, 1.341796875) (0.00019808506774902343, 1.34375) (0.00019793217468261717, 1.345703125) (0.0001978059844970703, 1.34765625) (0.00019771041870117185, 1.349609375) (0.00019764889526367187, 1.3515625) (0.00019762442016601562, 1.353515625) (0.0001976396942138672, 1.35546875) (0.00019769686889648436, 1.357421875) (0.00019779748535156248, 1.359375) (0.0001979425354003906, 1.361328125) (0.00019813206481933594, 1.36328125) (0.0001983655548095703, 1.365234375) (0.00019864324951171874, 1.3671875) (0.00019896554565429687, 1.369140625) (0.0001993332061767578, 1.37109375) (0.00019974748229980468, 1.373046875) (0.0002002093505859375, 1.375) (0.00020071957397460938, 1.376953125) (0.00020127940368652343, 1.37890625) (0.00020188914489746094, 1.380859375) (0.00020254806518554686, 1.3828125) (0.00020325526428222656, 1.384765625) (0.0002040078430175781, 1.38671875) (0.00020480137634277344, 1.388671875) (0.00020563299560546875, 1.390625) (0.0002065001220703125, 1.392578125) (0.0002074015655517578, 1.39453125) (0.0002083385772705078, 1.396484375) (0.00020930892944335936, 1.3984375) (0.0002103074035644531, 1.400390625) (0.0002113289794921875, 1.40234375) (0.00021236520385742186, 1.404296875) (0.00021340415954589843, 1.40625) (0.00021443132019042968, 1.408203125) (0.00021542497253417968, 1.41015625) (0.00021636129760742187, 1.412109375) (0.000217222900390625, 1.4140625) (0.00021799566650390623, 1.416015625) (0.0002186709289550781, 1.41796875) (0.00021924794006347655, 1.419921875) (0.00021972326660156248, 1.421875) (0.00022009521484374998, 1.423828125) (0.000220365234375, 1.42578125) (0.00022052752685546874, 1.427734375) (0.0002205796203613281, 1.4296875) (0.00022052239990234373, 1.431640625) (0.00022035076904296873, 1.43359375) (0.00022006369018554687, 1.435546875) (0.00021966905212402344, 1.4375) (0.00021917930603027343, 1.439453125) (0.00021862086486816406, 1.44140625) (0.0002180272979736328, 1.443359375) (0.00021741513061523436, 1.4453125) (0.00021679254150390624, 1.447265625) (0.00021615960693359374, 1.44921875) (0.00021549945068359373, 1.451171875) (0.00021479678344726562, 1.453125) (0.0002140282745361328, 1.455078125) (0.00021315679931640624, 1.45703125) (0.00021215484619140624, 1.458984375) (0.0002109963836669922, 1.4609375) (0.00020965634155273438, 1.462890625) (0.00020812493896484375, 1.46484375) (0.00020639227294921874, 1.466796875) (0.00020443742370605467, 1.46875) (0.00020224078369140625, 1.470703125) (0.00019977304077148437, 1.47265625) (0.00019699914550781248, 1.474609375) (0.00019391293334960937, 1.4765625) (0.0001905201416015625, 1.478515625) (0.0001868341369628906, 1.48046875) (0.00018289186096191406, 1.482421875) (0.00017873297119140624, 1.484375) (0.0001744137725830078, 1.486328125) (0.00017001519775390625, 1.48828125) (0.00016561309814453124, 1.490234375) (0.00016127899169921875, 1.4921875) (0.0001570799865722656, 1.494140625) (0.00015306715393066406, 1.49609375) (0.00014928814697265624, 1.498046875) (0.00014579714965820312, 1.5) (0.00014263175964355468, 1.501953125) (0.00013981991577148437, 1.50390625) (0.00013738583374023436, 1.505859375) (0.00013531767272949218, 1.5078125) (0.00013360023498535157, 1.509765625) (0.00013222152709960937, 1.51171875) (0.00013113824462890623, 1.513671875) (0.00013029168701171874, 1.515625) (0.00012960055541992187, 1.517578125) (0.00012895411682128905, 1.51953125) (0.00012824392700195312, 1.521484375) (0.00012738804626464842, 1.5234375) (0.00012628687286376952, 1.525390625) (0.00012480512237548826, 1.52734375) (0.00012286618041992188, 1.529296875) (0.0001204488067626953, 1.53125) (0.00011762333679199218, 1.533203125) (0.00011461660003662109, 1.53515625) (0.00011165959930419921, 1.537109375) (0.00010890855407714843, 1.5390625) (0.00010657368469238281, 1.541015625) (0.00010493112182617187, 1.54296875) (0.00010414036560058593, 1.544921875) (0.00010432256317138672, 1.546875) (0.00010543306732177734, 1.548828125) (0.00010698382568359375, 1.55078125) (0.00010852513122558593, 1.552734375) (0.00010985568237304687, 1.5546875) (0.00011070967864990233, 1.556640625) (0.00011095450592041015, 1.55859375) (0.00011068315124511718, 1.560546875) (0.00010984688568115234, 1.5625) (0.00010871318054199218, 1.564453125) (0.00010839113616943358, 1.56640625) (0.00011004850006103516, 1.568359375) (0.00011466644287109375, 1.5703125) (0.0001233202362060547, 1.572265625) (0.00013679248046875, 1.57421875) (0.00015584559631347657, 1.576171875) (0.00018160165405273437, 1.578125) (0.0002148419189453125, 1.580078125) (0.00025479370117187497, 1.58203125) (0.00029949761962890626, 1.583984375) (0.00034780932617187497, 1.5859375) (0.0003988742370605469, 1.587890625) (0.00045273706054687495, 1.58984375) (0.0005105166625976562, 1.591796875) (0.0005685390014648437, 1.59375) (0.00061984375, 1.595703125) (0.0006575805053710938, 1.59765625) (0.0006735510253906249, 1.599609375) (0.0006655509033203124, 1.6015625) (0.00063719921875, 1.603515625) (0.000591968505859375, 1.60546875) (0.0005358468627929688, 1.607421875) (0.0004716586303710937, 1.609375) (0.00039781051635742184, 1.611328125) (0.00031439627075195313, 1.61328125) (0.00022088453674316404, 1.615234375) (0.00012109469604492187, 1.6171875) (2.4530786514282224e-05, 1.619140625) (-6.034406280517578e-05, 1.62109375) (-0.0001253001708984375, 1.623046875) (-0.00016776942443847657, 1.625) (-0.00019211856079101561, 1.626953125) (-0.00020279168701171874, 1.62890625) (-0.00020485922241210937, 1.630859375) (-0.0002007991485595703, 1.6328125) (-0.00018971932983398437, 1.634765625) (-0.0001723443145751953, 1.63671875) (-0.0001501688995361328, 1.638671875) (-0.00012565977478027344, 1.640625) (-0.00010239016723632813, 1.642578125) (-8.256168365478515e-05, 1.64453125) (-6.732269287109374e-05, 1.646484375) (-5.710041809082031e-05, 1.6484375) (-5.1271224975585935e-05, 1.650390625) (-4.9008579254150385e-05, 1.65234375) (-4.923734283447265e-05, 1.654296875) (-5.05514907836914e-05, 1.65625) (-5.179688644409179e-05, 1.658203125) (-5.1845985412597653e-05, 1.66015625) (-4.978316497802734e-05, 1.662109375) (-4.529856872558594e-05, 1.6640625) (-3.838473510742187e-05, 1.666015625) (-2.9309892654418943e-05, 1.66796875) (-1.8733152389526367e-05, 1.669921875) (-7.392595291137695e-06, 1.671875) (3.984671115875244e-06, 1.673828125) (1.4541996002197264e-05, 1.67578125) (2.3669750213623046e-05, 1.677734375) (3.1121105194091796e-05, 1.6796875) (3.676961898803711e-05, 1.681640625) (4.068258285522461e-05, 1.68359375) (4.306964874267578e-05, 1.685546875) (4.412194442749023e-05, 1.6875) (4.412469482421875e-05, 1.689453125) (4.346781158447266e-05, 1.69140625) (4.2421974182128906e-05, 1.693359375) (4.114086532592773e-05, 1.6953125) (3.9719188690185544e-05, 1.697265625) (3.817120361328125e-05, 1.69921875) (3.65285530090332e-05, 1.701171875) (3.48583984375e-05, 1.703125) (3.319374847412109e-05, 1.705078125) (3.1545522689819334e-05, 1.70703125) (2.9929998397827148e-05, 1.708984375) (2.8364795684814452e-05, 1.7109375) (2.6890981674194335e-05, 1.712890625) (2.5564750671386716e-05, 1.71484375) (2.4425893783569336e-05, 1.716796875) (2.350177001953125e-05, 1.71875) (2.2792102813720704e-05, 1.720703125) (2.2274240493774415e-05, 1.72265625) (2.1928771972656248e-05, 1.724609375) (2.1738502502441405e-05, 1.7265625) (2.1690414428710937e-05, 1.728515625) (2.177084732055664e-05, 1.73046875) (2.19532470703125e-05, 1.732421875) (2.2207746505737305e-05, 1.734375) (2.2510910034179686e-05, 1.736328125) (2.2841869354248044e-05, 1.73828125) (2.3187011718749997e-05, 1.740234375) (2.353455352783203e-05, 1.7421875) (2.3859655380249023e-05, 1.744140625) (2.4135955810546875e-05, 1.74609375) (2.4337066650390625e-05, 1.748046875) (2.4432071685791013e-05, 1.75) (2.4408296585083008e-05, 1.751953125) (2.4267574310302734e-05, 1.75390625) (2.4012897491455076e-05, 1.755859375) (2.3654266357421875e-05, 1.7578125) (2.3203449249267576e-05, 1.759765625) (2.267153549194336e-05, 1.76171875) (2.207850456237793e-05, 1.763671875) (2.1449995040893554e-05, 1.765625) (2.080708885192871e-05, 1.767578125) (2.01693172454834e-05, 1.76953125) (1.9553680419921873e-05, 1.771484375) (1.8974334716796873e-05, 1.7734375) (1.8452272415161134e-05, 1.775390625) (1.8011419296264648e-05, 1.77734375) (1.7676130294799802e-05, 1.779296875) (1.7473373413085938e-05, 1.78125) (1.7422710418701172e-05, 1.783203125) (1.753652000427246e-05, 1.78515625) (1.7825431823730466e-05, 1.787109375) (1.829560852050781e-05, 1.7890625) (1.894977569580078e-05, 1.791015625) (1.978954315185547e-05, 1.79296875) (2.081179428100586e-05, 1.794921875) (2.20089168548584e-05, 1.796875) (2.3375213623046873e-05, 1.798828125) (2.4905786514282227e-05, 1.80078125) (2.6595462799072264e-05, 1.802734375) (2.8440151214599607e-05, 1.8046875) (3.043300437927246e-05, 1.806640625) (3.2564437866210936e-05, 1.80859375) (3.482410049438476e-05, 1.810546875) (3.72004280090332e-05, 1.8125) (3.968177795410156e-05, 1.814453125) (4.225691986083984e-05, 1.81640625) (4.491396331787109e-05, 1.818359375) (4.764051818847656e-05, 1.8203125) (5.042457580566406e-05, 1.822265625) (5.325423431396484e-05, 1.82421875) (5.6118114471435545e-05, 1.826171875) (5.900549697875976e-05, 1.828125) (6.19046287536621e-05, 1.830078125) (6.480276489257812e-05, 1.83203125) (6.768698120117187e-05, 1.833984375) (7.054388427734375e-05, 1.8359375) (7.336027526855468e-05, 1.837890625) (7.612342834472655e-05, 1.83984375) (7.882059478759765e-05, 1.841796875) (8.14390869140625e-05, 1.84375) (8.39669952392578e-05, 1.845703125) (8.639313507080077e-05, 1.84765625) (8.87069854736328e-05, 1.849609375) (9.089893341064452e-05, 1.8515625) (9.295987701416015e-05, 1.853515625) (9.488106536865233e-05, 1.85546875) (9.66543731689453e-05, 1.857421875) (9.827235412597656e-05, 1.859375) (9.972817993164062e-05, 1.861328125) (0.00010101571655273436, 1.86328125) (0.00010212960815429687, 1.865234375) (0.0001030651626586914, 1.8671875) (0.00010381848144531249, 1.869140625) (0.00010438652038574219, 1.87109375) (0.00010476705932617187, 1.873046875) (0.00010495863342285156, 1.875) (0.0001049605255126953, 1.876953125) (0.0001047726821899414, 1.87890625) (0.0001043957290649414, 1.880859375) (0.00010383096313476563, 1.8828125) (0.00010308025360107422, 1.884765625) (0.0001021460723876953, 1.88671875) (0.00010103147888183593, 1.888671875) (9.974008178710937e-05, 1.890625) (9.827609252929687e-05, 1.892578125) (9.664424133300781e-05, 1.89453125) (9.484972381591797e-05, 1.896484375) (9.289811706542969e-05, 1.8984375) (9.079536437988281e-05, 1.900390625) (8.854769897460937e-05, 1.90234375) (8.616160583496094e-05, 1.904296875) (8.364385223388672e-05, 1.90625) (8.1001220703125e-05, 1.908203125) (7.824063110351562e-05, 1.91015625) (7.536912536621093e-05, 1.912109375) (7.239385986328124e-05, 1.9140625) (6.932214355468749e-05, 1.916015625) (6.616141510009765e-05, 1.91796875) (6.291919326782226e-05, 1.919921875) (5.960303115844726e-05, 1.921875) (5.622049713134765e-05, 1.923828125) (5.2779182434082026e-05, 1.92578125) (4.928658294677734e-05, 1.927734375) (4.575010299682617e-05, 1.9296875) (4.217697525024414e-05, 1.931640625) (3.8574256896972655e-05, 1.93359375) (3.494883346557617e-05, 1.935546875) (3.1307449340820313e-05, 1.9375) (2.7656669616699218e-05, 1.939453125) (2.4002904891967772e-05, 1.94140625) (2.0352361679077148e-05, 1.943359375) (1.6711044311523438e-05, 1.9453125) (1.308475112915039e-05, 1.947265625) (9.47905921936035e-06, 1.94921875) (5.899308681488037e-06, 1.951171875) (2.3506109714508054e-06, 1.953125) (-1.1621623039245604e-06, 1.955078125) (-4.634333133697509e-06, 1.95703125) (-8.061355590820313e-06, 1.958984375) (-1.1438785552978516e-05, 1.9609375) (-1.4762246131896972e-05, 1.962890625) (-1.8027421951293945e-05, 1.96484375) (-2.1230052947998045e-05, 1.966796875) (-2.4365936279296875e-05, 1.96875) (-2.7430927276611327e-05, 1.970703125) (-3.0420969009399414e-05, 1.97265625) (-3.3332168579101564e-05, 1.974609375) (-3.6160797119140625e-05, 1.9765625) (-3.890334701538086e-05, 1.978515625) (-4.155652618408203e-05, 1.98046875) (-4.4117248535156246e-05, 1.982421875) (-4.658258819580078e-05, 1.984375) (-4.894986343383789e-05, 1.986328125) (-5.121657562255859e-05, 1.98828125) (-5.338041687011718e-05, 1.990234375) (-5.543928909301757e-05, 1.9921875) (-5.739125061035156e-05, 1.994140625) (-5.923458099365234e-05, 1.99609375) (-6.0967781066894526e-05, 1.998046875) (-6.258961486816405e-05, 2.0) (-6.409906005859374e-05, 2.001953125) (-6.549533081054687e-05, 2.00390625) (-6.677782440185547e-05, 2.005859375) (-6.79461669921875e-05, 2.0078125) (-6.900014495849609e-05, 2.009765625) (-6.993976593017578e-05, 2.01171875) (-7.07652359008789e-05, 2.013671875) (-7.147695922851562e-05, 2.015625) (-7.207559967041015e-05, 2.017578125) (-7.25621337890625e-05, 2.01953125) (-7.29378662109375e-05, 2.021484375) (-7.320453643798828e-05, 2.0234375) (-7.336424255371093e-05, 2.025390625) (-7.341954803466796e-05, 2.02734375) (-7.337338256835937e-05, 2.029296875) (-7.322909545898437e-05, 2.03125) (-7.299041748046875e-05, 2.033203125) (-7.266140747070312e-05, 2.03515625) (-7.224642181396485e-05, 2.037109375) (-7.175006866455078e-05, 2.0390625) (-7.117716217041016e-05, 2.041015625) (-7.053271484375e-05, 2.04296875) (-6.982192993164062e-05, 2.044921875) (-6.90501480102539e-05, 2.046875) (-6.82228546142578e-05, 2.048828125) (-6.734561157226562e-05, 2.05078125) (-6.642405700683594e-05, 2.052734375) (-6.546385955810547e-05, 2.0546875) (-6.447075653076171e-05, 2.056640625) (-6.34504280090332e-05, 2.05859375) (-6.240857696533203e-05, 2.060546875) (-6.135085296630859e-05, 2.0625) (-6.0282867431640626e-05, 2.064453125) (-5.9210224151611325e-05, 2.06640625) (-5.813853073120117e-05, 2.068359375) (-5.70733642578125e-05, 2.0703125) (-5.602029418945312e-05, 2.072265625) (-5.4984848022460936e-05, 2.07421875) (-5.397247695922851e-05, 2.076171875) (-5.2988525390624996e-05, 2.078125) (-5.20382080078125e-05, 2.080078125) (-5.112651824951172e-05, 2.08203125) (-5.025819396972656e-05, 2.083984375) (-4.943765640258789e-05, 2.0859375) (-4.866897583007812e-05, 2.087890625) (-4.795587539672851e-05, 2.08984375) (-4.730167007446289e-05, 2.091796875) (-4.670931625366211e-05, 2.09375) (-4.618135070800781e-05, 2.095703125) (-4.5719913482666016e-05, 2.09765625) (-4.5326789855957027e-05, 2.099609375) (-4.5003402709960935e-05, 2.1015625) (-4.47508544921875e-05, 2.103515625) (-4.4569919586181637e-05, 2.10546875) (-4.446108245849609e-05, 2.107421875) (-4.442454147338867e-05, 2.109375) (-4.446023559570312e-05, 2.111328125) (-4.456790542602539e-05, 2.11328125) (-4.474706268310547e-05, 2.115234375) (-4.499705123901367e-05, 2.1171875) (-4.53169937133789e-05, 2.119140625) (-4.5705833435058594e-05, 2.12109375) (-4.616232681274414e-05, 2.123046875) (-4.6685012817382814e-05, 2.125) (-4.727221298217773e-05, 2.126953125) (-4.792198944091797e-05, 2.12890625) (-4.863214874267578e-05, 2.130859375) (-4.940019989013672e-05, 2.1328125) (-5.022335815429687e-05, 2.134765625) (-5.1098571777343745e-05, 2.13671875) (-5.202251815795898e-05, 2.138671875) (-5.299163818359375e-05, 2.140625) (-5.400215148925781e-05, 2.142578125) (-5.505013275146484e-05, 2.14453125) (-5.6131511688232416e-05, 2.146484375) (-5.724215316772461e-05, 2.1484375) (-5.8377887725830074e-05, 2.150390625) (-5.953453826904297e-05, 2.15234375) (-6.070796203613281e-05, 2.154296875) (-6.189409637451171e-05, 2.15625) (-6.308893966674805e-05, 2.158203125) (-6.428860473632812e-05, 2.16015625) (-6.548928833007812e-05, 2.162109375) (-6.668734741210937e-05, 2.1640625) (-6.787919616699219e-05, 2.166015625) (-6.906134033203124e-05, 2.16796875) (-7.023034667968749e-05, 2.169921875) (-7.138290405273437e-05, 2.171875) (-7.251567840576172e-05, 2.173828125) (-7.362543487548828e-05, 2.17578125) (-7.470896911621094e-05, 2.177734375) (-7.576313018798828e-05, 2.1796875) (-7.678480529785156e-05, 2.181640625) (-7.777098083496094e-05, 2.18359375) (-7.871875762939452e-05, 2.185546875) (-7.962533569335937e-05, 2.1875) (-8.048817443847655e-05, 2.189453125) (-8.130491638183594e-05, 2.19140625) (-8.207342529296874e-05, 2.193359375) (-8.279190063476562e-05, 2.1953125) (-8.345894622802734e-05, 2.197265625) (-8.4073486328125e-05, 2.19921875) (-8.46348876953125e-05, 2.201171875) (-8.514288330078125e-05, 2.203125) (-8.559757232666016e-05, 2.205078125) (-8.599937438964843e-05, 2.20703125) (-8.63490753173828e-05, 2.208984375) (-8.664773559570312e-05, 2.2109375) (-8.689673614501952e-05, 2.212890625) (-8.709764099121094e-05, 2.21484375) (-8.725221252441405e-05, 2.216796875) (-8.736241149902344e-05, 2.21875) (-8.743032836914062e-05, 2.220703125) (-8.745822143554688e-05, 2.22265625) (-8.744847106933593e-05, 2.224609375) (-8.740359497070312e-05, 2.2265625) (-8.732614135742187e-05, 2.228515625) (-8.721878814697266e-05, 2.23046875) (-8.708439636230468e-05, 2.232421875) (-8.692586517333984e-05, 2.234375) (-8.674631500244141e-05, 2.236328125) (-8.654898834228515e-05, 2.23828125) (-8.633721923828124e-05, 2.240234375) (-8.6114501953125e-05, 2.2421875) (-8.588455963134766e-05, 2.244140625) (-8.565119171142578e-05, 2.24609375) (-8.54183120727539e-05, 2.248046875) (-8.518993377685547e-05, 2.25) (-8.496994018554687e-05, 2.251953125) (-8.476213836669921e-05, 2.25390625) (-8.457033538818359e-05, 2.255859375) (-8.439803314208984e-05, 2.2578125) (-8.42483673095703e-05, 2.259765625) (-8.412413024902344e-05, 2.26171875) (-8.4027587890625e-05, 2.263671875) (-8.396060180664062e-05, 2.265625) (-8.392476654052735e-05, 2.267578125) (-8.39213409423828e-05, 2.26953125) (-8.395121002197266e-05, 2.271484375) (-8.401492309570312e-05, 2.2734375) (-8.41126251220703e-05, 2.275390625) (-8.424413299560547e-05, 2.27734375) (-8.440909576416015e-05, 2.279296875) (-8.460682678222655e-05, 2.28125) (-8.483633422851562e-05, 2.283203125) (-8.50963134765625e-05, 2.28515625) (-8.53851318359375e-05, 2.287109375) (-8.57009048461914e-05, 2.2890625) (-8.60417022705078e-05, 2.291015625) (-8.640536499023438e-05, 2.29296875) (-8.678945922851562e-05, 2.294921875) (-8.719145202636718e-05, 2.296875) (-8.760842895507811e-05, 2.298828125) (-8.803713989257812e-05, 2.30078125) (-8.847429656982422e-05, 2.302734375) (-8.891617584228515e-05, 2.3046875) (-8.935842895507812e-05, 2.306640625) (-8.979652404785156e-05, 2.30859375) (-9.022553253173828e-05, 2.310546875) (-9.064000701904297e-05, 2.3125) (-9.103446197509766e-05, 2.314453125) (-9.140328979492187e-05, 2.31640625) (-9.174034881591796e-05, 2.318359375) (-9.203981018066406e-05, 2.3203125) (-9.22966079711914e-05, 2.322265625) (-9.250592803955078e-05, 2.32421875) (-9.266354370117187e-05, 2.326171875) (-9.276606750488281e-05, 2.328125) (-9.28100128173828e-05, 2.330078125) (-9.27921905517578e-05, 2.33203125) (-9.271038818359375e-05, 2.333984375) (-9.256209564208984e-05, 2.3359375) (-9.234439849853515e-05, 2.337890625) (-9.205426788330077e-05, 2.33984375) (-9.168788146972656e-05, 2.341796875) (-9.124138641357421e-05, 2.34375) (-9.071215820312499e-05, 2.345703125) (-9.009809112548828e-05, 2.34765625) (-8.939757537841796e-05, 2.349609375) (-8.861001586914062e-05, 2.3515625) (-8.773448181152343e-05, 2.353515625) (-8.677128601074219e-05, 2.35546875) (-8.572289276123046e-05, 2.357421875) (-8.459059143066406e-05, 2.359375) (-8.337517547607422e-05, 2.361328125) (-8.207664489746093e-05, 2.36328125) (-8.069155883789063e-05, 2.365234375) (-7.921882629394531e-05, 2.3671875) (-7.76634521484375e-05, 2.369140625) (-7.603237915039061e-05, 2.37109375) (-7.433610534667969e-05, 2.373046875) (-7.259011077880859e-05, 2.375) (-7.0807373046875e-05, 2.376953125) (-6.900199890136718e-05, 2.37890625) (-6.7193115234375e-05, 2.380859375) (-6.539513397216796e-05, 2.3828125) (-6.361759185791016e-05, 2.384765625) (-6.186544036865234e-05, 2.38671875) (-6.013357543945312e-05, 2.388671875) (-5.8416255950927734e-05, 2.390625) (-5.6715309143066406e-05, 2.392578125) (-5.5037826538085935e-05, 2.39453125) (-5.339845275878906e-05, 2.396484375) (-5.181164169311523e-05, 2.3984375) (-5.0280807495117186e-05, 2.400390625) (-4.880761337280273e-05, 2.40234375) (-4.739223480224609e-05, 2.404296875) (-4.602519989013672e-05, 2.40625) (-4.469951629638672e-05, 2.408203125) (-4.340396499633789e-05, 2.41015625) (-4.211391067504883e-05, 2.412109375) (-4.081618499755859e-05, 2.4140625) (-3.9514991760253906e-05, 2.416015625) (-3.822586822509765e-05, 2.41796875) (-3.698665618896484e-05, 2.419921875) (-3.584369277954101e-05, 2.421875) (-3.4828155517578124e-05, 2.423828125) (-3.3963104248046874e-05, 2.42578125) (-3.326411437988281e-05, 2.427734375) (-3.274055099487305e-05, 2.4296875) (-3.241119766235351e-05, 2.431640625) (-3.229325866699219e-05, 2.43359375) (-3.239762878417969e-05, 2.435546875) (-3.274425506591797e-05, 2.4375) (-3.335501861572265e-05, 2.439453125) (-3.426056671142578e-05, 2.44140625) (-3.550838470458984e-05, 2.443359375) (-3.713043975830078e-05, 2.4453125) (-3.9131080627441405e-05, 2.447265625) (-4.149669647216797e-05, 2.44921875) (-4.418357467651367e-05, 2.451171875) (-4.7128471374511716e-05, 2.453125) (-5.027632904052734e-05, 2.455078125) (-5.357108306884765e-05, 2.45703125) (-5.6956928253173825e-05, 2.458984375) (-6.0386962890624995e-05, 2.4609375) (-6.381182098388671e-05, 2.462890625) (-6.718711853027344e-05, 2.46484375) (-7.047724914550781e-05, 2.466796875) (-7.364128112792969e-05, 2.46875) (-7.662933349609375e-05, 2.470703125) (-7.937892150878906e-05, 2.47265625) (-8.1816650390625e-05, 2.474609375) (-8.387986755371093e-05, 2.4765625) (-8.552980041503906e-05, 2.478515625) (-8.674672698974608e-05, 2.48046875) (-8.753589630126953e-05, 2.482421875) (-8.79320831298828e-05, 2.484375) (-8.798991394042968e-05, 2.486328125) (-8.778250122070312e-05, 2.48828125) (-8.739116668701172e-05, 2.490234375) (-8.688680267333984e-05, 2.4921875) (-8.632289123535156e-05, 2.494140625) (-8.575186157226562e-05, 2.49609375) (-8.523597717285155e-05, 2.498046875) (-8.484071350097656e-05, 2.5) (-8.464933013916016e-05, 2.501953125) (-8.474903106689452e-05, 2.50390625) (-8.52018585205078e-05, 2.505859375) (-8.609225463867187e-05, 2.5078125) (-8.752479553222656e-05, 2.509765625) (-8.953668212890625e-05, 2.51171875) (-9.208981323242187e-05, 2.513671875) (-9.501895904541015e-05, 2.515625) (-9.798985290527344e-05, 2.517578125) (-0.000100638427734375, 2.51953125) (-0.00010265544891357421, 2.521484375) (-0.00010369570922851563, 2.5234375) (-0.00010339794921875, 2.525390625) (-0.00010154142761230468, 2.52734375) (-9.806986236572265e-05, 2.529296875) (-9.325508880615233e-05, 2.53125) (-8.772802734375e-05, 2.533203125) (-8.216725158691406e-05, 2.53515625) (-7.714328002929687e-05, 2.537109375) (-7.315682983398437e-05, 2.5390625) (-7.066357421875e-05, 2.541015625) (-6.984825134277343e-05, 2.54296875) (-7.047356414794921e-05, 2.544921875) (-7.169547271728515e-05, 2.546875) (-7.204391479492188e-05, 2.548828125) (-6.979246520996094e-05, 2.55078125) (-6.326079177856445e-05, 2.552734375) (-5.085841751098633e-05, 2.5546875) (-3.098281478881836e-05, 2.556640625) (-2.4518337249755858e-06, 2.55859375) (3.5219902038574216e-05, 2.560546875) (8.165038299560546e-05, 2.5625) (0.00013541355895996094, 2.564453125) (0.00019432475280761717, 2.56640625) (0.00025567797851562497, 2.568359375) (0.0003162557983398437, 2.5703125) (0.00037228491210937497, 2.572265625) (0.0004199336547851562, 2.57421875) (0.00045560888671875, 2.576171875) (0.000476213134765625, 2.578125) (0.0004793233032226562, 2.580078125) (0.00046407067871093746, 2.58203125) (0.0004314744873046875, 2.583984375) (0.0003831650695800781, 2.5859375) (0.00032191412353515625, 2.587890625) (0.0002486417999267578, 2.58984375) (0.00016202552795410155, 2.591796875) (6.447515106201172e-05, 2.59375) (-3.8858566284179684e-05, 2.595703125) (-0.00013788583374023438, 2.59765625) (-0.00021848857116699217, 2.599609375) (-0.00027393341064453126, 2.6015625) (-0.0003036463012695312, 2.603515625) (-0.00031187152099609373, 2.60546875) (-0.00030690631103515625, 2.607421875) (-0.0002917584533691406, 2.609375) (-0.00026751364135742185, 2.611328125) (-0.000237683837890625, 2.61328125) (-0.00020752262878417967, 2.615234375) (-0.00018525559997558592, 2.6171875) (-0.00017661566162109374, 2.619140625) (-0.0001807217102050781, 2.62109375) (-0.00019128045654296874, 2.623046875) (-0.0002006494445800781, 2.625) (-0.00020401654052734373, 2.626953125) (-0.00020101017761230467, 2.62890625) (-0.0001949891357421875, 2.630859375) (-0.00018873280334472656, 2.6328125) (-0.00018307522583007813, 2.634765625) (-0.00017736907958984375, 2.63671875) (-0.000169606689453125, 2.638671875) (-0.00015904490661621093, 2.640625) (-0.00014631936645507812, 2.642578125) (-0.00013236203002929686, 2.64453125) (-0.00011849102783203125, 2.646484375) (-0.00010553115844726562, 2.6484375) (-9.367491912841796e-05, 2.650390625) (-8.313111114501953e-05, 2.65234375) (-7.409759521484374e-05, 2.654296875) (-6.659931945800781e-05, 2.65625) (-6.060955810546875e-05, 2.658203125) (-5.598049926757812e-05, 2.66015625) (-5.2406166076660155e-05, 2.662109375) (-4.9677047729492185e-05, 2.6640625) (-4.7686405181884765e-05, 2.666015625) (-4.631342315673828e-05, 2.66796875) (-4.545584487915039e-05, 2.669921875) (-4.501578903198242e-05, 2.671875) (-4.4878463745117184e-05, 2.673828125) (-4.497196960449218e-05, 2.67578125) (-4.526519393920898e-05, 2.677734375) (-4.5699455261230465e-05, 2.6796875) (-4.619240188598632e-05, 2.681640625) (-4.666757202148437e-05, 2.68359375) (-4.704859161376953e-05, 2.685546875) (-4.727608489990234e-05, 2.6875) (-4.731580352783203e-05, 2.689453125) (-4.712396621704101e-05, 2.69140625) (-4.665016937255859e-05, 2.693359375) (-4.587078857421875e-05, 2.6953125) (-4.4785797119140625e-05, 2.697265625) (-4.341429138183594e-05, 2.69921875) (-4.1792892456054684e-05, 2.701171875) (-3.995626449584961e-05, 2.703125) (-3.793138122558594e-05, 2.705078125) (-3.5747306823730467e-05, 2.70703125) (-3.343611907958984e-05, 2.708984375) (-3.103194618225097e-05, 2.7109375) (-2.8574316024780273e-05, 2.712890625) (-2.6094629287719726e-05, 2.71484375) (-2.361456489562988e-05, 2.716796875) (-2.1159826278686523e-05, 2.71875) (-1.8756595611572264e-05, 2.720703125) (-1.6439455032348633e-05, 2.72265625) (-1.4251481056213377e-05, 2.724609375) (-1.2217520713806151e-05, 2.7265625) (-1.0344049453735352e-05, 2.728515625) (-8.62982177734375e-06, 2.73046875) (-7.064597129821777e-06, 2.732421875) (-5.637227058410645e-06, 2.734375) (-4.339035987854004e-06, 2.736328125) (-3.1536931991577145e-06, 2.73828125) (-2.0579595565795898e-06, 2.740234375) (-1.0309760570526122e-06, 2.7421875) (-5.236968398094177e-08, 2.744140625) (8.944135308265685e-07, 2.74609375) (1.8206616640090942e-06, 2.748046875) (2.7429168224334715e-06, 2.75) (3.681408166885376e-06, 2.751953125) (4.6594104766845705e-06, 2.75390625) (5.704086303710937e-06, 2.755859375) (6.834773540496826e-06, 2.7578125) (8.06248664855957e-06, 2.759765625) (9.395987510681152e-06, 2.76171875) (1.0840529441833495e-05, 2.763671875) (1.239912223815918e-05, 2.765625) (1.4074024200439453e-05, 2.767578125) (1.5862127304077146e-05, 2.76953125) (1.7755353927612304e-05, 2.771484375) (1.9747875213623047e-05, 2.7734375) (2.1835464477539062e-05, 2.775390625) (2.4014461517333984e-05, 2.77734375) (2.6282638549804687e-05, 2.779296875) (2.8635038375854492e-05, 2.78125) (3.1064121246337886e-05, 2.783203125) (3.356193161010742e-05, 2.78515625) (3.611950302124023e-05, 2.787109375) (3.872811126708984e-05, 2.7890625) (4.1379592895507814e-05, 2.791015625) (4.4065155029296874e-05, 2.79296875) (4.677570343017578e-05, 2.794921875) (4.950278091430664e-05, 2.796875) (5.223823547363281e-05, 2.798828125) (5.497470092773437e-05, 2.80078125) (5.770576477050781e-05, 2.802734375) (6.042398452758789e-05, 2.8046875) (6.312105560302734e-05, 2.806640625) (6.578855895996093e-05, 2.80859375) (6.841762542724609e-05, 2.810546875) (7.099960327148438e-05, 2.8125) (7.352615356445312e-05, 2.814453125) (7.598867034912109e-05, 2.81640625) (7.83785400390625e-05, 2.818359375) (8.068783569335937e-05, 2.8203125) (8.290934753417969e-05, 2.822265625) (8.503640747070312e-05, 2.82421875) (8.706299591064452e-05, 2.826171875) (8.898335266113281e-05, 2.828125) (9.07919921875e-05, 2.830078125) (9.248393249511719e-05, 2.83203125) (9.405471038818359e-05, 2.833984375) (9.550001525878905e-05, 2.8359375) (9.681585693359375e-05, 2.837890625) (9.79985122680664e-05, 2.83984375) (9.904463958740234e-05, 2.841796875) (9.995134735107422e-05, 2.84375) (0.00010071633911132812, 2.845703125) (0.00010133766937255858, 2.84765625) (0.00010181380462646484, 2.849609375) (0.00010214358520507812, 2.8515625) (0.00010232624816894531, 2.853515625) (0.00010236135864257812, 2.85546875) (0.00010224881744384765, 2.857421875) (0.00010198867034912109, 2.859375) (0.00010158116149902344, 2.861328125) (0.00010102671051025391, 2.86328125) (0.00010032592010498046, 2.865234375) (9.947972869873047e-05, 2.8671875) (9.848941802978516e-05, 2.869140625) (9.735653686523436e-05, 2.87109375) (9.60828857421875e-05, 2.873046875) (9.467060089111327e-05, 2.875) (9.312207794189452e-05, 2.876953125) (9.144000244140624e-05, 2.87890625) (8.96273193359375e-05, 2.880859375) (8.768707275390624e-05, 2.8828125) (8.562234497070313e-05, 2.884765625) (8.343632507324219e-05, 2.88671875) (8.113232421875e-05, 2.888671875) (7.871388244628906e-05, 2.890625) (7.618476104736327e-05, 2.892578125) (7.354890441894532e-05, 2.89453125) (7.081050109863281e-05, 2.896484375) (6.797396850585937e-05, 2.8984375) (6.504405212402344e-05, 2.900390625) (6.202569580078125e-05, 2.90234375) (5.892407989501953e-05, 2.904296875) (5.57444953918457e-05, 2.90625) (5.249228286743164e-05, 2.908203125) (4.917288970947266e-05, 2.91015625) (4.57918472290039e-05, 2.912109375) (4.235476684570312e-05, 2.9140625) (3.886741638183594e-05, 2.916015625) (3.5335647583007813e-05, 2.91796875) (3.1765445709228516e-05, 2.919921875) (2.8162919998168944e-05, 2.921875) (2.4534339904785154e-05, 2.923828125) (2.0886100769042968e-05, 2.92578125) (1.722469711303711e-05, 2.927734375) (1.3556657791137695e-05, 2.9296875) (9.888489723205567e-06, 2.931640625) (6.226689338684082e-06, 2.93359375) (2.577728509902954e-06, 2.935546875) (-1.0519411563873292e-06, 2.9375) (-4.655885696411132e-06, 2.939453125) (-8.22771167755127e-06, 2.94140625) (-1.1761075973510741e-05, 2.943359375) (-1.524965763092041e-05, 2.9453125) (-1.8687164306640626e-05, 2.947265625) (-2.2067373275756835e-05, 2.94921875) (-2.538416290283203e-05, 2.951171875) (-2.86315975189209e-05, 2.953125) (-3.1803966522216794e-05, 2.955078125) (-3.489582443237305e-05, 2.95703125) (-3.790199279785156e-05, 2.958984375) (-4.0817604064941404e-05, 2.9609375) (-4.363808441162109e-05, 2.962890625) (-4.6359191894531245e-05, 2.96484375) (-4.8976993560791014e-05, 2.966796875) (-5.148786163330078e-05, 2.96875) (-5.388843536376953e-05, 2.970703125) (-5.617562103271484e-05, 2.97265625) (-5.834663391113281e-05, 2.974609375) (-6.03990249633789e-05, 2.9765625) (-6.233069229125977e-05, 2.978515625) (-6.413990783691406e-05, 2.98046875) (-6.582530212402343e-05, 2.982421875) (-6.738592529296874e-05, 2.984375) (-6.882120513916016e-05, 2.986328125) (-7.013098907470703e-05, 2.98828125) (-7.131552886962891e-05, 2.990234375) (-7.237546539306641e-05, 2.9921875) (-7.331179809570312e-05, 2.994140625) (-7.412586975097656e-05, 2.99609375) (-7.481945037841797e-05, 2.998046875) (-7.539466094970702e-05, 3.0) (-7.585406494140625e-05, 3.001953125) (-7.620058441162109e-05, 3.00390625) (-7.643753814697265e-05, 3.005859375) (-7.6568603515625e-05, 3.0078125) (-7.659779357910156e-05, 3.009765625) (-7.652951049804687e-05, 3.01171875) (-7.63683624267578e-05, 3.013671875) (-7.611925506591797e-05, 3.015625) (-7.578720855712891e-05, 3.017578125) (-7.537740325927734e-05, 3.01953125) (-7.489512634277344e-05, 3.021484375) (-7.434574890136718e-05, 3.0234375) (-7.373472595214843e-05, 3.025390625) (-7.306751251220703e-05, 3.02734375) (-7.234958648681641e-05, 3.029296875) (-7.158642578125e-05, 3.03125) (-7.078350067138672e-05, 3.033203125) (-6.994625091552734e-05, 3.03515625) (-6.908006286621093e-05, 3.037109375) (-6.81902618408203e-05, 3.0390625) (-6.72820053100586e-05, 3.041015625) (-6.636036682128906e-05, 3.04296875) (-6.543025207519531e-05, 3.044921875) (-6.449645233154296e-05, 3.046875) (-6.356354522705078e-05, 3.048828125) (-6.263594436645507e-05, 3.05078125) (-6.171781921386719e-05, 3.052734375) (-6.081314086914062e-05, 3.0546875) (-5.99256477355957e-05, 3.056640625) (-5.90588264465332e-05, 3.05859375) (-5.8215881347656244e-05, 3.060546875) (-5.739971923828125e-05, 3.0625) (-5.661289596557617e-05, 3.064453125) (-5.58576431274414e-05, 3.06640625) (-5.513588714599609e-05, 3.068359375) (-5.444921112060547e-05, 3.0703125) (-5.3798889160156245e-05, 3.072265625) (-5.318587493896484e-05, 3.07421875) (-5.261085128784179e-05, 3.076171875) (-5.2074211120605464e-05, 3.078125) (-5.157614135742187e-05, 3.080078125) (-5.111660385131836e-05, 3.08203125) (-5.069538116455078e-05, 3.083984375) (-5.031205749511718e-05, 3.0859375) (-4.9966041564941405e-05, 3.087890625) (-4.965663909912109e-05, 3.08984375) (-4.938304901123047e-05, 3.091796875) (-4.914438629150391e-05, 3.09375) (-4.893972015380859e-05, 3.095703125) (-4.8768035888671874e-05, 3.09765625) (-4.862830352783203e-05, 3.099609375) (-4.851944732666016e-05, 3.1015625) (-4.8440380096435545e-05, 3.103515625) (-4.838997650146484e-05, 3.10546875) (-4.8367050170898434e-05, 3.107421875) (-4.837035751342773e-05, 3.109375) (-4.8398586273193356e-05, 3.111328125) (-4.845035934448242e-05, 3.11328125) (-4.852428436279297e-05, 3.115234375) (-4.861891174316406e-05, 3.1171875) (-4.873276901245117e-05, 3.119140625) (-4.8864356994628905e-05, 3.12109375) (-4.901216888427734e-05, 3.123046875) (-4.917472457885742e-05, 3.125) (-4.93505859375e-05, 3.126953125) (-4.953831481933594e-05, 3.12890625) (-4.973647689819336e-05, 3.130859375) (-4.9943637847900385e-05, 3.1328125) (-5.0158363342285156e-05, 3.134765625) (-5.03792495727539e-05, 3.13671875) (-5.0604892730712886e-05, 3.138671875) (-5.0833908081054687e-05, 3.140625) (-5.1064907073974605e-05, 3.142578125) (-5.1296512603759764e-05, 3.14453125) (-5.152734756469726e-05, 3.146484375) (-5.175603103637695e-05, 3.1484375) (-5.1981170654296876e-05, 3.150390625) (-5.220129776000976e-05, 3.15234375) (-5.241485214233398e-05, 3.154296875) (-5.262013244628906e-05, 3.15625) (-5.2815307617187496e-05, 3.158203125) (-5.299839782714844e-05, 3.16015625) (-5.3167308807373045e-05, 3.162109375) (-5.331981658935546e-05, 3.1640625) (-5.345360565185547e-05, 3.166015625) (-5.3566322326660156e-05, 3.16796875) (-5.3655616760253906e-05, 3.169921875) (-5.3719188690185545e-05, 3.171875) (-5.3754795074462885e-05, 3.173828125) (-5.376027679443359e-05, 3.17578125) (-5.373353576660156e-05, 3.177734375) (-5.367259216308594e-05, 3.1796875) (-5.3575565338134767e-05, 3.181640625) (-5.3440681457519527e-05, 3.18359375) (-5.326631164550781e-05, 3.185546875) (-5.3050968170166015e-05, 3.1875) (-5.2793342590332026e-05, 3.189453125) (-5.249231719970703e-05, 3.19140625) (-5.214704132080078e-05, 3.193359375) (-5.175688934326172e-05, 3.1953125) (-5.1321506500244136e-05, 3.197265625) (-5.0840736389160154e-05, 3.19921875) (-5.0314640045166016e-05, 3.201171875) (-4.974344253540039e-05, 3.203125) (-4.9127548217773436e-05, 3.205078125) (-4.8467514038085937e-05, 3.20703125) (-4.7764057159423826e-05, 3.208984375) (-4.7018039703369135e-05, 3.2109375) (-4.6230529785156245e-05, 3.212890625) (-4.540283584594726e-05, 3.21484375) (-4.453653717041015e-05, 3.216796875) (-4.363354873657226e-05, 3.21875) (-4.269611358642578e-05, 3.220703125) (-4.172677612304687e-05, 3.22265625) (-4.072836685180664e-05, 3.224609375) (-3.9703956604003905e-05, 3.2265625) (-3.865680694580078e-05, 3.228515625) (-3.75903091430664e-05, 3.23046875) (-3.650794601440429e-05, 3.232421875) (-3.541318130493164e-05, 3.234375) (-3.430949783325195e-05, 3.236328125) (-3.320038223266602e-05, 3.23828125) (-3.2089286804199216e-05, 3.240234375) (-3.097964096069336e-05, 3.2421875) (-2.9874782562255857e-05, 3.244140625) (-2.87779541015625e-05, 3.24609375) (-2.7692235946655272e-05, 3.248046875) (-2.662055206298828e-05, 3.25) (-2.5565526962280273e-05, 3.251953125) (-2.4529470443725586e-05, 3.25390625) (-2.3514339447021485e-05, 3.255859375) (-2.2521694183349607e-05, 3.2578125) (-2.1552764892578125e-05, 3.259765625) (-2.060848617553711e-05, 3.26171875) (-1.9689512252807616e-05, 3.263671875) (-1.8796291351318357e-05, 3.265625) (-1.7929088592529296e-05, 3.267578125) (-1.708797073364258e-05, 3.26953125) (-1.6272842407226562e-05, 3.271484375) (-1.548344326019287e-05, 3.2734375) (-1.4719236373901366e-05, 3.275390625) (-1.3979407310485839e-05, 3.27734375) (-1.3262810707092285e-05, 3.279296875) (-1.2567892074584961e-05, 3.28125) (-1.1892767906188965e-05, 3.283203125) (-1.123528480529785e-05, 3.28515625) (-1.0592988967895508e-05, 3.287109375) (-9.9631929397583e-06, 3.2890625) (-9.343118667602539e-06, 3.291015625) (-8.729847908020018e-06, 3.29296875) (-8.120427131652832e-06, 3.294921875) (-7.511948108673095e-06, 3.296875) (-6.901408195495605e-06, 3.298828125) (-6.285717487335205e-06, 3.30078125) (-5.661781311035156e-06, 3.302734375) (-5.026468753814697e-06, 3.3046875) (-4.376637458801269e-06, 3.306640625) (-3.709243059158325e-06, 3.30859375) (-3.0212955474853514e-06, 3.310546875) (-2.309907913208008e-06, 3.3125) (-1.5725610256195067e-06, 3.314453125) (-8.070960640907288e-07, 3.31640625) (-1.1756949126720428e-08, 3.318359375) (8.147522211074829e-07, 3.3203125) (1.6734552383422852e-06, 3.322265625) (2.5651097297668454e-06, 3.32421875) (3.49017333984375e-06, 3.326171875) (4.448932647705078e-06, 3.328125) (5.441541194915771e-06, 3.330078125) (6.467928886413574e-06, 3.33203125) (7.527931213378906e-06, 3.333984375) (8.621254920959473e-06, 3.3359375) (9.74718952178955e-06, 3.337890625) (1.0904727935791015e-05, 3.33984375) (1.2092513084411621e-05, 3.341796875) (1.3308639526367187e-05, 3.34375) (1.4550893783569335e-05, 3.345703125) (1.5816869735717774e-05, 3.34765625) (1.7103771209716797e-05, 3.349609375) (1.8408544540405274e-05, 3.3515625) (1.9728126525878904e-05, 3.353515625) (2.1059167861938477e-05, 3.35546875) (2.2398164749145507e-05, 3.357421875) (2.3741588592529295e-05, 3.359375) (2.5085458755493162e-05, 3.361328125) (2.6425329208374024e-05, 3.36328125) (2.7756473541259763e-05, 3.365234375) (2.907377243041992e-05, 3.3671875) (3.0371585845947266e-05, 3.369140625) (3.164394760131836e-05, 3.37109375) (3.288440704345703e-05, 3.373046875) (3.4085987091064454e-05, 3.375) (3.52418098449707e-05, 3.376953125) (3.6345085144042965e-05, 3.37890625) (3.738883590698242e-05, 3.380859375) (3.836600875854492e-05, 3.3828125) (3.926959991455078e-05, 3.384765625) (4.009260559082031e-05, 3.38671875) (4.082846450805664e-05, 3.388671875) (4.147119903564453e-05, 3.390625) (4.201432800292969e-05, 3.392578125) (4.245113372802734e-05, 3.39453125) (4.277510070800781e-05, 3.396484375) (4.297964096069336e-05, 3.3984375) (4.305878067016601e-05, 3.400390625) (4.300714111328125e-05, 3.40234375) (4.281880950927734e-05, 3.404296875) (4.248777389526367e-05, 3.40625) (4.20093994140625e-05, 3.408203125) (4.137952423095703e-05, 3.41015625) (4.059615325927734e-05, 3.412109375) (3.9660186767578125e-05, 3.4140625) (3.857119369506836e-05, 3.416015625) (3.7328964233398434e-05, 3.41796875) (3.593366241455078e-05, 3.419921875) (3.438313293457031e-05, 3.421875) (3.2677989959716794e-05, 3.423828125) (3.08229808807373e-05, 3.42578125) (2.8821651458740232e-05, 3.427734375) (2.6678369522094724e-05, 3.4296875) (2.440269660949707e-05, 3.431640625) (2.2005781173706054e-05, 3.43359375) (1.9506431579589845e-05, 3.435546875) (1.693415069580078e-05, 3.4375) (1.4315503120422363e-05, 3.439453125) (1.1676058769226075e-05, 3.44140625) (9.040790557861328e-06, 3.443359375) (6.4276418685913085e-06, 3.4453125) (3.858923912048339e-06, 3.447265625) (1.3612645864486694e-06, 3.44921875) (-1.0413411855697632e-06, 3.451171875) (-3.320131778717041e-06, 3.453125) (-5.447231292724609e-06, 3.455078125) (-7.403968811035156e-06, 3.45703125) (-9.165155410766602e-06, 3.458984375) (-1.0703163146972656e-05, 3.4609375) (-1.2008322715759276e-05, 3.462890625) (-1.3076519012451172e-05, 3.46484375) (-1.3924460411071777e-05, 3.466796875) (-1.4604591369628906e-05, 3.46875) (-1.5164731979370116e-05, 3.470703125) (-1.5650161743164063e-05, 3.47265625) (-1.6108036041259765e-05, 3.474609375) (-1.656302261352539e-05, 3.4765625) (-1.704998016357422e-05, 3.478515625) (-1.762649154663086e-05, 3.48046875) (-1.834405517578125e-05, 3.482421875) (-1.926521301269531e-05, 3.484375) (-2.0452375411987304e-05, 3.486328125) (-2.1930814743041992e-05, 3.48828125) (-2.3764652252197265e-05, 3.490234375) (-2.606275177001953e-05, 3.4921875) (-2.885012626647949e-05, 3.494140625) (-3.2082633972167964e-05, 3.49609375) (-3.559306335449219e-05, 3.498046875) (-3.902960968017578e-05, 3.5) (-4.206488800048828e-05, 3.501953125) (-4.446170425415039e-05, 3.50390625) (-4.592253494262695e-05, 3.505859375) (-4.61257209777832e-05, 3.5078125) (-4.486561584472656e-05, 3.509765625) (-4.205629730224609e-05, 3.51171875) (-3.7973011016845704e-05, 3.513671875) (-3.328485107421875e-05, 3.515625) (-2.862539482116699e-05, 3.517578125) (-2.446689224243164e-05, 3.51953125) (-2.1186607360839844e-05, 3.521484375) (-1.9098800659179685e-05, 3.5234375) (-1.8393190383911132e-05, 3.525390625) (-1.8988235473632812e-05, 3.52734375) (-2.013003158569336e-05, 3.529296875) (-2.036188507080078e-05, 3.53125) (-1.8068565368652343e-05, 3.533203125) (-1.181513214111328e-05, 3.53515625) (-3.099614381790161e-07, 3.537109375) (1.784037399291992e-05, 3.5390625) (4.392806243896484e-05, 3.541015625) (7.889622497558593e-05, 3.54296875) (0.00012216375732421875, 3.544921875) (0.00017133396911621094, 3.546875) (0.00022391009521484373, 3.548828125) (0.00027802459716796875, 3.55078125) (0.0003336260681152344, 3.552734375) (0.0003913343811035156, 3.5546875) (0.0004491381225585937, 3.556640625) (0.0005013615112304687, 3.55859375) (0.0005387008666992187, 3.560546875) (0.0005520596923828125, 3.5625) (0.000536969482421875, 3.564453125) (0.0004956710205078125, 3.56640625) (0.00043692651367187497, 3.568359375) (0.0003698785705566406, 3.5703125) (0.00030032525634765626, 3.572265625) (0.00022855360412597656, 3.57421875) (0.00014939012145996094, 3.576171875) (6.103657531738281e-05, 3.578125) (-3.277009582519531e-05, 3.580078125) (-0.0001223412857055664, 3.58203125) (-0.00019303736877441404, 3.583984375) (-0.00023668487548828124, 3.5859375) (-0.00025286569213867186, 3.587890625) (-0.0002478960723876953, 3.58984375) (-0.0002338285675048828, 3.591796875) (-0.00021830404663085936, 3.59375) (-0.0002045037841796875, 3.595703125) (-0.0001927497100830078, 3.59765625) (-0.00018015951538085938, 3.599609375) (-0.00016646151733398437, 3.6015625) (-0.00015316407775878906, 3.603515625) (-0.0001415863037109375, 3.60546875) (-0.0001338408660888672, 3.607421875) (-0.00013053559875488282, 3.609375) (-0.00013053236389160155, 3.611328125) (-0.000132630126953125, 3.61328125) (-0.0001352442169189453, 3.615234375) (-0.00013667332458496093, 3.6171875) (-0.0001362412109375, 3.619140625) (-0.00013366815185546875, 3.62109375) (-0.00012857809448242187, 3.623046875) (-0.0001210677490234375, 3.625) (-0.00011150392150878905, 3.626953125) (-0.00010029739379882812, 3.62890625) (-8.827265930175781e-05, 3.630859375) (-7.646002197265625e-05, 3.6328125) (-6.543831634521484e-05, 3.634765625) (-5.555793762207031e-05, 3.63671875) (-4.7131526947021486e-05, 3.638671875) (-4.018636322021484e-05, 3.640625) (-3.4696979522705075e-05, 3.642578125) (-3.064376258850098e-05, 3.64453125) (-2.7778528213500975e-05, 3.646484375) (-2.575359535217285e-05, 3.6484375) (-2.4347095489501952e-05, 3.650390625) (-2.33875789642334e-05, 3.65234375) (-2.273582077026367e-05, 3.654296875) (-2.2350399017333983e-05, 3.65625) (-2.2182674407958985e-05, 3.658203125) (-2.2165937423706055e-05, 3.66015625) (-2.228636932373047e-05, 3.662109375) (-2.2527790069580078e-05, 3.6640625) (-2.283525466918945e-05, 3.666015625) (-2.3158401489257812e-05, 3.66796875) (-2.3442882537841794e-05, 3.669921875) (-2.3619567871093748e-05, 3.671875) (-2.36362190246582e-05, 3.673828125) (-2.3443099975585938e-05, 3.67578125) (-2.2983217239379883e-05, 3.677734375) (-2.223227882385254e-05, 3.6796875) (-2.1196338653564452e-05, 3.681640625) (-1.9890518188476562e-05, 3.68359375) (-1.8344491958618163e-05, 3.685546875) (-1.6584733963012694e-05, 3.6875) (-1.4621986389160155e-05, 3.689453125) (-1.2472075462341308e-05, 3.69140625) (-1.015817642211914e-05, 3.693359375) (-7.706661224365233e-06, 3.6953125) (-5.1524090766906735e-06, 3.697265625) (-2.5251080989837645e-06, 3.69921875) (1.5402126312255857e-07, 3.701171875) (2.855591773986816e-06, 3.703125) (5.542969703674316e-06, 3.705078125) (8.171753883361816e-06, 3.70703125) (1.0691271781921387e-05, 3.708984375) (1.307130241394043e-05, 3.7109375) (1.5302742958068846e-05, 3.712890625) (1.7382564544677733e-05, 3.71484375) (1.9315210342407226e-05, 3.716796875) (2.1105665206909178e-05, 3.71875) (2.2756210327148436e-05, 3.720703125) (2.4277835845947263e-05, 3.72265625) (2.5689239501953125e-05, 3.724609375) (2.7006771087646485e-05, 3.7265625) (2.824650192260742e-05, 3.728515625) (2.942206573486328e-05, 3.73046875) (3.054323959350586e-05, 3.732421875) (3.162654685974121e-05, 3.734375) (3.2694236755371095e-05, 3.736328125) (3.3771320343017574e-05, 3.73828125) (3.488562774658203e-05, 3.740234375) (3.6057151794433594e-05, 3.7421875) (3.7297439575195314e-05, 3.744140625) (3.8616027832031246e-05, 3.74609375) (4.00195426940918e-05, 3.748046875) (4.151228332519531e-05, 3.75) (4.3097187042236325e-05, 3.751953125) (4.477224731445312e-05, 3.75390625) (4.653118133544922e-05, 3.755859375) (4.837019348144531e-05, 3.7578125) (5.028743743896484e-05, 3.759765625) (5.2281501770019526e-05, 3.76171875) (5.4351993560791015e-05, 3.763671875) (5.649590301513671e-05, 3.765625) (5.870793151855469e-05, 3.767578125) (6.0982528686523434e-05, 3.76953125) (6.331349563598632e-05, 3.771484375) (6.569489288330078e-05, 3.7734375) (6.812128448486327e-05, 3.775390625) (7.058673858642578e-05, 3.77734375) (7.308506774902343e-05, 3.779296875) (7.561061859130859e-05, 3.78125) (7.815789031982422e-05, 3.783203125) (8.072181701660156e-05, 3.78515625) (8.329784393310546e-05, 3.787109375) (8.588016510009765e-05, 3.7890625) (8.846200561523437e-05, 3.791015625) (9.103622436523437e-05, 3.79296875) (9.359513092041015e-05, 3.794921875) (9.613098907470703e-05, 3.796875) (9.863612365722656e-05, 3.798828125) (0.00010110244750976562, 3.80078125) (0.00010352165222167969, 3.802734375) (0.00010588592529296874, 3.8046875) (0.00010818778991699218, 3.806640625) (0.00011041999053955077, 3.80859375) (0.0001125755615234375, 3.810546875) (0.00011464765167236328, 3.8125) (0.00011662965393066405, 3.814453125) (0.00011851530456542968, 3.81640625) (0.00012029871368408203, 3.818359375) (0.00012197410583496093, 3.8203125) (0.00012353590393066405, 3.822265625) (0.0001249788131713867, 3.82421875) (0.00012629786682128905, 3.826171875) (0.00012748846435546875, 3.828125) (0.00012854627990722655, 3.830078125) (0.00012946725463867188, 3.83203125) (0.0001302475891113281, 3.833984375) (0.00013088383483886719, 3.8359375) (0.00013137301635742188, 3.837890625) (0.00013171255493164063, 3.83984375) (0.00013190025329589842, 3.841796875) (0.000131934326171875, 3.84375) (0.00013181338500976563, 3.845703125) (0.0001315365295410156, 3.84765625) (0.00013110330200195313, 3.849609375) (0.0001305138244628906, 3.8515625) (0.00012976869201660157, 3.853515625) (0.00012886891174316407, 3.85546875) (0.0001278159637451172, 3.857421875) (0.00012661181640625, 3.859375) (0.0001252588882446289, 3.861328125) (0.00012376010131835938, 3.86328125) (0.0001221188507080078, 3.865234375) (0.00012033883666992187, 3.8671875) (0.00011842405700683593, 3.869140625) (0.00011637887573242187, 3.87109375) (0.00011420797729492187, 3.873046875) (0.00011191632843017577, 3.875) (0.00010950914001464843, 3.876953125) (0.00010699180603027343, 3.87890625) (0.00010436990356445312, 3.880859375) (0.00010164923095703124, 3.8828125) (9.883580017089844e-05, 3.884765625) (9.593585205078124e-05, 3.88671875) (9.295575714111328e-05, 3.888671875) (8.990203857421875e-05, 3.890625) (8.67813720703125e-05, 3.892578125) (8.360055541992187e-05, 3.89453125) (8.036650848388672e-05, 3.896484375) (7.708618927001953e-05, 3.8984375) (7.376655578613281e-05, 3.900390625) (7.041450500488281e-05, 3.90234375) (6.703684997558594e-05, 3.904296875) (6.364029693603515e-05, 3.90625) (6.023139953613281e-05, 3.908203125) (5.6816566467285154e-05, 3.91015625) (5.340200805664062e-05, 3.912109375) (4.999371719360351e-05, 3.9140625) (4.659748840332031e-05, 3.916015625) (4.321891784667969e-05, 3.91796875) (3.9863388061523434e-05, 3.919921875) (3.653602600097656e-05, 3.921875) (3.324171829223633e-05, 3.923828125) (2.9985074996948242e-05, 3.92578125) (2.6770433425903318e-05, 3.927734375) (2.360190963745117e-05, 3.9296875) (2.04833927154541e-05, 3.931640625) (1.741853332519531e-05, 3.93359375) (1.4410785675048828e-05, 3.935546875) (1.1463406562805176e-05, 3.9375) (8.579498291015624e-06, 3.939453125) (5.7620253562927246e-06, 3.94140625) (3.0137948989868164e-06, 3.943359375) (3.3743849396705627e-07, 3.9453125) (-2.2646136283874513e-06, 3.947265625) (-4.790150165557861e-06, 3.94921875) (-7.237186431884765e-06, 3.951171875) (-9.60396957397461e-06, 3.953125) (-1.1888992309570312e-05, 3.955078125) (-1.4090983390808105e-05, 3.95703125) (-1.6208906173706054e-05, 3.958984375) (-1.8241926193237302e-05, 3.9609375) (-2.0189374923706054e-05, 3.962890625) (-2.2050718307495116e-05, 3.96484375) (-2.3825553894042967e-05, 3.966796875) (-2.551361846923828e-05, 3.96875) (-2.711478042602539e-05, 3.970703125) (-2.8629047393798826e-05, 3.97265625) (-3.0056549072265622e-05, 3.974609375) (-3.1397546768188476e-05, 3.9765625) (-3.265244293212891e-05, 3.978515625) (-3.382179260253906e-05, 3.98046875) (-3.4906272888183595e-05, 3.982421875) (-3.590670013427734e-05, 3.984375) (-3.6823966979980466e-05, 3.986328125) (-3.7659103393554684e-05, 3.98828125) (-3.841322326660156e-05, 3.990234375) (-3.9087615966796876e-05, 3.9921875) (-3.968371200561523e-05, 3.994140625) (-4.020314025878906e-05, 3.99609375) (-4.064772415161133e-05, 3.998046875) (-4.1019489288330075e-05, 4.0) (-4.1320693969726564e-05, 4.001953125) (-4.155381774902344e-05, 4.00390625) (-4.172152709960937e-05, 4.005859375) (-4.182669067382812e-05, 4.0078125) (-4.187225341796875e-05, 4.009765625) (-4.186127471923828e-05, 4.01171875) (-4.1796875e-05, 4.013671875) (-4.168224334716797e-05, 4.015625) (-4.152059173583984e-05, 4.017578125) (-4.131519317626953e-05, 4.01953125) (-4.1069339752197265e-05, 4.021484375) (-4.078635406494141e-05, 4.0234375) (-4.046961212158203e-05, 4.025390625) (-4.0122528076171875e-05, 4.02734375) (-3.974854278564453e-05, 4.029296875) (-3.935110473632812e-05, 4.03125) (-3.893363571166992e-05, 4.033203125) (-3.849947738647461e-05, 4.03515625) (-3.8051925659179684e-05, 4.037109375) (-3.759421920776367e-05, 4.0390625) (-3.712949752807617e-05, 4.041015625) (-3.6660831451416016e-05, 4.04296875) (-3.619120025634766e-05, 4.044921875) (-3.5723495483398434e-05, 4.046875) (-3.526052093505859e-05, 4.048828125) (-3.480500030517578e-05, 4.05078125) (-3.4359554290771486e-05, 4.052734375) (-3.39266357421875e-05, 4.0546875) (-3.3508522033691406e-05, 4.056640625) (-3.3107265472412106e-05, 4.05859375) (-3.272469329833984e-05, 4.060546875) (-3.2362396240234376e-05, 4.0625) (-3.2021739959716795e-05, 4.064453125) (-3.17038459777832e-05, 4.06640625) (-3.140962600708007e-05, 4.068359375) (-3.1139797210693355e-05, 4.0703125) (-3.0894931793212887e-05, 4.072265625) (-3.067546653747558e-05, 4.07421875) (-3.0481719970703124e-05, 4.076171875) (-3.0313875198364257e-05, 4.078125) (-3.0171966552734374e-05, 4.080078125) (-3.0055866241455078e-05, 4.08203125) (-2.996531295776367e-05, 4.083984375) (-2.9899898529052733e-05, 4.0859375) (-2.9859069824218747e-05, 4.087890625) (-2.9842134475708008e-05, 4.08984375) (-2.9848283767700194e-05, 4.091796875) (-2.9876609802246093e-05, 4.09375) (-2.9926158905029297e-05, 4.095703125) (-2.9995922088623047e-05, 4.09765625) (-3.0084884643554685e-05, 4.099609375) (-3.019198989868164e-05, 4.1015625) (-3.0316131591796873e-05, 4.103515625) (-3.0456159591674804e-05, 4.10546875) (-3.0610872268676756e-05, 4.107421875) (-3.077903747558594e-05, 4.109375) (-3.095939064025879e-05, 4.111328125) (-3.115062713623047e-05, 4.11328125) (-3.135145187377929e-05, 4.115234375) (-3.156056976318359e-05, 4.1171875) (-3.1776760101318355e-05, 4.119140625) (-3.1998872756958006e-05, 4.12109375) (-3.222584533691406e-05, 4.123046875) (-3.245669174194336e-05, 4.125) (-3.2690475463867185e-05, 4.126953125) (-3.292628479003906e-05, 4.12890625) (-3.316326141357422e-05, 4.130859375) (-3.340053176879883e-05, 4.1328125) (-3.363724517822266e-05, 4.134765625) (-3.387252807617187e-05, 4.13671875) (-3.410550689697265e-05, 4.138671875) (-3.433534622192383e-05, 4.140625) (-3.4561271667480466e-05, 4.142578125) (-3.478261184692383e-05, 4.14453125) (-3.499879837036133e-05, 4.146484375) (-3.520938110351562e-05, 4.1484375) (-3.541398239135742e-05, 4.150390625) (-3.561229705810547e-05, 4.15234375) (-3.580411529541015e-05, 4.154296875) (-3.598929595947265e-05, 4.15625) (-3.6167724609375e-05, 4.158203125) (-3.633933639526367e-05, 4.16015625) (-3.6504066467285155e-05, 4.162109375) (-3.6661857604980466e-05, 4.1640625) (-3.681275939941406e-05, 4.166015625) (-3.695690155029297e-05, 4.16796875) (-3.7094501495361325e-05, 4.169921875) (-3.722585296630859e-05, 4.171875) (-3.735130310058593e-05, 4.173828125) (-3.747121047973633e-05, 4.17578125) (-3.758598327636719e-05, 4.177734375) (-3.7696037292480464e-05, 4.1796875) (-3.780177688598633e-05, 4.181640625) (-3.790358734130859e-05, 4.18359375) (-3.800185012817383e-05, 4.185546875) (-3.809688568115234e-05, 4.1875) (-3.818906402587891e-05, 4.189453125) (-3.827882385253906e-05, 4.19140625) (-3.8366691589355464e-05, 4.193359375) (-3.8453292846679685e-05, 4.1953125) (-3.853932952880859e-05, 4.197265625) (-3.862549972534179e-05, 4.19921875) (-3.871259689331055e-05, 4.201171875) (-3.8801425933837886e-05, 4.203125) (-3.8892749786376954e-05, 4.205078125) (-3.898724365234375e-05, 4.20703125) (-3.908548355102539e-05, 4.208984375) (-3.9187850952148436e-05, 4.2109375) (-3.929472351074218e-05, 4.212890625) (-3.940644454956054e-05, 4.21484375) (-3.952323913574219e-05, 4.216796875) (-3.964528274536133e-05, 4.21875) (-3.977272796630859e-05, 4.220703125) (-3.99056396484375e-05, 4.22265625) (-4.004413223266601e-05, 4.224609375) (-4.018832778930664e-05, 4.2265625) (-4.033817291259766e-05, 4.228515625) (-4.049342346191406e-05, 4.23046875) (-4.0653743743896485e-05, 4.232421875) (-4.081853866577148e-05, 4.234375) (-4.098713684082031e-05, 4.236328125) (-4.115881729125976e-05, 4.23828125) (-4.1332740783691404e-05, 4.240234375) (-4.150797271728515e-05, 4.2421875) (-4.168352127075195e-05, 4.244140625) (-4.185828399658203e-05, 4.24609375) (-4.203113555908203e-05, 4.248046875) (-4.220105361938476e-05, 4.25) (-4.2366943359375e-05, 4.251953125) (-4.2527580261230464e-05, 4.25390625) (-4.268163299560547e-05, 4.255859375) (-4.2827514648437495e-05, 4.2578125) (-4.296362686157226e-05, 4.259765625) (-4.308839416503906e-05, 4.26171875) (-4.3200099945068355e-05, 4.263671875) (-4.329692459106445e-05, 4.265625) (-4.337708282470703e-05, 4.267578125) (-4.343880462646484e-05, 4.26953125) (-4.3480476379394527e-05, 4.271484375) (-4.350075531005859e-05, 4.2734375) (-4.349817657470703e-05, 4.275390625) (-4.347114181518554e-05, 4.27734375) (-4.341822814941406e-05, 4.279296875) (-4.3338005065917965e-05, 4.28125) (-4.3228847503662105e-05, 4.283203125) (-4.3089035034179686e-05, 4.28515625) (-4.291654586791992e-05, 4.287109375) (-4.27088623046875e-05, 4.2890625) (-4.24638671875e-05, 4.291015625) (-4.21797866821289e-05, 4.29296875) (-4.185486984252929e-05, 4.294921875) (-4.148768234252929e-05, 4.296875) (-4.107723999023437e-05, 4.298828125) (-4.0622695922851564e-05, 4.30078125) (-4.012391662597656e-05, 4.302734375) (-3.9581771850585934e-05, 4.3046875) (-3.899686431884766e-05, 4.306640625) (-3.8369644165039064e-05, 4.30859375) (-3.770048904418945e-05, 4.310546875) (-3.698873901367187e-05, 4.3125) (-3.6233554840087886e-05, 4.314453125) (-3.543451690673828e-05, 4.31640625) (-3.459084320068359e-05, 4.318359375) (-3.370147705078125e-05, 4.3203125) (-3.276543426513672e-05, 4.322265625) (-3.1781038284301754e-05, 4.32421875) (-3.074758911132812e-05, 4.326171875) (-2.966688537597656e-05, 4.328125) (-2.854001998901367e-05, 4.330078125) (-2.7367624282836913e-05, 4.33203125) (-2.6149074554443358e-05, 4.333984375) (-2.488080596923828e-05, 4.3359375) (-2.356208038330078e-05, 4.337890625) (-2.219638442993164e-05, 4.33984375) (-2.0788145065307617e-05, 4.341796875) (-1.9343400955200195e-05, 4.34375) (-1.7871065139770506e-05, 4.345703125) (-1.6380199432373047e-05, 4.34765625) (-1.4884193420410156e-05, 4.349609375) (-1.3404054641723631e-05, 4.3515625) (-1.1958498001098633e-05, 4.353515625) (-1.0565253257751464e-05, 4.35546875) (-9.239835739135742e-06, 4.357421875) (-7.987727642059326e-06, 4.359375) (-6.813819885253906e-06, 4.361328125) (-5.7246675491333005e-06, 4.36328125) (-4.726220607757568e-06, 4.365234375) (-3.8259460926055904e-06, 4.3671875) (-3.02532958984375e-06, 4.369140625) (-2.3137080669403076e-06, 4.37109375) (-1.6769973039627074e-06, 4.373046875) (-1.1048413515090943e-06, 4.375) (-5.820308327674865e-07, 4.376953125) (-9.378589689731597e-08, 4.37890625) (3.8122648000717164e-07, 4.380859375) (8.824768066406249e-07, 4.3828125) (1.4416865110397339e-06, 4.384765625) (2.0811686515808105e-06, 4.38671875) (2.8171751499176025e-06, 4.388671875) (3.6453022956848143e-06, 4.390625) (4.554028987884521e-06, 4.392578125) (5.533999443054199e-06, 4.39453125) (6.5695915222167965e-06, 4.396484375) (7.637520313262939e-06, 4.3984375) (8.707048416137695e-06, 4.400390625) (9.72722053527832e-06, 4.40234375) (1.0638775825500488e-05, 4.404296875) (1.1395910263061523e-05, 4.40625) (1.1948723793029785e-05, 4.408203125) (1.2249842643737792e-05, 4.41015625) (1.224959373474121e-05, 4.412109375) (1.1876270294189452e-05, 4.4140625) (1.1071369171142577e-05, 4.416015625) (9.79939842224121e-06, 4.41796875) (8.03876495361328e-06, 4.419921875) (5.7966237068176264e-06, 4.421875) (3.0992486476898193e-06, 4.423828125) (-2.8233170509338378e-08, 4.42578125) (-3.5487198829650877e-06, 4.427734375) (-7.404951095581054e-06, 4.4296875) (-1.1533170700073242e-05, 4.431640625) (-1.5845268249511716e-05, 4.43359375) (-2.0239824295043945e-05, 4.435546875) (-2.463312530517578e-05, 4.4375) (-2.8938159942626953e-05, 4.439453125) (-3.3070465087890624e-05, 4.44140625) (-3.694796752929687e-05, 4.443359375) (-4.047237396240234e-05, 4.4453125) (-4.355928039550781e-05, 4.447265625) (-4.6159523010253903e-05, 4.44921875) (-4.824922943115234e-05, 4.451171875) (-4.983406829833984e-05, 4.453125) (-5.0949840545654295e-05, 4.455078125) (-5.1626647949218744e-05, 4.45703125) (-5.189937591552734e-05, 4.458984375) (-5.183477401733398e-05, 4.4609375) (-5.151162719726562e-05, 4.462890625) (-5.103266906738281e-05, 4.46484375) (-5.05164794921875e-05, 4.466796875) (-5.006352615356445e-05, 4.46875) (-4.975687789916992e-05, 4.470703125) (-4.969770812988281e-05, 4.47265625) (-5.0023643493652344e-05, 4.474609375) (-5.082952880859375e-05, 4.4765625) (-5.214656829833984e-05, 4.478515625) (-5.3909854888916014e-05, 4.48046875) (-5.5908180236816405e-05, 4.482421875) (-5.791447830200195e-05, 4.484375) (-5.975720596313476e-05, 4.486328125) (-6.121055603027344e-05, 4.48828125) (-6.197804260253906e-05, 4.490234375) (-6.18617706298828e-05, 4.4921875) (-6.071730804443359e-05, 4.494140625) (-5.8559425354003904e-05, 4.49609375) (-5.580597686767578e-05, 4.498046875) (-5.284641647338867e-05, 4.5) (-4.986946105957031e-05, 4.501953125) (-4.716197967529297e-05, 4.50390625) (-4.490718841552734e-05, 4.505859375) (-4.308473968505859e-05, 4.5078125) (-4.176766967773437e-05, 4.509765625) (-4.070932769775391e-05, 4.51171875) (-3.8915554046630856e-05, 4.513671875) (-3.538547897338867e-05, 4.515625) (-2.9204465866088867e-05, 4.517578125) (-1.9204124450683592e-05, 4.51953125) (-4.574036121368408e-06, 4.521484375) (1.5386850357055663e-05, 4.5234375) (4.172411346435547e-05, 4.525390625) (7.495216369628906e-05, 4.52734375) (0.00011486052703857421, 4.529296875) (0.00016088394165039062, 4.53125) (0.00021174510192871094, 4.533203125) (0.00026573764038085934, 4.53515625) (0.000320454345703125, 4.537109375) (0.000372919921875, 4.5390625) (0.00042054391479492184, 4.541015625) (0.00046019201660156247, 4.54296875) (0.0004903070068359375, 4.544921875) (0.0005099149780273438, 4.546875) (0.000515068603515625, 4.548828125) (0.0005032222900390624, 4.55078125) (0.0004714659118652344, 4.552734375) (0.00041744381713867187, 4.5546875) (0.0003459399719238281, 4.556640625) (0.0002622954711914062, 4.55859375) (0.00017216835021972656, 4.560546875) (8.253899383544921e-05, 4.5625) (-4.291509628295898e-06, 4.564453125) (-8.578363037109375e-05, 4.56640625) (-0.0001581771240234375, 4.568359375) (-0.00021939236450195312, 4.5703125) (-0.0002666066284179687, 4.572265625) (-0.00029816949462890623, 4.57421875) (-0.00031472442626953123, 4.576171875) (-0.0003172521362304687, 4.578125) (-0.00030754022216796873, 4.580078125) (-0.000288523193359375, 4.58203125) (-0.000263171875, 4.583984375) (-0.00023456671142578123, 4.5859375) (-0.00020584336853027342, 4.587890625) (-0.0001792461700439453, 4.58984375) (-0.00015645176696777344, 4.591796875) (-0.00013882608032226562, 4.59375) (-0.0001268384246826172, 4.595703125) (-0.00012011389923095702, 4.59765625) (-0.00011785108184814452, 4.599609375) (-0.00011868408966064453, 4.6015625) (-0.00012101843261718749, 4.603515625) (-0.00012359156799316405, 4.60546875) (-0.00012510396575927734, 4.607421875) (-0.0001244491729736328, 4.609375) (-0.00012119610595703124, 4.611328125) (-0.00011530457305908203, 4.61328125) (-0.00010708274841308593, 4.615234375) (-9.726873016357422e-05, 4.6171875) (-8.666084289550781e-05, 4.619140625) (-7.600778961181641e-05, 4.62109375) (-6.619301605224609e-05, 4.623046875) (-5.788233947753906e-05, 4.625) (-5.1364681243896484e-05, 4.626953125) (-4.676127624511718e-05, 4.62890625) (-4.396015548706054e-05, 4.630859375) (-4.2668945312499996e-05, 4.6328125) (-4.2604049682617186e-05, 4.634765625) (-4.343018341064453e-05, 4.63671875) (-4.4736671447753903e-05, 4.638671875) (-4.6237018585205076e-05, 4.640625) (-4.7772590637207026e-05, 4.642578125) (-4.9226432800292966e-05, 4.64453125) (-5.055108642578125e-05, 4.646484375) (-5.171411895751953e-05, 4.6484375) (-5.2657306671142576e-05, 4.650390625) (-5.3348545074462886e-05, 4.65234375) (-5.378142166137695e-05, 4.654296875) (-5.392042922973633e-05, 4.65625) (-5.371474075317383e-05, 4.658203125) (-5.31323127746582e-05, 4.66015625) (-5.21534423828125e-05, 4.662109375) (-5.078992462158203e-05, 4.6640625) (-4.908798217773437e-05, 4.666015625) (-4.709481048583984e-05, 4.66796875) (-4.485480499267578e-05, 4.669921875) (-4.241497802734375e-05, 4.671875) (-3.981579971313476e-05, 4.673828125) (-3.709799957275391e-05, 4.67578125) (-3.4310264587402344e-05, 4.677734375) (-3.1492296218872066e-05, 4.6796875) (-2.8674205780029295e-05, 4.681640625) (-2.589148712158203e-05, 4.68359375) (-2.3178827285766602e-05, 4.685546875) (-2.057711029052734e-05, 4.6875) (-1.813771629333496e-05, 4.689453125) (-1.5892415046691893e-05, 4.69140625) (-1.3851402282714844e-05, 4.693359375) (-1.2015776634216308e-05, 4.6953125) (-1.0374250411987305e-05, 4.697265625) (-8.91233730316162e-06, 4.69921875) (-7.617667198181152e-06, 4.701171875) (-6.470884799957275e-06, 4.703125) (-5.447156906127929e-06, 4.705078125) (-4.525435447692871e-06, 4.70703125) (-3.685723066329956e-06, 4.708984375) (-2.9112143516540524e-06, 4.7109375) (-2.190222978591919e-06, 4.712890625) (-1.505300998687744e-06, 4.71484375) (-8.348276615142822e-07, 4.716796875) (-1.5430879592895507e-07, 4.71875) (5.657498240470886e-07, 4.720703125) (1.348002552986145e-06, 4.72265625) (2.206937789916992e-06, 4.724609375) (3.1549792289733886e-06, 4.7265625) (4.200982093811035e-06, 4.728515625) (5.351207733154297e-06, 4.73046875) (6.61130142211914e-06, 4.732421875) (7.982226848602295e-06, 4.734375) (9.459959030151366e-06, 4.736328125) (1.1042734146118164e-05, 4.73828125) (1.2730639457702637e-05, 4.740234375) (1.4524087905883788e-05, 4.7421875) (1.6424848556518553e-05, 4.744140625) (1.843203544616699e-05, 4.74609375) (2.054189109802246e-05, 4.748046875) (2.2749841690063477e-05, 4.75) (2.5050140380859375e-05, 4.751953125) (2.7436777114868162e-05, 4.75390625) (2.990377044677734e-05, 4.755859375) (3.2444175720214844e-05, 4.7578125) (3.505029296875e-05, 4.759765625) (3.7714630126953124e-05, 4.76171875) (4.042969512939453e-05, 4.763671875) (4.3188404083251954e-05, 4.765625) (4.598423385620117e-05, 4.767578125) (4.880940628051758e-05, 4.76953125) (5.165508270263672e-05, 4.771484375) (5.451197814941406e-05, 4.7734375) (5.737020111083984e-05, 4.775390625) (6.021974182128906e-05, 4.77734375) (6.305055999755859e-05, 4.779296875) (6.585212707519532e-05, 4.78125) (6.861351013183593e-05, 4.783203125) (7.132414245605468e-05, 4.78515625) (7.397389221191406e-05, 4.787109375) (7.655296325683593e-05, 4.7890625) (7.905194091796874e-05, 4.791015625) (8.14616241455078e-05, 4.79296875) (8.377299499511718e-05, 4.794921875) (8.597754669189453e-05, 4.796875) (8.806726837158203e-05, 4.798828125) (9.003459167480469e-05, 4.80078125) (9.187220001220702e-05, 4.802734375) (9.357331085205077e-05, 4.8046875) (9.51315689086914e-05, 4.806640625) (9.654129028320312e-05, 4.80859375) (9.77974853515625e-05, 4.810546875) (9.889582824707031e-05, 4.8125) (9.983254241943359e-05, 4.814453125) (0.00010060460662841796, 4.81640625) (0.00010120968627929687, 4.818359375) (0.00010164615631103516, 4.8203125) (0.0001019130630493164, 4.822265625) (0.0001020099868774414, 4.82421875) (0.00010193700408935546, 4.826171875) (0.00010169467163085937, 4.828125) (0.0001012840118408203, 4.830078125) (0.00010070659637451171, 4.83203125) (9.996455383300781e-05, 4.833984375) (9.906044006347656e-05, 4.8359375) (9.799727630615233e-05, 4.837890625) (9.677861785888671e-05, 4.83984375) (9.540853881835937e-05, 4.841796875) (9.389164733886719e-05, 4.84375) (9.223307037353515e-05, 4.845703125) (9.043821716308594e-05, 4.84765625) (8.851274108886719e-05, 4.849609375) (8.646263122558593e-05, 4.8515625) (8.429408264160156e-05, 4.853515625) (8.201356506347656e-05, 4.85546875) (7.96277847290039e-05, 4.857421875) (7.714359283447265e-05, 4.859375) (7.456795501708984e-05, 4.861328125) (7.190803527832031e-05, 4.86328125) (6.917118072509765e-05, 4.865234375) (6.636485290527343e-05, 4.8671875) (6.349660873413085e-05, 4.869140625) (6.0573959350585935e-05, 4.87109375) (5.7604320526123044e-05, 4.873046875) (5.459504699707031e-05, 4.875) (5.1553379058837886e-05, 4.876953125) (4.8486419677734374e-05, 4.87890625) (4.540110778808593e-05, 4.880859375) (4.23041877746582e-05, 4.8828125) (3.920221328735351e-05, 4.884765625) (3.610159301757812e-05, 4.88671875) (3.300859832763672e-05, 4.888671875) (2.9929347991943358e-05, 4.890625) (2.6869789123535156e-05, 4.892578125) (2.3835643768310546e-05, 4.89453125) (2.0832403182983398e-05, 4.896484375) (1.7865316390991212e-05, 4.8984375) (1.4939396858215331e-05, 4.900390625) (1.2059381484985351e-05, 4.90234375) (9.229719161987304e-06, 4.904296875) (6.45454978942871e-06, 4.90625) (3.737722635269165e-06, 4.908203125) (1.0828455686569214e-06, 4.91015625) (-1.5067028999328613e-06, 4.912109375) (-4.027776718139648e-06, 4.9140625) (-6.477473258972168e-06, 4.916015625) (-8.853141784667968e-06, 4.91796875) (-1.115238380432129e-05, 4.919921875) (-1.3373030662536621e-05, 4.921875) (-1.5513153076171874e-05, 4.923828125) (-1.7571071624755858e-05, 4.92578125) (-1.9545373916625974e-05, 4.927734375) (-2.1434902191162108e-05, 4.9296875) (-2.323872947692871e-05, 4.931640625) (-2.4956113815307615e-05, 4.93359375) (-2.6586496353149414e-05, 4.935546875) (-2.8129486083984374e-05, 4.9375) (-2.958487319946289e-05, 4.939453125) (-3.095260620117187e-05, 4.94140625) (-3.223279571533203e-05, 4.943359375) (-3.342569732666015e-05, 4.9453125) (-3.453172302246094e-05, 4.947265625) (-3.5551448822021485e-05, 4.94921875) (-3.6485633850097653e-05, 4.951171875) (-3.7335205078125e-05, 4.953125) (-3.810124588012695e-05, 4.955078125) (-3.8784942626953124e-05, 4.95703125) (-3.938762664794922e-05, 4.958984375) (-3.991072082519531e-05, 4.9609375) (-4.035578155517578e-05, 4.962890625) (-4.072449111938476e-05, 4.96484375) (-4.1018600463867186e-05, 4.966796875) (-4.123997116088867e-05, 4.96875) (-4.1390563964843746e-05, 4.970703125) (-4.1472457885742186e-05, 4.97265625) (-4.148786926269531e-05, 4.974609375) (-4.1439144134521485e-05, 4.9765625) (-4.132872772216797e-05, 4.978515625) (-4.1159175872802734e-05, 4.98046875) (-4.0933132171630854e-05, 4.982421875) (-4.065333938598633e-05, 4.984375) (-4.0322628021240235e-05, 4.986328125) (-3.9943904876708984e-05, 4.98828125) (-3.95201301574707e-05, 4.990234375) (-3.9054321289062496e-05, 4.9921875) (-3.854949569702148e-05, 4.994140625) (-3.800876617431641e-05, 4.99609375) (-3.743525695800781e-05, 4.998046875) (-3.683213806152344e-05, 5.0) (-3.620257568359375e-05, 5.001953125) (-3.5549736022949214e-05, 5.00390625) (-3.487675476074218e-05, 5.005859375) (-3.418678283691406e-05, 5.0078125) (-3.3482906341552735e-05, 5.009765625) (-3.276820373535156e-05, 5.01171875) (-3.2045684814453126e-05, 5.013671875) (-3.131829071044922e-05, 5.015625) (-3.0588890075683594e-05, 5.017578125) (-2.9860317230224608e-05, 5.01953125) (-2.9135337829589842e-05, 5.021484375) (-2.841664123535156e-05, 5.0234375) (-2.770682334899902e-05, 5.025390625) (-2.700836372375488e-05, 5.02734375) (-2.632364273071289e-05, 5.029296875) (-2.565492057800293e-05, 5.03125) (-2.5004350662231443e-05, 5.033203125) (-2.4373924255371092e-05, 5.03515625) (-2.376546478271484e-05, 5.037109375) (-2.3180622100830077e-05, 5.0390625) (-2.262087631225586e-05, 5.041015625) (-2.2087528228759765e-05, 5.04296875) (-2.1581707000732422e-05, 5.044921875) (-2.1104354858398437e-05, 5.046875) (-2.0656211853027342e-05, 5.048828125) (-2.023782157897949e-05, 5.05078125) (-1.9849538803100585e-05, 5.052734375) (-1.9491550445556638e-05, 5.0546875) (-1.9163883209228513e-05, 5.056640625) (-1.886640357971191e-05, 5.05859375) (-1.8598804473876953e-05, 5.060546875) (-1.8360626220703124e-05, 5.0625) (-1.815127944946289e-05, 5.064453125) (-1.7970062255859375e-05, 5.06640625) (-1.7816169738769532e-05, 5.068359375) (-1.7688684463500977e-05, 5.0703125) (-1.7586591720581053e-05, 5.072265625) (-1.7508777618408202e-05, 5.07421875) (-1.7454051971435547e-05, 5.076171875) (-1.7421169281005857e-05, 5.078125) (-1.74088134765625e-05, 5.080078125) (-1.741562271118164e-05, 5.08203125) (-1.7440164566040037e-05, 5.083984375) (-1.748097801208496e-05, 5.0859375) (-1.753656005859375e-05, 5.087890625) (-1.7605419158935546e-05, 5.08984375) (-1.7686046600341797e-05, 5.091796875) (-1.777693176269531e-05, 5.09375) (-1.7876564025878905e-05, 5.095703125) (-1.798345375061035e-05, 5.09765625) (-1.809613800048828e-05, 5.099609375) (-1.8213211059570313e-05, 5.1015625) (-1.8333322525024414e-05, 5.103515625) (-1.8455177307128905e-05, 5.10546875) (-1.8577531814575195e-05, 5.107421875) (-1.8699222564697265e-05, 5.109375) (-1.881917190551758e-05, 5.111328125) (-1.8936391830444335e-05, 5.11328125) (-1.904999542236328e-05, 5.115234375) (-1.915916633605957e-05, 5.1171875) (-1.9263153076171874e-05, 5.119140625) (-1.9361284255981444e-05, 5.12109375) (-1.9452951431274412e-05, 5.123046875) (-1.953763961791992e-05, 5.125) (-1.961488342285156e-05, 5.126953125) (-1.9684268951416015e-05, 5.12890625) (-1.9745418548583983e-05, 5.130859375) (-1.9797992706298827e-05, 5.1328125) (-1.984169006347656e-05, 5.134765625) (-1.987626266479492e-05, 5.13671875) (-1.9901477813720703e-05, 5.138671875) (-1.9917125701904295e-05, 5.140625) (-1.992300033569336e-05, 5.142578125) (-1.991891098022461e-05, 5.14453125) (-1.9904676437377928e-05, 5.146484375) (-1.9880138397216795e-05, 5.1484375) (-1.984514808654785e-05, 5.150390625) (-1.9799556732177735e-05, 5.15234375) (-1.9743215560913084e-05, 5.154296875) (-1.9676002502441406e-05, 5.15625) (-1.9597816467285154e-05, 5.158203125) (-1.950858116149902e-05, 5.16015625) (-1.9408252716064453e-05, 5.162109375) (-1.929679298400879e-05, 5.1640625) (-1.91741886138916e-05, 5.166015625) (-1.904045486450195e-05, 5.16796875) (-1.8895626068115232e-05, 5.169921875) (-1.8739784240722656e-05, 5.171875) (-1.8573022842407226e-05, 5.173828125) (-1.8395450592041014e-05, 5.17578125) (-1.8207193374633787e-05, 5.177734375) (-1.8008413314819335e-05, 5.1796875) (-1.7799308776855467e-05, 5.181640625) (-1.7580110549926758e-05, 5.18359375) (-1.7351083755493162e-05, 5.185546875) (-1.7112499237060547e-05, 5.1875) (-1.6864654541015626e-05, 5.189453125) (-1.6607900619506834e-05, 5.19140625) (-1.634261322021484e-05, 5.193359375) (-1.6069211959838866e-05, 5.1953125) (-1.5788135528564454e-05, 5.197265625) (-1.5499833106994627e-05, 5.19921875) (-1.5204792022705078e-05, 5.201171875) (-1.4903552055358886e-05, 5.203125) (-1.4596678733825683e-05, 5.205078125) (-1.4284769058227538e-05, 5.20703125) (-1.3968443870544433e-05, 5.208984375) (-1.3648322105407714e-05, 5.2109375) (-1.3325048446655272e-05, 5.212890625) (-1.299929141998291e-05, 5.21484375) (-1.267168617248535e-05, 5.216796875) (-1.2342816352844238e-05, 5.21875) (-1.201320457458496e-05, 5.220703125) (-1.1683276176452636e-05, 5.22265625) (-1.1353381156921387e-05, 5.224609375) (-1.1023780822753906e-05, 5.2265625) (-1.0694623947143555e-05, 5.228515625) (-1.0365943908691406e-05, 5.23046875) (-1.0037641525268553e-05, 5.232421875) (-9.709467887878418e-06, 5.234375) (-9.381068229675292e-06, 5.236328125) (-9.051971435546874e-06, 5.23828125) (-8.721562385559081e-06, 5.240234375) (-8.389083862304688e-06, 5.2421875) (-8.053624153137207e-06, 5.244140625) (-7.714095115661621e-06, 5.24609375) (-7.369322299957275e-06, 5.248046875) (-7.018052101135254e-06, 5.25) (-6.658901691436768e-06, 5.251953125) (-6.2903738021850585e-06, 5.25390625) (-5.9108767509460445e-06, 5.255859375) (-5.518725395202637e-06, 5.2578125) (-5.112199306488037e-06, 5.259765625) (-4.689577102661132e-06, 5.26171875) (-4.24902057647705e-06, 5.263671875) (-3.7885568141937256e-06, 5.265625) (-3.3061466217041012e-06, 5.267578125) (-2.7996833324432373e-06, 5.26953125) (-2.266996383666992e-06, 5.271484375) (-1.7058727741241453e-06, 5.2734375) (-1.1139761209487915e-06, 5.275390625) (-4.888459742069244e-07, 5.27734375) (1.7193575203418732e-07, 5.279296875) (8.70701014995575e-07, 5.28125) (1.6096596717834472e-06, 5.283203125) (2.390872001647949e-06, 5.28515625) (3.2163147926330566e-06, 5.287109375) (4.087841987609863e-06, 5.2890625) (5.007118225097656e-06, 5.291015625) (5.975632190704345e-06, 5.29296875) (6.994648933410644e-06, 5.294921875) (8.065216064453125e-06, 5.296875) (9.188261032104492e-06, 5.298828125) (1.0364521026611327e-05, 5.30078125) (1.1594466209411621e-05, 5.302734375) (1.2878314971923827e-05, 5.3046875) (1.421594715118408e-05, 5.306640625) (1.5606891632080078e-05, 5.30859375) (1.705049514770508e-05, 5.310546875) (1.8545936584472656e-05, 5.3125) (2.009209632873535e-05, 5.314453125) (2.1687566757202148e-05, 5.31640625) (2.333070945739746e-05, 5.318359375) (2.5019624710083006e-05, 5.3203125) (2.6752281188964844e-05, 5.322265625) (2.8526489257812498e-05, 5.32421875) (3.033961486816406e-05, 5.326171875) (3.2188468933105465e-05, 5.328125) (3.406949615478515e-05, 5.330078125) (3.5978759765625e-05, 5.33203125) (3.7911727905273434e-05, 5.333984375) (3.986329650878906e-05, 5.3359375) (4.182754516601562e-05, 5.337890625) (4.379771423339844e-05, 5.33984375) (4.576683044433593e-05, 5.341796875) (4.7727767944335935e-05, 5.34375) (4.9672943115234375e-05, 5.345703125) (5.1594284057617185e-05, 5.34765625) (5.3483428955078126e-05, 5.349609375) (5.533184814453125e-05, 5.3515625) (5.7131332397460934e-05, 5.353515625) (5.887412643432617e-05, 5.35546875) (6.055209350585937e-05, 5.357421875) (6.215666961669921e-05, 5.359375) (6.36788558959961e-05, 5.361328125) (6.510971069335938e-05, 5.36328125) (6.644088745117187e-05, 5.365234375) (6.766445922851563e-05, 5.3671875) (6.877247619628906e-05, 5.369140625) (6.975663757324218e-05, 5.37109375) (7.060839843749999e-05, 5.373046875) (7.13196792602539e-05, 5.375) (7.188459777832031e-05, 5.376953125) (7.22998046875e-05, 5.37890625) (7.256178283691407e-05, 5.380859375) (7.266693878173827e-05, 5.3828125) (7.261050415039062e-05, 5.384765625) (7.238619232177734e-05, 5.38671875) (7.19911880493164e-05, 5.388671875) (7.142689514160157e-05, 5.390625) (7.069588470458985e-05, 5.392578125) (6.980120086669921e-05, 5.39453125) (6.874796295166015e-05, 5.396484375) (6.754424285888672e-05, 5.3984375) (6.620508575439453e-05, 5.400390625) (6.475552368164063e-05, 5.40234375) (6.322322845458984e-05, 5.404296875) (6.163471221923828e-05, 5.40625) (6.00137710571289e-05, 5.408203125) (5.837981033325195e-05, 5.41015625) (5.675497436523437e-05, 5.412109375) (5.51655044555664e-05, 5.4140625) (5.363971710205078e-05, 5.416015625) (5.220800018310547e-05, 5.41796875) (5.089505767822265e-05, 5.419921875) (4.9717437744140623e-05, 5.421875) (4.869185638427734e-05, 5.423828125) (4.783742523193359e-05, 5.42578125) (4.7165138244628906e-05, 5.427734375) (4.667580413818359e-05, 5.4296875) (4.635289001464843e-05, 5.431640625) (4.6148586273193356e-05, 5.43359375) (4.600399780273437e-05, 5.435546875) (4.5865077972412105e-05, 5.4375) (4.567584991455078e-05, 5.439453125) (4.5392337799072265e-05, 5.44140625) (4.498004913330078e-05, 5.443359375) (4.438649749755859e-05, 5.4453125) (4.3550289154052734e-05, 5.447265625) (4.241304016113281e-05, 5.44921875) (4.0911338806152345e-05, 5.451171875) (3.8998710632324214e-05, 5.453125) (3.665251159667969e-05, 5.455078125) (3.3813907623291014e-05, 5.45703125) (3.0405670166015622e-05, 5.458984375) (2.6428682327270506e-05, 5.4609375) (2.1973100662231444e-05, 5.462890625) (1.727498435974121e-05, 5.46484375) (1.2718398094177246e-05, 5.466796875) (8.670241355895996e-06, 5.46875) (5.433477401733398e-06, 5.470703125) (3.349816799163818e-06, 5.47265625) (2.793736219406128e-06, 5.474609375) (4.011250972747803e-06, 5.4765625) (7.050052642822265e-06, 5.478515625) (1.159882640838623e-05, 5.48046875) (1.6973072052001953e-05, 5.482421875) (2.2451793670654296e-05, 5.484375) (2.7461456298828122e-05, 5.486328125) (3.1498865127563475e-05, 5.48828125) (3.406436157226562e-05, 5.490234375) (3.492311096191406e-05, 5.4921875) (3.4276866912841794e-05, 5.494140625) (3.2953395843505856e-05, 5.49609375) (3.247592926025391e-05, 5.498046875) (3.4646759033203125e-05, 5.5) (4.11495246887207e-05, 5.501953125) (5.359046936035156e-05, 5.50390625) (7.365571594238281e-05, 5.505859375) (0.00010258799743652343, 5.5078125) (0.0001409174041748047, 5.509765625) (0.00018825196838378905, 5.51171875) (0.00024298548889160155, 5.513671875) (0.00030271789550781247, 5.515625) (0.00036465356445312497, 5.517578125) (0.00042542507934570313, 5.51953125) (0.00048092626953125, 5.521484375) (0.000527038330078125, 5.5234375) (0.0005599951171875, 5.525390625) (0.0005767479858398437, 5.52734375) (0.0005753504638671875, 5.529296875) (0.0005547478027343749, 5.53125) (0.0005148760986328125, 5.533203125) (0.0004568137512207031, 5.53515625) (0.0003838878479003906, 5.537109375) (0.0003004365234375, 5.5390625) (0.0002101605529785156, 5.541015625) (0.00011752323913574218, 5.54296875) (2.5327396392822266e-05, 5.544921875) (-6.380474090576171e-05, 5.546875) (-0.00014379782104492186, 5.548828125) (-0.00021040689086914061, 5.55078125) (-0.00025975860595703126, 5.552734375) (-0.0002885907592773437, 5.5546875) (-0.0003003045349121094, 5.556640625) (-0.0002984619140625, 5.55859375) (-0.0002866024169921875, 5.560546875) (-0.00027017843627929686, 5.5625) (-0.00025048983764648435, 5.564453125) (-0.00022866680908203123, 5.56640625) (-0.0002070043487548828, 5.568359375) (-0.00018620553588867187, 5.5703125) (-0.00016819691467285155, 5.572265625) (-0.00015480584716796874, 5.57421875) (-0.00014607138061523438, 5.576171875) (-0.00014153149414062498, 5.578125) (-0.00014024530029296874, 5.580078125) (-0.00014079685974121092, 5.58203125) (-0.00014196873474121093, 5.583984375) (-0.00014289202880859373, 5.5859375) (-0.00014256454467773437, 5.587890625) (-0.00014014643859863282, 5.58984375) (-0.00013539988708496093, 5.591796875) (-0.0001283970947265625, 5.59375) (-0.00011946971130371094, 5.595703125) (-0.00010931229400634766, 5.59765625) (-9.86287384033203e-05, 5.599609375) (-8.804250335693359e-05, 5.6015625) (-7.832131958007812e-05, 5.603515625) (-7.004061889648437e-05, 5.60546875) (-6.342209243774414e-05, 5.607421875) (-5.857076644897461e-05, 5.609375) (-5.5412094116210936e-05, 5.611328125) (-5.369509124755859e-05, 5.61328125) (-5.317929458618164e-05, 5.615234375) (-5.356238555908203e-05, 5.6171875) (-5.444591522216797e-05, 5.619140625) (-5.555696868896484e-05, 5.62109375) (-5.674768447875976e-05, 5.623046875) (-5.7915901184082026e-05, 5.625) (-5.903240203857422e-05, 5.626953125) (-6.006027221679687e-05, 5.62890625) (-6.0928283691406246e-05, 5.630859375) (-6.160754394531249e-05, 5.6328125) (-6.210161972045898e-05, 5.634765625) (-6.239397430419922e-05, 5.63671875) (-6.246212005615234e-05, 5.638671875) (-6.226496124267577e-05, 5.640625) (-6.174369812011718e-05, 5.642578125) (-6.088846206665039e-05, 5.64453125) (-5.972864151000976e-05, 5.646484375) (-5.830698013305664e-05, 5.6484375) (-5.668094635009765e-05, 5.650390625) (-5.4893608093261717e-05, 5.65234375) (-5.297106552124023e-05, 5.654296875) (-5.0943542480468746e-05, 5.65625) (-4.8847225189208984e-05, 5.658203125) (-4.6719764709472656e-05, 5.66015625) (-4.459649276733398e-05, 5.662109375) (-4.2499999999999996e-05, 5.6640625) (-4.044190597534179e-05, 5.666015625) (-3.844073486328125e-05, 5.66796875) (-3.652195358276367e-05, 5.669921875) (-3.4719482421875e-05, 5.671875) (-3.3071083068847654e-05, 5.673828125) (-3.1591632843017576e-05, 5.67578125) (-3.0278331756591796e-05, 5.677734375) (-2.912155532836914e-05, 5.6796875) (-2.8103710174560545e-05, 5.681640625) (-2.7209939956665037e-05, 5.68359375) (-2.6427623748779294e-05, 5.685546875) (-2.5736793518066406e-05, 5.6875) (-2.5112331390380858e-05, 5.689453125) (-2.453189468383789e-05, 5.69140625) (-2.3975582122802734e-05, 5.693359375) (-2.3428289413452147e-05, 5.6953125) (-2.2879453659057615e-05, 5.697265625) (-2.23123779296875e-05, 5.69921875) (-2.170551490783691e-05, 5.701171875) (-2.10340576171875e-05, 5.703125) (-2.027040672302246e-05, 5.705078125) (-1.9395217895507813e-05, 5.70703125) (-1.8396026611328123e-05, 5.708984375) (-1.7262191772460937e-05, 5.7109375) (-1.5986528396606444e-05, 5.712890625) (-1.4563735961914062e-05, 5.71484375) (-1.299024772644043e-05, 5.716796875) (-1.1267914772033692e-05, 5.71875) (-9.402673721313476e-06, 5.720703125) (-7.398334980010986e-06, 5.72265625) (-5.257682800292968e-06, 5.724609375) (-2.9832243919372557e-06, 5.7265625) (-5.765819549560547e-07, 5.728515625) (1.957491397857666e-06, 5.73046875) (4.611851692199707e-06, 5.732421875) (7.3786458969116205e-06, 5.734375) (1.0248519897460937e-05, 5.736328125) (1.3212061882019042e-05, 5.73828125) (1.626001739501953e-05, 5.740234375) (1.938216781616211e-05, 5.7421875) (2.256781196594238e-05, 5.744140625) (2.5806598663330077e-05, 5.74609375) (2.9088127136230468e-05, 5.748046875) (3.240256118774414e-05, 5.75) (3.5740821838378906e-05, 5.751953125) (3.9092742919921875e-05, 5.75390625) (4.244738388061523e-05, 5.755859375) (4.579366302490234e-05, 5.7578125) (4.912004089355469e-05, 5.759765625) (5.241510009765625e-05, 5.76171875) (5.566769027709961e-05, 5.763671875) (5.886638259887695e-05, 5.765625) (6.199969482421875e-05, 5.767578125) (6.505677795410156e-05, 5.76953125) (6.802725982666015e-05, 5.771484375) (7.09012451171875e-05, 5.7734375) (7.366949462890625e-05, 5.775390625) (7.632313537597656e-05, 5.77734375) (7.885375976562499e-05, 5.779296875) (8.125366210937499e-05, 5.78125) (8.351568603515624e-05, 5.783203125) (8.563301849365234e-05, 5.78515625) (8.75994873046875e-05, 5.787109375) (8.940940856933594e-05, 5.7890625) (9.105770874023437e-05, 5.791015625) (9.253996276855469e-05, 5.79296875) (9.385228729248046e-05, 5.794921875) (9.499140167236327e-05, 5.796875) (9.595461273193359e-05, 5.798828125) (9.673990631103516e-05, 5.80078125) (9.734584808349609e-05, 5.802734375) (9.777162933349609e-05, 5.8046875) (9.801696014404296e-05, 5.806640625) (9.808199310302734e-05, 5.80859375) (9.796736145019531e-05, 5.810546875) (9.767407989501953e-05, 5.8125) (9.720361328125e-05, 5.814453125) (9.655784606933593e-05, 5.81640625) (9.573910522460937e-05, 5.818359375) (9.475000762939452e-05, 5.8203125) (9.359361267089843e-05, 5.822265625) (9.227332305908202e-05, 5.82421875) (9.079298400878906e-05, 5.826171875) (8.915681457519531e-05, 5.828125) (8.736942291259765e-05, 5.830078125) (8.543556213378906e-05, 5.83203125) (8.336022186279296e-05, 5.833984375) (8.114857482910156e-05, 5.8359375) (7.880599212646485e-05, 5.837890625) (7.633802032470703e-05, 5.83984375) (7.375038909912109e-05, 5.841796875) (7.10489501953125e-05, 5.84375) (6.82396469116211e-05, 5.845703125) (6.532867431640624e-05, 5.84765625) (6.23223648071289e-05, 5.849609375) (5.922720718383789e-05, 5.8515625) (5.604981231689453e-05, 5.853515625) (5.279684066772461e-05, 5.85546875) (4.947500991821289e-05, 5.857421875) (4.6091083526611324e-05, 5.859375) (4.265185546875e-05, 5.861328125) (3.9164096832275386e-05, 5.86328125) (3.563460540771484e-05, 5.865234375) (3.207016754150391e-05, 5.8671875) (2.8477569580078125e-05, 5.869140625) (2.4863603591918945e-05, 5.87109375) (2.1235086441040038e-05, 5.873046875) (1.759881019592285e-05, 5.875) (1.3961559295654297e-05, 5.876953125) (1.0330045700073242e-05, 5.87890625) (6.71091079711914e-06, 5.880859375) (3.110713005065918e-06, 5.8828125) (-4.640867412090301e-07, 5.884765625) (-4.007139205932617e-06, 5.88671875) (-7.5122098922729485e-06, 5.888671875) (-1.0973182678222656e-05, 5.890625) (-1.4384044647216796e-05, 5.892578125) (-1.773886489868164e-05, 5.89453125) (-2.103178024291992e-05, 5.896484375) (-2.4257041931152342e-05, 5.8984375) (-2.740899658203125e-05, 5.900390625) (-3.0482143402099606e-05, 5.90234375) (-3.347111511230468e-05, 5.904296875) (-3.637074279785156e-05, 5.90625) (-3.917602920532226e-05, 5.908203125) (-4.188223266601562e-05, 5.91015625) (-4.4484840393066406e-05, 5.912109375) (-4.6979598999023436e-05, 5.9140625) (-4.936253356933594e-05, 5.916015625) (-5.162991333007812e-05, 5.91796875) (-5.3778305053710935e-05, 5.919921875) (-5.580457305908203e-05, 5.921875) (-5.770590591430664e-05, 5.923828125) (-5.94798355102539e-05, 5.92578125) (-6.112428283691407e-05, 5.927734375) (-6.263754272460937e-05, 5.9296875) (-6.401834106445312e-05, 5.931640625) (-6.526583862304687e-05, 5.93359375) (-6.637960052490234e-05, 5.935546875) (-6.735962677001953e-05, 5.9375) (-6.820631408691406e-05, 5.939453125) (-6.892046356201172e-05, 5.94140625) (-6.950326538085937e-05, 5.943359375) (-6.995623779296875e-05, 5.9453125) (-7.028131103515625e-05, 5.947265625) (-7.048075103759765e-05, 5.94921875) (-7.055723571777343e-05, 5.951171875) (-7.051381683349609e-05, 5.953125) (-7.035394287109375e-05, 5.955078125) (-7.008146667480468e-05, 5.95703125) (-6.970063018798827e-05, 5.958984375) (-6.92160415649414e-05, 5.9609375) (-6.863265991210938e-05, 5.962890625) (-6.795575714111328e-05, 5.96484375) (-6.719088745117187e-05, 5.966796875) (-6.63438720703125e-05, 5.96875) (-6.542073059082031e-05, 5.970703125) (-6.442770385742188e-05, 5.97265625) (-6.337120819091797e-05, 5.974609375) (-6.22577781677246e-05, 5.9765625) (-6.109408569335937e-05, 5.978515625) (-5.988688659667969e-05, 5.98046875) (-5.8642963409423824e-05, 5.982421875) (-5.736909484863281e-05, 5.984375) (-5.607199478149414e-05, 5.986328125) (-5.475824737548828e-05, 5.98828125) (-5.343427276611328e-05, 5.990234375) (-5.210627746582031e-05, 5.9921875) (-5.078022003173828e-05, 5.994140625) (-4.946177291870117e-05, 5.99609375) (-4.8156333923339844e-05, 5.998046875) (-4.6869003295898434e-05, 6.0) (-4.560459518432617e-05, 6.001953125) (-4.436761093139648e-05, 6.00390625) (-4.316223907470703e-05, 6.005859375) (-4.199235534667969e-05, 6.0078125) (-4.086148071289062e-05, 6.009765625) (-3.977280807495117e-05, 6.01171875) (-3.8729125976562496e-05, 6.013671875) (-3.773282623291016e-05, 6.015625) (-3.678591918945312e-05, 6.017578125) (-3.588998031616211e-05, 6.01953125) (-3.504623413085938e-05, 6.021484375) (-3.425550842285156e-05, 6.0234375) (-3.351828002929688e-05, 6.025390625) (-3.283468627929687e-05, 6.02734375) (-3.220454025268554e-05, 6.029296875) (-3.1627346038818355e-05, 6.03125) (-3.110231018066406e-05, 6.033203125) (-3.062834930419922e-05, 6.03515625) (-3.0204078674316405e-05, 6.037109375) (-2.982784652709961e-05, 6.0390625) (-2.9497734069824216e-05, 6.041015625) (-2.9211612701416013e-05, 6.04296875) (-2.896717262268066e-05, 6.044921875) (-2.8761980056762695e-05, 6.046875) (-2.8593505859375e-05, 6.048828125) (-2.8459177017211913e-05, 6.05078125) (-2.8356433868408202e-05, 6.052734375) (-2.8282752990722656e-05, 6.0546875) (-2.823567771911621e-05, 6.056640625) (-2.8212816238403317e-05, 6.05859375) (-2.8211849212646484e-05, 6.060546875) (-2.8230548858642575e-05, 6.0625) (-2.826677131652832e-05, 6.064453125) (-2.831849479675293e-05, 6.06640625) (-2.8383815765380857e-05, 6.068359375) (-2.846097946166992e-05, 6.0703125) (-2.8548397064208985e-05, 6.072265625) (-2.8644651412963866e-05, 6.07421875) (-2.8748531341552733e-05, 6.076171875) (-2.8859024047851563e-05, 6.078125) (-2.8975322723388672e-05, 6.080078125) (-2.90968017578125e-05, 6.08203125) (-2.9222991943359374e-05, 6.083984375) (-2.9353542327880858e-05, 6.0859375) (-2.948822784423828e-05, 6.087890625) (-2.962692642211914e-05, 6.08984375) (-2.976962089538574e-05, 6.091796875) (-2.9916393280029297e-05, 6.09375) (-3.0067420959472655e-05, 6.095703125) (-3.0222980499267576e-05, 6.09765625) (-3.0383468627929685e-05, 6.099609375) (-3.0549415588378904e-05, 6.1015625) (-3.072145462036133e-05, 6.103515625) (-3.090029907226562e-05, 6.10546875) (-3.108671188354492e-05, 6.107421875) (-3.12814826965332e-05, 6.109375) (-3.1485397338867186e-05, 6.111328125) (-3.1699218749999996e-05, 6.11328125) (-3.1923667907714845e-05, 6.115234375) (-3.2159423828124995e-05, 6.1171875) (-3.24070930480957e-05, 6.119140625) (-3.26672248840332e-05, 6.12109375) (-3.2940345764160155e-05, 6.123046875) (-3.322694396972656e-05, 6.125) (-3.3527458190917966e-05, 6.126953125) (-3.384226989746093e-05, 6.12890625) (-3.417165374755859e-05, 6.130859375) (-3.4515777587890626e-05, 6.1328125) (-3.4874687194824216e-05, 6.134765625) (-3.524827575683594e-05, 6.13671875) (-3.5636310577392575e-05, 6.138671875) (-3.6038375854492186e-05, 6.140625) (-3.645392608642578e-05, 6.142578125) (-3.688230895996094e-05, 6.14453125) (-3.732279968261718e-05, 6.146484375) (-3.777463150024414e-05, 6.1484375) (-3.823703002929687e-05, 6.150390625) (-3.870918273925781e-05, 6.15234375) (-3.9190284729003906e-05, 6.154296875) (-3.967948913574219e-05, 6.15625) (-4.017595672607422e-05, 6.158203125) (-4.0678817749023437e-05, 6.16015625) (-4.1187171936035156e-05, 6.162109375) (-4.170006561279297e-05, 6.1640625) (-4.221649932861328e-05, 6.166015625) (-4.273545837402343e-05, 6.16796875) (-4.325593566894531e-05, 6.169921875) (-4.3776943206787104e-05, 6.171875) (-4.429753112792969e-05, 6.173828125) (-4.481677627563476e-05, 6.17578125) (-4.5333759307861325e-05, 6.177734375) (-4.5847595214843745e-05, 6.1796875) (-4.6357379913330074e-05, 6.181640625) (-4.686219024658203e-05, 6.18359375) (-4.736105728149414e-05, 6.185546875) (-4.785290145874023e-05, 6.1875) (-4.833658218383789e-05, 6.189453125) (-4.881092071533203e-05, 6.19140625) (-4.9274711608886715e-05, 6.193359375) (-4.972676086425781e-05, 6.1953125) (-5.016588592529296e-05, 6.197265625) (-5.0590950012207026e-05, 6.19921875) (-5.100088500976562e-05, 6.201171875) (-5.139470672607422e-05, 6.203125) (-5.177146530151367e-05, 6.205078125) (-5.213024139404297e-05, 6.20703125) (-5.247011566162109e-05, 6.208984375) (-5.279011154174805e-05, 6.2109375) (-5.3089221954345703e-05, 6.212890625) (-5.336640930175781e-05, 6.21484375) (-5.362060928344726e-05, 6.216796875) (-5.3850719451904296e-05, 6.21875) (-5.405564498901367e-05, 6.220703125) (-5.423427581787109e-05, 6.22265625) (-5.438550567626953e-05, 6.224609375) (-5.450824737548828e-05, 6.2265625) (-5.4601425170898435e-05, 6.228515625) (-5.466392517089844e-05, 6.23046875) (-5.469459533691406e-05, 6.232421875) (-5.469216918945312e-05, 6.234375) (-5.465534973144531e-05, 6.236328125) (-5.458279418945312e-05, 6.23828125) (-5.447311782836914e-05, 6.240234375) (-5.43249282836914e-05, 6.2421875) (-5.413689041137695e-05, 6.244140625) (-5.390774154663086e-05, 6.24609375) (-5.363636016845703e-05, 6.248046875) (-5.332185363769531e-05, 6.25) (-5.296344757080078e-05, 6.251953125) (-5.2560493469238276e-05, 6.25390625) (-5.211246490478515e-05, 6.255859375) (-5.1618980407714844e-05, 6.2578125) (-5.1079715728759764e-05, 6.259765625) (-5.049439239501953e-05, 6.26171875) (-4.9862747192382814e-05, 6.263671875) (-4.918443298339843e-05, 6.265625) (-4.845920181274414e-05, 6.267578125) (-4.768695449829101e-05, 6.26953125) (-4.686769104003906e-05, 6.271484375) (-4.600153732299804e-05, 6.2734375) (-4.5088756561279295e-05, 6.275390625) (-4.4129676818847655e-05, 6.27734375) (-4.312477111816406e-05, 6.279296875) (-4.2074623107910156e-05, 6.28125) (-4.097988510131836e-05, 6.283203125) (-3.984126281738281e-05, 6.28515625) (-3.86595458984375e-05, 6.287109375) (-3.7435585021972655e-05, 6.2890625) (-3.617040252685547e-05, 6.291015625) (-3.486527252197265e-05, 6.29296875) (-3.3521705627441406e-05, 6.294921875) (-3.214158630371093e-05, 6.296875) (-3.0727035522460935e-05, 6.298828125) (-2.9280441284179686e-05, 6.30078125) (-2.7804553985595702e-05, 6.302734375) (-2.630251693725586e-05, 6.3046875) (-2.4777667999267578e-05, 6.306640625) (-2.3233524322509766e-05, 6.30859375) (-2.1673730850219727e-05, 6.310546875) (-2.0101943969726563e-05, 6.3125) (-1.8522153854370118e-05, 6.314453125) (-1.693874740600586e-05, 6.31640625) (-1.5356237411499023e-05, 6.318359375) (-1.377918243408203e-05, 6.3203125) (-1.221252155303955e-05, 6.322265625) (-1.0661680221557617e-05, 6.32421875) (-9.132795333862305e-06, 6.326171875) (-7.632978439331054e-06, 6.328125) (-6.169634819030761e-06, 6.330078125) (-4.7501416206359865e-06, 6.33203125) (-3.382291793823242e-06, 6.333984375) (-2.0742275714874265e-06, 6.3359375) (-8.341585397720336e-07, 6.337890625) (3.2951176166534425e-07, 6.33984375) (1.4087352752685547e-06, 6.341796875) (2.396474838256836e-06, 6.34375) (3.2856693267822265e-06, 6.345703125) (4.068890571594238e-06, 6.34765625) (4.738656520843506e-06, 6.349609375) (5.286680221557617e-06, 6.3515625) (5.704596519470214e-06, 6.353515625) 