(5.21805191040039e-05, 0.0) (5.1258007049560544e-05, 0.001953125) (5.0148220062255854e-05, 0.00390625) (4.884839630126953e-05, 0.005859375) (4.735713195800781e-05, 0.0078125) (4.567695617675781e-05, 0.009765625) (4.3818477630615234e-05, 0.01171875) (4.1790756225585934e-05, 0.013671875) (3.9602687835693355e-05, 0.015625) (3.7263473510742184e-05, 0.017578125) (3.477106475830078e-05, 0.01953125) (3.212155532836914e-05, 0.021484375) (2.931336212158203e-05, 0.0234375) (2.6336721420288084e-05, 0.025390625) (2.3180206298828123e-05, 0.02734375) (1.9835983276367187e-05, 0.029296875) (1.6299352645874024e-05, 0.03125) (1.2582701683044433e-05, 0.033203125) (8.71113395690918e-06, 0.03515625) (4.703943729400634e-06, 0.037109375) (5.735816955566406e-07, 0.0390625) (-3.6840205192565915e-06, 0.041015625) (-8.080342292785643e-06, 0.04296875) (-1.2604656219482421e-05, 0.044921875) (-1.7236543655395508e-05, 0.046875) (-2.1943574905395506e-05, 0.048828125) (-2.666412353515625e-05, 0.05078125) (-3.135161590576172e-05, 0.052734375) (-3.593806457519531e-05, 0.0546875) (-4.0291751861572266e-05, 0.056640625) (-4.434390258789062e-05, 0.05859375) (-4.809865570068359e-05, 0.060546875) (-5.1628540039062495e-05, 0.0625) (-5.517409896850586e-05, 0.064453125) (-5.899284362792969e-05, 0.06640625) (-6.321651077270507e-05, 0.068359375) (-6.802998352050782e-05, 0.0703125) (-7.362393188476563e-05, 0.072265625) (-7.987908935546874e-05, 0.07421875) (-8.652857971191406e-05, 0.076171875) (-9.307046508789062e-05, 0.078125) (-9.856544494628906e-05, 0.080078125) (-0.00010223233032226563, 0.08203125) (-0.00010353482055664062, 0.083984375) (-0.0001018176040649414, 0.0859375) (-9.665428161621093e-05, 0.087890625) (-8.826200866699219e-05, 0.08984375) (-7.717735290527343e-05, 0.091796875) (-6.450180053710938e-05, 0.09375) (-5.2074623107910155e-05, 0.095703125) (-4.148402404785156e-05, 0.09765625) (-3.427272415161133e-05, 0.099609375) (-3.222296905517578e-05, 0.1015625) (-3.66258316040039e-05, 0.103515625) (-4.821281051635742e-05, 0.10546875) (-6.723501586914063e-05, 0.107421875) (-9.282560729980469e-05, 0.109375) (-0.00012327455139160155, 0.111328125) (-0.00015588691711425782, 0.11328125) (-0.00018633990478515624, 0.115234375) (-0.00021148333740234374, 0.1171875) (-0.00022904672241210936, 0.119140625) (-0.00023792216491699218, 0.12109375) (-0.00023982041931152343, 0.123046875) (-0.00023200846862792967, 0.125) (-0.00020909635925292968, 0.126953125) (-0.00016761837768554687, 0.12890625) (-0.00010293240356445312, 0.130859375) (-1.7953624725341797e-05, 0.1328125) (7.86905517578125e-05, 0.134765625) (0.00018282357788085936, 0.13671875) (0.00028858920288085937, 0.138671875) (0.00039113043212890623, 0.140625) (0.0004867720031738281, 0.142578125) (0.0005633084716796875, 0.14453125) (0.00060890087890625, 0.146484375) (0.0006183445434570312, 0.1484375) (0.0005918593139648437, 0.150390625) (0.0005404072265625, 0.15234375) (0.00047877450561523437, 0.154296875) (0.00041620043945312496, 0.15625) (0.0003573935546875, 0.158203125) (0.0003019036865234375, 0.16015625) (0.00024679559326171873, 0.162109375) (0.00019261544799804687, 0.1640625) (0.00014238601684570312, 0.166015625) (9.944644165039063e-05, 0.16796875) (6.650441741943358e-05, 0.169921875) (4.3616329193115235e-05, 0.171875) (2.913336372375488e-05, 0.173828125) (2.108359909057617e-05, 0.17578125) (1.730561828613281e-05, 0.177734375) (1.591452121734619e-05, 0.1796875) (1.4857809066772461e-05, 0.181640625) (1.2180202484130859e-05, 0.18359375) (6.904370307922363e-06, 0.185546875) (-1.1486141681671141e-06, 0.1875) (-1.1605962753295898e-05, 0.189453125) (-2.368695640563965e-05, 0.19140625) (-3.6600414276123045e-05, 0.193359375) (-4.95864372253418e-05, 0.1953125) (-6.157392120361328e-05, 0.197265625) (-7.151874542236328e-05, 0.19921875) (-7.892404174804687e-05, 0.201171875) (-8.369940185546874e-05, 0.203125) (-8.608693695068359e-05, 0.205078125) (-8.654959869384766e-05, 0.20703125) (-8.550643920898437e-05, 0.208984375) (-8.334929656982422e-05, 0.2109375) (-8.05834732055664e-05, 0.212890625) (-7.77287368774414e-05, 0.21484375) (-7.512644958496093e-05, 0.216796875) (-7.297586059570312e-05, 0.21875) (-7.136443328857421e-05, 0.220703125) (-7.029796600341797e-05, 0.22265625) (-6.979124450683593e-05, 0.224609375) (-6.985606384277344e-05, 0.2265625) (-7.045763397216797e-05, 0.228515625) (-7.1525634765625e-05, 0.23046875) (-7.299847412109375e-05, 0.232421875) (-7.48221435546875e-05, 0.234375) (-7.694902038574218e-05, 0.236328125) (-7.933651733398437e-05, 0.23828125) (-8.190776062011718e-05, 0.240234375) (-8.456774139404297e-05, 0.2421875) (-8.722809600830078e-05, 0.244140625) (-8.979861450195312e-05, 0.24609375) (-9.219989013671874e-05, 0.248046875) (-9.435360717773437e-05, 0.25) (-9.616185760498047e-05, 0.251953125) (-9.753411865234375e-05, 0.25390625) (-9.841161346435546e-05, 0.255859375) (-9.876098632812499e-05, 0.2578125) (-9.857084655761718e-05, 0.259765625) (-9.783734130859375e-05, 0.26171875) (-9.65567626953125e-05, 0.263671875) (-9.474258422851562e-05, 0.265625) (-9.242659759521483e-05, 0.267578125) (-8.96606216430664e-05, 0.26953125) (-8.652679443359374e-05, 0.271484375) (-8.31107177734375e-05, 0.2734375) (-7.950514221191406e-05, 0.275390625) (-7.583221435546875e-05, 0.27734375) (-7.219711303710938e-05, 0.279296875) (-6.870684814453125e-05, 0.28125) (-6.549310302734374e-05, 0.283203125) (-6.265737915039063e-05, 0.28515625) (-6.030078125e-05, 0.287109375) (-5.854558563232421e-05, 0.2890625) (-5.748694610595703e-05, 0.291015625) (-5.721419525146484e-05, 0.29296875) (-5.781932067871094e-05, 0.294921875) (-5.933480072021484e-05, 0.296875) (-6.179217147827148e-05, 0.298828125) (-6.526177978515624e-05, 0.30078125) (-6.968386077880859e-05, 0.302734375) (-7.490032958984374e-05, 0.3046875) (-8.075135803222656e-05, 0.306640625) (-8.698786926269531e-05, 0.30859375) (-9.347098541259766e-05, 0.310546875) (-0.00010025513458251952, 0.3125) (-0.00010724765014648438, 0.314453125) (-0.00011421511077880859, 0.31640625) (-0.00012112312316894531, 0.318359375) (-0.0001280260772705078, 0.3203125) (-0.00013495783996582032, 0.322265625) (-0.00014211117553710937, 0.32421875) (-0.0001493685302734375, 0.326171875) (-0.00015613731384277342, 0.328125) (-0.0001621026611328125, 0.330078125) (-0.0001671839141845703, 0.33203125) (-0.00017100697326660156, 0.333984375) (-0.00017319575500488282, 0.3359375) (-0.00017344386291503905, 0.337890625) (-0.00017120846557617186, 0.33984375) (-0.00016636859130859374, 0.341796875) (-0.00015951023864746092, 0.34375) (-0.00015090020751953124, 0.345703125) (-0.00014061138916015623, 0.34765625) (-0.00012921325683593748, 0.349609375) (-0.00011719078063964843, 0.3515625) (-0.00010495335388183593, 0.353515625) (-9.324440002441406e-05, 0.35546875) (-8.244694519042968e-05, 0.357421875) (-7.234071350097656e-05, 0.359375) (-6.304848480224609e-05, 0.361328125) (-5.4792282104492185e-05, 0.36328125) (-4.7221630096435545e-05, 0.365234375) (-4.0150600433349606e-05, 0.3671875) (-3.347916793823242e-05, 0.369140625) (-2.679709243774414e-05, 0.37109375) (-1.9962793350219727e-05, 0.373046875) (-1.3125190734863281e-05, 0.375) (-6.1280779838562005e-06, 0.376953125) (1.1898398399353027e-06, 0.37890625) (8.584659576416016e-06, 0.380859375) (1.5984140396118164e-05, 0.3828125) (2.3397069931030272e-05, 0.384765625) (3.067556571960449e-05, 0.38671875) (3.7875125885009765e-05, 0.388671875) (4.511060714721679e-05, 0.390625) (5.231806945800781e-05, 0.392578125) (5.948857879638672e-05, 0.39453125) (6.677735900878906e-05, 0.396484375) (7.4252197265625e-05, 0.3984375) (8.194422912597656e-05, 0.400390625) (8.989404296875e-05, 0.40234375) (9.802568054199218e-05, 0.404296875) (0.00010628191375732421, 0.40625) (0.00011467142486572265, 0.408203125) (0.00012317435455322265, 0.41015625) (0.00013173892211914063, 0.412109375) (0.0001402947082519531, 0.4140625) (0.00014875149536132813, 0.416015625) (0.00015703433227539062, 0.41796875) (0.00016508610534667967, 0.419921875) (0.0001728273010253906, 0.421875) (0.00018014251708984373, 0.423828125) (0.00018687538146972655, 0.42578125) (0.00019287045288085938, 0.427734375) (0.00019801861572265624, 0.4296875) (0.000202250244140625, 0.431640625) (0.00020552891540527343, 0.43359375) (0.00020782310485839843, 0.435546875) (0.00020908088684082031, 0.4375) (0.00020926019287109373, 0.439453125) (0.00020834075927734374, 0.44140625) (0.0002063045196533203, 0.443359375) (0.00020314999389648436, 0.4453125) (0.00019887051391601562, 0.447265625) (0.00019343246459960935, 0.44921875) (0.000186837890625, 0.451171875) (0.00017913937377929685, 0.453125) (0.0001704333801269531, 0.455078125) (0.0001608799591064453, 0.45703125) (0.0001506441955566406, 0.458984375) (0.00013985107421875, 0.4609375) (0.000128608154296875, 0.462890625) (0.00011700824737548827, 0.46484375) (0.0001051473159790039, 0.466796875) (9.314857482910156e-05, 0.46875) (8.112709808349609e-05, 0.470703125) (6.917578887939452e-05, 0.47265625) (5.740517425537109e-05, 0.474609375) (4.593629074096679e-05, 0.4765625) (3.491840744018555e-05, 0.478515625) (2.4544168472290037e-05, 0.48046875) (1.4963599205017089e-05, 0.482421875) (6.266738414764404e-06, 0.484375) (-1.4964385032653807e-06, 0.486328125) (-8.333358764648436e-06, 0.48828125) (-1.4261846542358398e-05, 0.490234375) (-1.927638244628906e-05, 0.4921875) (-2.337844467163086e-05, 0.494140625) (-2.658072280883789e-05, 0.49609375) (-2.8904170989990233e-05, 0.498046875) (-3.0394123077392578e-05, 0.5) (-3.109314155578613e-05, 0.501953125) (-3.102842903137207e-05, 0.50390625) (-3.0258480072021484e-05, 0.505859375) (-2.8871517181396483e-05, 0.5078125) (-2.69942626953125e-05, 0.509765625) (-2.4799781799316404e-05, 0.51171875) (-2.2427391052246093e-05, 0.513671875) (-1.9969785690307615e-05, 0.515625) (-1.7498559951782225e-05, 0.517578125) (-1.505226993560791e-05, 0.51953125) (-1.266193962097168e-05, 0.521484375) (-1.036808204650879e-05, 0.5234375) (-8.19237995147705e-06, 0.525390625) (-6.135727405548095e-06, 0.52734375) (-4.2005138397216795e-06, 0.529296875) (-2.3830230236053466e-06, 0.53125) (-6.84603750705719e-07, 0.533203125) (8.794986009597778e-07, 0.53515625) (2.3168287277221677e-06, 0.537109375) (3.657435894012451e-06, 0.5390625) (4.95209789276123e-06, 0.541015625) (6.276947498321533e-06, 0.54296875) (7.687521457672118e-06, 0.544921875) (9.212245941162109e-06, 0.546875) (1.0872859954833983e-05, 0.548828125) (1.2678633689880371e-05, 0.55078125) (1.463073444366455e-05, 0.552734375) (1.6729366302490234e-05, 0.5546875) (1.895638656616211e-05, 0.556640625) (2.127371788024902e-05, 0.55859375) (2.3652442932128905e-05, 0.560546875) (2.607011032104492e-05, 0.5625) (2.8507537841796873e-05, 0.564453125) (3.0957815170288084e-05, 0.56640625) (3.3408554077148437e-05, 0.568359375) (3.5841110229492185e-05, 0.5703125) (3.824104309082031e-05, 0.572265625) (4.059053039550781e-05, 0.57421875) (4.287144088745117e-05, 0.576171875) (4.5071762084960935e-05, 0.578125) (4.717525482177734e-05, 0.580078125) (4.915922546386718e-05, 0.58203125) (5.100843048095703e-05, 0.583984375) (5.270846557617187e-05, 0.5859375) (5.424959564208984e-05, 0.587890625) (5.5640365600585934e-05, 0.58984375) (5.688405227661132e-05, 0.591796875) (5.7977123260498045e-05, 0.59375) (5.892313766479492e-05, 0.595703125) (5.971807098388672e-05, 0.59765625) (6.034863662719726e-05, 0.599609375) (6.079908752441406e-05, 0.6015625) (6.103613662719726e-05, 0.603515625) (6.101813507080078e-05, 0.60546875) (6.072638320922851e-05, 0.607421875) (6.015424346923828e-05, 0.609375) (5.9307521820068356e-05, 0.611328125) (5.8218940734863276e-05, 0.61328125) (5.6923183441162105e-05, 0.615234375) (5.546483993530273e-05, 0.6171875) (5.390670013427734e-05, 0.619140625) (5.229561233520508e-05, 0.62109375) (5.0672706604003904e-05, 0.623046875) (4.908175277709961e-05, 0.625) (4.755013656616211e-05, 0.626953125) (4.610747146606445e-05, 0.62890625) (4.4801872253417966e-05, 0.630859375) (4.368487548828125e-05, 0.6328125) (4.282525634765625e-05, 0.634765625) (4.2307281494140626e-05, 0.63671875) (4.21856575012207e-05, 0.638671875) (4.249710083007812e-05, 0.640625) (4.3267520904541016e-05, 0.642578125) (4.4486618041992185e-05, 0.64453125) (4.613185882568359e-05, 0.646484375) (4.81630744934082e-05, 0.6484375) (5.0507598876953124e-05, 0.650390625) (5.3103969573974604e-05, 0.65234375) (5.590629196166992e-05, 0.654296875) (5.887039184570312e-05, 0.65625) (6.196984100341796e-05, 0.658203125) (6.518114471435546e-05, 0.66015625) (6.84627227783203e-05, 0.662109375) (7.177253723144531e-05, 0.6640625) (7.506065368652344e-05, 0.666015625) (7.82592315673828e-05, 0.66796875) (8.131789398193359e-05, 0.669921875) (8.419728851318359e-05, 0.671875) (8.68593521118164e-05, 0.673828125) (8.929285430908203e-05, 0.67578125) (9.149984741210937e-05, 0.677734375) (9.349559020996093e-05, 0.6796875) (9.532182312011718e-05, 0.681640625) (9.70141143798828e-05, 0.68359375) (9.859051513671874e-05, 0.685546875) (0.00010006407928466797, 0.6875) (0.00010143496704101562, 0.689453125) (0.00010269642639160156, 0.69140625) (0.00010385032653808594, 0.693359375) (0.00010489515686035156, 0.6953125) (0.00010582684326171874, 0.697265625) (0.00010665324401855468, 0.69921875) (0.00010737870788574219, 0.701171875) (0.00010800479888916015, 0.703125) (0.000108537353515625, 0.705078125) (0.0001089710464477539, 0.70703125) (0.00010929260253906249, 0.708984375) (0.00010948426818847655, 0.7109375) (0.00010951724243164061, 0.712890625) (0.00010936479187011719, 0.71484375) (0.00010901080322265625, 0.716796875) (0.000108443603515625, 0.71875) (0.00010765753173828124, 0.720703125) (0.00010665332031249999, 0.72265625) (0.00010543156433105468, 0.724609375) (0.00010399732208251952, 0.7265625) (0.00010236154174804687, 0.728515625) (0.00010053207397460938, 0.73046875) (9.851588439941406e-05, 0.732421875) (9.632044982910155e-05, 0.734375) (9.395111083984374e-05, 0.736328125) (9.141620635986327e-05, 0.73828125) (8.872785186767577e-05, 0.740234375) (8.589939880371093e-05, 0.7421875) (8.294675445556641e-05, 0.744140625) (7.988713073730468e-05, 0.74609375) (7.6736328125e-05, 0.748046875) (7.350995635986328e-05, 0.75) (7.02237777709961e-05, 0.751953125) (6.689217376708984e-05, 0.75390625) (6.352909851074219e-05, 0.755859375) (6.014763259887695e-05, 0.7578125) (5.67590103149414e-05, 0.759765625) (5.337493515014648e-05, 0.76171875) (5.000825119018555e-05, 0.763671875) (4.667206573486328e-05, 0.765625) (4.337993240356445e-05, 0.767578125) (4.014527130126953e-05, 0.76953125) (3.6980621337890625e-05, 0.771484375) (3.389825439453125e-05, 0.7734375) (3.0910194396972654e-05, 0.775390625) (2.802722930908203e-05, 0.77734375) (2.5258819580078125e-05, 0.779296875) (2.2613140106201172e-05, 0.78125) (2.0096855163574216e-05, 0.783203125) (1.771552848815918e-05, 0.78515625) (1.5473783493041993e-05, 0.787109375) (1.3375040054321288e-05, 0.7890625) (1.1421552658081053e-05, 0.791015625) (9.614548683166503e-06, 0.79296875) (7.95423698425293e-06, 0.794921875) (6.4398546218872064e-06, 0.796875) (5.069786548614502e-06, 0.798828125) (3.841479778289795e-06, 0.80078125) (2.7514073848724364e-06, 0.802734375) (1.7951672077178955e-06, 0.8046875) (9.674975275993348e-07, 0.806640625) (2.623224556446075e-07, 0.80859375) (-3.270715773105621e-07, 0.810546875) (-8.080021142959594e-07, 0.8125) (-1.1884183883666991e-06, 0.814453125) (-1.4767781496047972e-06, 0.81640625) (-1.6819612979888915e-06, 0.818359375) (-1.81324303150177e-06, 0.8203125) (-1.8801610469818115e-06, 0.822265625) (-1.8925416469573973e-06, 0.82421875) (-1.8606619834899902e-06, 0.826171875) (-1.7951308488845824e-06, 0.828125) (-1.7067770957946776e-06, 0.830078125) (-1.6066396236419676e-06, 0.83203125) (-1.505773663520813e-06, 0.833984375) (-1.415177822113037e-06, 0.8359375) (-1.3457754850387573e-06, 0.837890625) (-1.308122992515564e-06, 0.83984375) (-1.3122321367263793e-06, 0.841796875) (-1.367542505264282e-06, 0.84375) (-1.4828064441680908e-06, 0.845703125) (-1.6660666465759277e-06, 0.84765625) (-1.9247074127197266e-06, 0.849609375) (-2.2653741836547853e-06, 0.8515625) (-2.6939444541931153e-06, 0.853515625) (-3.2156031131744383e-06, 0.85546875) (-3.834803104400634e-06, 0.857421875) (-4.555257320404053e-06, 0.859375) (-5.379996299743652e-06, 0.861328125) (-6.3113298416137696e-06, 0.86328125) (-7.350854396820068e-06, 0.865234375) (-8.499490737915039e-06, 0.8671875) (-9.757486343383788e-06, 0.869140625) (-1.1124466896057129e-05, 0.87109375) (-1.2599514007568358e-05, 0.873046875) (-1.4181205749511717e-05, 0.875) (-1.586762809753418e-05, 0.876953125) (-1.7656415939331055e-05, 0.87890625) (-1.9544757843017576e-05, 0.880859375) (-2.1529411315917967e-05, 0.8828125) (-2.360675811767578e-05, 0.884765625) (-2.577277374267578e-05, 0.88671875) (-2.802304458618164e-05, 0.888671875) (-3.0352760314941404e-05, 0.890625) (-3.275675964355469e-05, 0.892578125) (-3.5229545593261715e-05, 0.89453125) (-3.776539230346679e-05, 0.896484375) (-4.035840606689453e-05, 0.8984375) (-4.30025634765625e-05, 0.900390625) (-4.569181442260742e-05, 0.90234375) (-4.842013931274414e-05, 0.904296875) (-5.1181625366210934e-05, 0.90625) (-5.39705581665039e-05, 0.908203125) (-5.678142547607422e-05, 0.91015625) (-5.960903930664062e-05, 0.912109375) (-6.244846343994141e-05, 0.9140625) (-6.529508972167969e-05, 0.916015625) (-6.814463806152343e-05, 0.91796875) (-7.099322509765624e-05, 0.919921875) (-7.383731079101562e-05, 0.921875) (-7.667378997802735e-05, 0.923828125) (-7.94999008178711e-05, 0.92578125) (-8.231324005126952e-05, 0.927734375) (-8.511172485351562e-05, 0.9296875) (-8.78936538696289e-05, 0.931640625) (-9.065756225585937e-05, 0.93359375) (-9.340227508544921e-05, 0.935546875) (-9.612677001953125e-05, 0.9375) (-9.883019256591796e-05, 0.939453125) (-0.00010151178741455078, 0.94140625) (-0.0001041708984375, 0.943359375) (-0.00010680696105957031, 0.9453125) (-0.00010941952514648437, 0.947265625) (-0.00011200823974609375, 0.94921875) (-0.0001145728302001953, 0.951171875) (-0.00011711312103271484, 0.953125) (-0.00011962904357910155, 0.955078125) (-0.00012212068176269532, 0.95703125) (-0.00012458815002441406, 0.958984375) (-0.00012703170013427735, 0.9609375) (-0.0001294515380859375, 0.962890625) (-0.00013184791564941405, 0.96484375) (-0.0001342210235595703, 0.966796875) (-0.00013657106018066405, 0.96875) (-0.00013889813232421873, 0.970703125) (-0.0001412022705078125, 0.97265625) (-0.0001434833984375, 0.974609375) (-0.0001457412414550781, 0.9765625) (-0.00014797543334960938, 0.978515625) (-0.00015018547058105467, 0.98046875) (-0.0001523706817626953, 0.982421875) (-0.00015453018188476563, 0.984375) (-0.00015666288757324218, 0.986328125) (-0.00015876742553710938, 0.98828125) (-0.00016084219360351561, 0.990234375) (-0.0001628854522705078, 0.9921875) (-0.00016489529418945313, 0.994140625) (-0.0001668697509765625, 0.99609375) (-0.00016880662536621093, 0.998046875) (-0.00017070379638671875, 1.0) (-0.00017255914306640624, 1.001953125) (-0.00017437075805664062, 1.00390625) (-0.0001761369171142578, 1.005859375) (-0.00017785610961914061, 1.0078125) (-0.00017952687072753906, 1.009765625) (-0.00018114794921874998, 1.01171875) (-0.00018271824645996093, 1.013671875) (-0.00018423692321777342, 1.015625) (-0.00018570333862304687, 1.017578125) (-0.0001871171112060547, 1.01953125) (-0.00018847795104980468, 1.021484375) (-0.00018978585815429688, 1.0234375) (-0.000191041015625, 1.025390625) (-0.00019224386596679687, 1.02734375) (-0.00019339515686035155, 1.029296875) (-0.00019449586486816405, 1.03125) (-0.00019554705810546875, 1.033203125) (-0.0001965498046875, 1.03515625) (-0.00019750531005859374, 1.037109375) (-0.00019841491699218748, 1.0390625) (-0.00019928015136718748, 1.041015625) (-0.00020010260009765624, 1.04296875) (-0.00020088385009765623, 1.044921875) (-0.0002016255645751953, 1.046875) (-0.0002023296661376953, 1.048828125) (-0.00020299838256835937, 1.05078125) (-0.00020363426208496092, 1.052734375) (-0.00020424002075195312, 1.0546875) (-0.00020481846618652342, 1.056640625) (-0.00020537248229980467, 1.05859375) (-0.00020590513610839844, 1.060546875) (-0.00020641972351074218, 1.0625) (-0.00020691958618164062, 1.064453125) (-0.0002074078369140625, 1.06640625) (-0.00020788723754882813, 1.068359375) (-0.0002083603515625, 1.0703125) (-0.0002088297424316406, 1.072265625) (-0.00020929806518554686, 1.07421875) (-0.000209767822265625, 1.076171875) (-0.0002102412414550781, 1.078125) (-0.0002107200012207031, 1.080078125) (-0.00021120541381835936, 1.08203125) (-0.00021169869995117186, 1.083984375) (-0.00021220083618164062, 1.0859375) (-0.00021271238708496092, 1.087890625) (-0.00021323353576660156, 1.08984375) (-0.0002137637939453125, 1.091796875) (-0.00021430233764648438, 1.09375) (-0.00021484854125976562, 1.095703125) (-0.00021540170288085936, 1.09765625) (-0.00021596145629882812, 1.099609375) (-0.0002165272216796875, 1.1015625) (-0.000217098388671875, 1.103515625) (-0.0002176745910644531, 1.10546875) (-0.00021825564575195312, 1.107421875) (-0.0002188415832519531, 1.109375) (-0.00021943231201171874, 1.111328125) (-0.00022002723693847654, 1.11328125) (-0.00022062538146972656, 1.115234375) (-0.00022122592163085935, 1.1171875) (-0.000221828125, 1.119140625) (-0.00022243115234374999, 1.12109375) (-0.00022303414916992188, 1.123046875) (-0.00022363549804687498, 1.125) (-0.00022423426818847655, 1.126953125) (-0.00022483070373535154, 1.12890625) (-0.00022542550659179688, 1.130859375) (-0.00022601974487304686, 1.1328125) (-0.00022661398315429687, 1.134765625) (-0.0002272083282470703, 1.13671875) (-0.00022780430603027343, 1.138671875) (-0.00022840576171875, 1.140625) (-0.00022901718139648437, 1.142578125) (-0.00022964306640625, 1.14453125) (-0.00023028811645507813, 1.146484375) (-0.00023095639038085936, 1.1484375) (-0.0002316543426513672, 1.150390625) (-0.0002323908233642578, 1.15234375) (-0.00023317372131347654, 1.154296875) (-0.00023400936889648435, 1.15625) (-0.00023490145874023436, 1.158203125) (-0.00023585092163085937, 1.16015625) (-0.0002368603820800781, 1.162109375) (-0.00023793458557128905, 1.1640625) (-0.0002390762023925781, 1.166015625) (-0.00024028652954101562, 1.16796875) (-0.000241560302734375, 1.169921875) (-0.00024288514709472654, 1.171875) (-0.0002442539520263672, 1.173828125) (-0.00024566455078124997, 1.17578125) (-0.0002471155700683594, 1.177734375) (-0.00024860650634765625, 1.1796875) (-0.000250130126953125, 1.181640625) (-0.00025167550659179686, 1.18359375) (-0.00025324334716796874, 1.185546875) (-0.0002548468780517578, 1.1875) (-0.00025650146484375, 1.189453125) (-0.0002582208557128906, 1.19140625) (-0.000260005126953125, 1.193359375) (-0.0002618442077636719, 1.1953125) (-0.00026373669433593747, 1.197265625) (-0.0002656831665039062, 1.19921875) (-0.0002676944885253906, 1.201171875) (-0.00026978753662109376, 1.203125) (-0.00027196035766601564, 1.205078125) (-0.00027420565795898436, 1.20703125) (-0.00027650827026367186, 1.208984375) (-0.0002788390197753906, 1.2109375) (-0.00028117611694335935, 1.212890625) (-0.00028349050903320313, 1.21484375) (-0.000285718017578125, 1.216796875) (-0.0002877838439941406, 1.21875) (-0.00028958807373046874, 1.220703125) (-0.00029100857543945313, 1.22265625) (-0.0002920281677246094, 1.224609375) (-0.0002927138366699219, 1.2265625) (-0.0002931666259765625, 1.228515625) (-0.0002935672607421875, 1.23046875) (-0.00029403890991210936, 1.232421875) (-0.0002945974426269531, 1.234375) (-0.0002953855590820312, 1.236328125) (-0.0002966273498535156, 1.23828125) (-0.0002983111877441406, 1.240234375) (-0.0003002579040527344, 1.2421875) (-0.00030205136108398434, 1.244140625) (-0.00030301895141601564, 1.24609375) (-0.000302792236328125, 1.248046875) (-0.00030134945678710935, 1.25) (-0.00029852288818359374, 1.251953125) (-0.000294046875, 1.25390625) (-0.0002879840393066406, 1.255859375) (-0.00028068939208984376, 1.2578125) (-0.00027306658935546876, 1.259765625) (-0.0002665189819335937, 1.26171875) (-0.0002620047912597656, 1.263671875) (-0.00026005706787109374, 1.265625) (-0.00026140786743164064, 1.267578125) (-0.0002669324340820312, 1.26953125) (-0.00027719021606445313, 1.271484375) (-0.0002924528198242187, 1.2734375) (-0.0003123336181640625, 1.275390625) (-0.00033578729248046876, 1.27734375) (-0.0003621656799316406, 1.279296875) (-0.0003900074462890625, 1.28125) (-0.00041636358642578125, 1.283203125) (-0.00043842718505859374, 1.28515625) (-0.00045340597534179684, 1.287109375) (-0.0004613460693359375, 1.2890625) (-0.0004658594665527344, 1.291015625) (-0.00046773410034179686, 1.29296875) (-0.00046549847412109374, 1.294921875) (-0.00045357556152343746, 1.296875) (-0.00042110681152343746, 1.298828125) (-0.00036362875366210935, 1.30078125) (-0.0002820120849609375, 1.302734375) (-0.0001808022003173828, 1.3046875) (-7.286345672607422e-05, 1.306640625) (3.0549476623535156e-05, 1.30859375) (0.00012036605072021485, 1.310546875) (0.00018519577026367186, 1.3125) (0.0002190079803466797, 1.314453125) (0.00022059588623046873, 1.31640625) (0.00019154452514648436, 1.318359375) (0.00014061456298828124, 1.3203125) (7.851055908203125e-05, 1.322265625) (1.1782499313354492e-05, 1.32421875) (-5.5261081695556636e-05, 1.326171875) (-0.00012172042846679687, 1.328125) (-0.000189219970703125, 1.330078125) (-0.00025671142578125, 1.33203125) (-0.0003213351135253906, 1.333984375) (-0.0003801468505859375, 1.3359375) (-0.00042996826171875, 1.337890625) (-0.0004694953308105469, 1.33984375) (-0.0004994333801269531, 1.341796875) (-0.0005211013183593749, 1.34375) (-0.0005360823974609374, 1.345703125) (-0.0005458429565429687, 1.34765625) (-0.0005519073486328124, 1.349609375) (-0.0005558609619140624, 1.3515625) (-0.0005592957763671875, 1.353515625) (-0.0005635856933593749, 1.35546875) (-0.0005691846923828125, 1.357421875) (-0.000575899658203125, 1.359375) (-0.0005833937988281249, 1.361328125) (-0.0005911364746093749, 1.36328125) (-0.0005984759521484375, 1.365234375) (-0.000604619873046875, 1.3671875) (-0.0006084421386718749, 1.369140625) (-0.0006091162109374999, 1.37109375) (-0.00060667724609375, 1.373046875) (-0.0006017212524414063, 1.375) (-0.0005951743774414062, 1.376953125) (-0.0005880589599609375, 1.37890625) (-0.0005812203369140624, 1.380859375) (-0.0005756424560546875, 1.3828125) (-0.000572621826171875, 1.384765625) (-0.0005729107666015624, 1.38671875) (-0.000576489013671875, 1.388671875) (-0.0005828123779296875, 1.390625) (-0.0005908207397460937, 1.392578125) (-0.0005995286865234375, 1.39453125) (-0.0006082242431640624, 1.396484375) (-0.0006161278076171875, 1.3984375) (-0.000622446533203125, 1.400390625) (-0.000626951171875, 1.40234375) (-0.00062998974609375, 1.404296875) (-0.0006321586303710937, 1.40625) (-0.0006341921997070312, 1.408203125) (-0.0006364652709960937, 1.41015625) (-0.0006390616455078125, 1.412109375) (-0.0006419613037109375, 1.4140625) (-0.0006447065429687499, 1.416015625) (-0.0006461756591796874, 1.41796875) (-0.000644587646484375, 1.419921875) (-0.0006380328979492187, 1.421875) (-0.0006250076904296875, 1.423828125) (-0.0006045567626953125, 1.42578125) (-0.0005759354858398437, 1.427734375) (-0.0005385156860351562, 1.4296875) (-0.0004922622680664062, 1.431640625) (-0.0004379744567871094, 1.43359375) (-0.00037749499511718747, 1.435546875) (-0.00031322396850585934, 1.4375) (-0.00024730758666992184, 1.439453125) (-0.00018161715698242187, 1.44140625) (-0.00011814906311035156, 1.443359375) (-5.917224884033203e-05, 1.4453125) (-6.793272972106933e-06, 1.447265625) (3.740429306030273e-05, 1.44921875) (7.277864074707031e-05, 1.451171875) (9.957931518554687e-05, 1.453125) (0.00011831060028076171, 1.455078125) (0.00012956137084960936, 1.45703125) (0.00013424270629882812, 1.458984375) (0.0001338052978515625, 1.4609375) (0.000129927001953125, 1.462890625) (0.00012429486083984374, 1.46484375) (0.00011832503509521484, 1.466796875) (0.00011274213409423828, 1.46875) (0.00010786199188232422, 1.470703125) (0.0001039073486328125, 1.47265625) (0.00010094537353515625, 1.474609375) (9.873657989501952e-05, 1.4765625) (9.695950317382812e-05, 1.478515625) (9.516907501220703e-05, 1.48046875) (9.272211456298827e-05, 1.482421875) (8.936898803710937e-05, 1.484375) (8.520318603515625e-05, 1.486328125) (8.03473129272461e-05, 1.48828125) (7.499940490722655e-05, 1.490234375) (6.941410064697266e-05, 1.4921875) (6.37177734375e-05, 1.494140625) (5.807598876953125e-05, 1.49609375) (5.293632888793945e-05, 1.498046875) (4.856605529785156e-05, 1.5) (4.502247619628906e-05, 1.501953125) (4.235211944580078e-05, 1.50390625) (4.047845458984375e-05, 1.505859375) (3.93350601196289e-05, 1.5078125) (3.900419235229492e-05, 1.509765625) (3.955242919921875e-05, 1.51171875) (4.08760871887207e-05, 1.513671875) (4.2905982971191406e-05, 1.515625) (4.562149810791015e-05, 1.517578125) (4.8985290527343746e-05, 1.51953125) (5.304449462890625e-05, 1.521484375) (5.782484436035156e-05, 1.5234375) (6.326943969726562e-05, 1.525390625) (6.932685089111327e-05, 1.52734375) (7.597964477539062e-05, 1.529296875) (8.32232666015625e-05, 1.53125) (9.106166076660156e-05, 1.533203125) (9.950329589843749e-05, 1.53515625) (0.00010853361511230468, 1.537109375) (0.00011811456298828124, 1.5390625) (0.00012819232177734374, 1.541015625) (0.00013869238281249998, 1.54296875) (0.00014952027893066407, 1.544921875) (0.0001605617218017578, 1.546875) (0.00017170404052734375, 1.548828125) (0.0001828360137939453, 1.55078125) (0.0001938465118408203, 1.552734375) (0.0002046536407470703, 1.5546875) (0.00021519027709960938, 1.556640625) (0.0002254011993408203, 1.55859375) (0.00023525054931640624, 1.560546875) (0.00024468902587890625, 1.5625) (0.00025366094970703123, 1.564453125) (0.0002621062622070312, 1.56640625) (0.0002699468994140625, 1.568359375) (0.00027712701416015623, 1.5703125) (0.00028362768554687496, 1.572265625) (0.0002894457092285156, 1.57421875) (0.00029460382080078124, 1.576171875) (0.0002991528930664062, 1.578125) (0.00030313571166992184, 1.580078125) (0.00030660595703125, 1.58203125) (0.00030963476562499996, 1.583984375) (0.0003122620849609375, 1.5859375) (0.0003145104064941406, 1.587890625) (0.0003163885192871094, 1.58984375) (0.00031788031005859375, 1.591796875) (0.00031898291015625, 1.59375) (0.0003197097473144531, 1.595703125) (0.00032008111572265623, 1.59765625) (0.00032013623046875, 1.599609375) (0.00031990740966796874, 1.6015625) (0.0003194081726074219, 1.603515625) (0.000318654052734375, 1.60546875) (0.00031764697265624996, 1.607421875) (0.00031636468505859375, 1.609375) (0.0003147845764160156, 1.611328125) (0.0003128653869628906, 1.61328125) (0.0003105499572753906, 1.615234375) (0.0003078095703125, 1.6171875) (0.000304630859375, 1.619140625) (0.00030100936889648435, 1.62109375) (0.00029695556640625, 1.623046875) (0.00029246783447265626, 1.625) (0.0002875322265625, 1.626953125) (0.00028213623046875, 1.62890625) (0.0002762527465820312, 1.630859375) (0.000269845947265625, 1.6328125) (0.000262881591796875, 1.634765625) (0.00025531317138671874, 1.63671875) (0.0002471104431152344, 1.638671875) (0.00023827413940429685, 1.640625) (0.00022881607055664062, 1.642578125) (0.00021877188110351563, 1.64453125) (0.00020819003295898436, 1.646484375) (0.0001971075744628906, 1.6484375) (0.00018556921386718748, 1.650390625) (0.0001736326141357422, 1.65234375) (0.0001613585662841797, 1.654296875) (0.0001488230743408203, 1.65625) (0.0001361165771484375, 1.658203125) (0.00012332946014404297, 1.66015625) (0.00011057719421386718, 1.662109375) (9.800117492675781e-05, 1.6640625) (8.574476623535156e-05, 1.666015625) (7.396192932128906e-05, 1.66796875) (6.278371810913086e-05, 1.669921875) (5.230451583862304e-05, 1.671875) (4.2608104705810546e-05, 1.673828125) (3.3759201049804687e-05, 1.67578125) (2.5808059692382812e-05, 1.677734375) (1.8799570083618164e-05, 1.6796875) (1.2754169464111328e-05, 1.681640625) (7.663827419281006e-06, 1.68359375) (3.511622428894043e-06, 1.685546875) (2.677364647388458e-07, 1.6875) (-2.1186585426330566e-06, 1.689453125) (-3.7065212726593017e-06, 1.69140625) (-4.588998794555664e-06, 1.693359375) (-4.8930726051330564e-06, 1.6953125) (-4.74083948135376e-06, 1.697265625) (-4.25601863861084e-06, 1.69921875) (-3.5442099571228027e-06, 1.701171875) (-2.6821773052215576e-06, 1.703125) (-1.7438867092132568e-06, 1.705078125) (-7.961608171463013e-07, 1.70703125) (1.0841226577758789e-07, 1.708984375) (9.268203973770141e-07, 1.7109375) (1.6315312385559081e-06, 1.712890625) (2.2147860527038575e-06, 1.71484375) (2.6684627532958985e-06, 1.716796875) (2.9845335483551026e-06, 1.71875) (3.1716156005859373e-06, 1.720703125) (3.2455091476440427e-06, 1.72265625) (3.2439880371093747e-06, 1.724609375) (3.2268295288085935e-06, 1.7265625) (3.2412385940551757e-06, 1.728515625) (3.325543165206909e-06, 1.73046875) (3.507801532745361e-06, 1.732421875) (3.7991747856140136e-06, 1.734375) (4.20866060256958e-06, 1.736328125) (4.743171691894531e-06, 1.73828125) (5.396916389465332e-06, 1.740234375) (6.15481948852539e-06, 1.7421875) (6.999504089355469e-06, 1.744140625) (7.907906055450438e-06, 1.74609375) (8.861438751220702e-06, 1.748046875) (9.847329139709473e-06, 1.75) (1.084465217590332e-05, 1.751953125) (1.182893943786621e-05, 1.75390625) (1.2769767761230469e-05, 1.755859375) (1.3629652023315429e-05, 1.7578125) (1.4380413055419922e-05, 1.759765625) (1.500257682800293e-05, 1.76171875) (1.5480360984802245e-05, 1.763671875) (1.5804370880126953e-05, 1.765625) (1.5968594551086424e-05, 1.767578125) (1.5968843460083008e-05, 1.76953125) (1.580861473083496e-05, 1.771484375) (1.5497817039489746e-05, 1.7734375) (1.5044777870178222e-05, 1.775390625) (1.4457674026489257e-05, 1.77734375) (1.3743326187133788e-05, 1.779296875) (1.2905941009521484e-05, 1.78125) (1.1952936172485351e-05, 1.783203125) (1.0894052505493164e-05, 1.78515625) (9.73944854736328e-06, 1.787109375) (8.50053596496582e-06, 1.7890625) (7.187566757202148e-06, 1.791015625) (5.80915355682373e-06, 1.79296875) (4.3745698928833e-06, 1.794921875) (2.8933002948760984e-06, 1.796875) (1.373864412307739e-06, 1.798828125) (-1.7551290988922118e-07, 1.80078125) (-1.7479066848754883e-06, 1.802734375) (-3.3377649784088135e-06, 1.8046875) (-4.938168525695801e-06, 1.806640625) (-6.54105281829834e-06, 1.80859375) (-8.138202667236328e-06, 1.810546875) (-9.720928192138672e-06, 1.8125) (-1.1280860900878906e-05, 1.814453125) (-1.2810218811035156e-05, 1.81640625) (-1.4300986289978027e-05, 1.818359375) (-1.5745168685913087e-05, 1.8203125) (-1.7135818481445313e-05, 1.822265625) (-1.84669189453125e-05, 1.82421875) (-1.973329162597656e-05, 1.826171875) (-2.0930715560913085e-05, 1.828125) (-2.2055364608764646e-05, 1.830078125) (-2.3103805541992186e-05, 1.83203125) (-2.407335090637207e-05, 1.833984375) (-2.496192169189453e-05, 1.8359375) (-2.5767919540405272e-05, 1.837890625) (-2.6490274429321287e-05, 1.83984375) (-2.7128299713134765e-05, 1.841796875) (-2.768166923522949e-05, 1.84375) (-2.8150623321533203e-05, 1.845703125) (-2.8535911560058594e-05, 1.84765625) (-2.8838649749755858e-05, 1.849609375) (-2.906030464172363e-05, 1.8515625) (-2.9202600479125976e-05, 1.853515625) (-2.926741600036621e-05, 1.85546875) (-2.9257003784179687e-05, 1.857421875) (-2.917394256591797e-05, 1.859375) (-2.9020994186401366e-05, 1.861328125) (-2.8801137924194334e-05, 1.86328125) (-2.8517520904541013e-05, 1.865234375) (-2.8173450469970702e-05, 1.8671875) (-2.7772581100463864e-05, 1.869140625) (-2.7318893432617187e-05, 1.87109375) (-2.6816524505615232e-05, 1.873046875) (-2.6269723892211912e-05, 1.875) (-2.5682891845703122e-05, 1.876953125) (-2.5060476303100585e-05, 1.87890625) (-2.440701675415039e-05, 1.880859375) (-2.372709274291992e-05, 1.8828125) (-2.3025039672851563e-05, 1.884765625) (-2.2304927825927733e-05, 1.88671875) (-2.157059097290039e-05, 1.888671875) (-2.0825611114501954e-05, 1.890625) (-2.007337188720703e-05, 1.892578125) (-1.9317060470581055e-05, 1.89453125) (-1.8559574127197264e-05, 1.896484375) (-1.780350875854492e-05, 1.8984375) (-1.7051252365112304e-05, 1.900390625) (-1.6304937362670897e-05, 1.90234375) (-1.556644821166992e-05, 1.904296875) (-1.4837385177612304e-05, 1.90625) (-1.4118974685668944e-05, 1.908203125) (-1.3412060737609862e-05, 1.91015625) (-1.2717144012451172e-05, 1.912109375) (-1.2034402847290039e-05, 1.9140625) (-1.1363735198974609e-05, 1.916015625) (-1.0704773902893067e-05, 1.91796875) (-1.0056870460510253e-05, 1.919921875) (-9.419116973876952e-06, 1.921875) (-8.790395736694335e-06, 1.923828125) (-8.169384956359862e-06, 1.92578125) (-7.55457592010498e-06, 1.927734375) (-6.944239616394042e-06, 1.9296875) (-6.336394309997558e-06, 1.931640625) (-5.728805065155029e-06, 1.93359375) (-5.1190395355224605e-06, 1.935546875) (-4.504493713378906e-06, 1.9375) (-3.882418632507324e-06, 1.939453125) (-3.249948501586914e-06, 1.94140625) (-2.6041178703308104e-06, 1.943359375) (-1.9419105052947995e-06, 1.9453125) (-1.260335922241211e-06, 1.947265625) (-5.564479827880859e-07, 1.94921875) (1.7265796661376952e-07, 1.951171875) (9.298577308654784e-07, 1.953125) (1.7180160284042357e-06, 1.955078125) (2.5399694442749024e-06, 1.95703125) (3.3984904289245603e-06, 1.958984375) (4.2962670326232906e-06, 1.9609375) (5.235885620117187e-06, 1.962890625) (6.219804286956787e-06, 1.96484375) (7.250308990478516e-06, 1.966796875) (8.329450607299804e-06, 1.96875) (9.45897102355957e-06, 1.970703125) (1.0640279769897461e-05, 1.97265625) (1.1874448776245117e-05, 1.974609375) (1.3162227630615234e-05, 1.9765625) (1.4504058837890625e-05, 1.978515625) (1.5900064468383787e-05, 1.98046875) (1.735005187988281e-05, 1.982421875) (1.8853511810302734e-05, 1.984375) (2.040966033935547e-05, 1.986328125) (2.201742935180664e-05, 1.98828125) (2.367547798156738e-05, 1.990234375) (2.5382150650024413e-05, 1.9921875) (2.7135467529296873e-05, 1.994140625) (2.8933116912841796e-05, 1.99609375) (3.077251815795898e-05, 1.998046875) (3.2650836944580075e-05, 2.0) (3.456502914428711e-05, 2.001953125) (3.6511844635009764e-05, 2.00390625) (3.848786163330078e-05, 2.005859375) (4.04894790649414e-05, 2.0078125) (4.251298522949218e-05, 2.009765625) (4.455452728271484e-05, 2.01171875) (4.661012649536133e-05, 2.013671875) (4.867559432983398e-05, 2.015625) (5.074648666381836e-05, 2.017578125) (5.281815719604492e-05, 2.01953125) (5.48857307434082e-05, 2.021484375) (5.694417572021484e-05, 2.0234375) (5.898827743530273e-05, 2.025390625) (6.10126953125e-05, 2.02734375) (6.301201629638671e-05, 2.029296875) (6.498081970214843e-05, 2.03125) (6.691371917724609e-05, 2.033203125) (6.880545043945313e-05, 2.03515625) (7.065081787109375e-05, 2.037109375) (7.244477081298828e-05, 2.0390625) (7.418229675292969e-05, 2.041015625) (7.585853576660155e-05, 2.04296875) (7.746875e-05, 2.044921875) (7.900840759277343e-05, 2.046875) (8.047312927246093e-05, 2.048828125) (8.185874938964843e-05, 2.05078125) (8.316130828857422e-05, 2.052734375) (8.43771514892578e-05, 2.0546875) (8.550286865234375e-05, 2.056640625) (8.653540802001953e-05, 2.05859375) (8.747195434570312e-05, 2.060546875) (8.830996704101562e-05, 2.0625) (8.90470962524414e-05, 2.064453125) (8.968122100830078e-05, 2.06640625) (9.021044921875e-05, 2.068359375) (9.06331329345703e-05, 2.0703125) (9.09478759765625e-05, 2.072265625) (9.115354919433594e-05, 2.07421875) (9.124935150146484e-05, 2.076171875) (9.12349395751953e-05, 2.078125) (9.111035919189453e-05, 2.080078125) (9.087619018554687e-05, 2.08203125) (9.053350830078125e-05, 2.083984375) (9.008384704589843e-05, 2.0859375) (8.952920532226562e-05, 2.087890625) (8.887199401855468e-05, 2.08984375) (8.811505889892578e-05, 2.091796875) (8.726161193847655e-05, 2.09375) (8.631520843505859e-05, 2.095703125) (8.527969360351563e-05, 2.09765625) (8.415923309326171e-05, 2.099609375) (8.295829772949218e-05, 2.1015625) (8.168167114257812e-05, 2.103515625) (8.033442687988281e-05, 2.10546875) (7.8921875e-05, 2.107421875) (7.744951629638672e-05, 2.109375) (7.592294311523437e-05, 2.111328125) (7.434786224365234e-05, 2.11328125) (7.273001098632812e-05, 2.115234375) (7.107511138916015e-05, 2.1171875) (6.938883209228515e-05, 2.119140625) (6.76767578125e-05, 2.12109375) (6.594440460205077e-05, 2.123046875) (6.419722747802734e-05, 2.125) (6.244063568115233e-05, 2.126953125) (6.0679977416992184e-05, 2.12890625) (5.892051696777344e-05, 2.130859375) (5.716737365722656e-05, 2.1328125) (5.542549133300781e-05, 2.134765625) (5.36995620727539e-05, 2.13671875) (5.199395751953125e-05, 2.138671875) (5.031270217895508e-05, 2.140625) (4.865937423706055e-05, 2.142578125) (4.703707122802734e-05, 2.14453125) (4.544838333129883e-05, 2.146484375) (4.389540863037109e-05, 2.1484375) (4.237974548339844e-05, 2.150390625) (4.0902557373046875e-05, 2.15234375) (3.946455764770508e-05, 2.154296875) (3.806599044799805e-05, 2.15625) (3.670666122436523e-05, 2.158203125) (3.538592529296875e-05, 2.16015625) (3.410267257690429e-05, 2.162109375) (3.285538482666015e-05, 2.1640625) (3.164215087890625e-05, 2.166015625) (3.046057891845703e-05, 2.16796875) (2.9307910919189453e-05, 2.169921875) (2.8181032180786132e-05, 2.171875) (2.7076538085937498e-05, 2.173828125) (2.5990879058837888e-05, 2.17578125) (2.4920427322387696e-05, 2.177734375) (2.3861434936523436e-05, 2.1796875) (2.281009292602539e-05, 2.181640625) (2.176254844665527e-05, 2.18359375) (2.0714923858642577e-05, 2.185546875) (1.9663381576538085e-05, 2.1875) (1.8604139328002928e-05, 2.189453125) (1.753337478637695e-05, 2.19140625) (1.644723892211914e-05, 2.193359375) (1.5341940879821778e-05, 2.1953125) (1.4213756561279297e-05, 2.197265625) (1.3059215545654296e-05, 2.19921875) (1.187516689300537e-05, 2.201171875) (1.0658724784851074e-05, 2.203125) (9.407314300537109e-06, 2.205078125) (8.118763923645019e-06, 2.20703125) (6.79127025604248e-06, 2.208984375) (5.423500537872314e-06, 2.2109375) (4.014620304107666e-06, 2.212890625) (2.564075469970703e-06, 2.21484375) (1.0715702772140502e-06, 2.216796875) (-4.628685414791107e-07, 2.21875) (-2.0389208793640134e-06, 2.220703125) (-3.655902862548828e-06, 2.22265625) (-5.3126902580261225e-06, 2.224609375) (-7.007967948913574e-06, 2.2265625) (-8.740264892578124e-06, 2.228515625) (-1.0507717132568358e-05, 2.23046875) (-1.230810546875e-05, 2.232421875) (-1.4138837814331054e-05, 2.234375) (-1.599692344665527e-05, 2.236328125) (-1.787937355041504e-05, 2.23828125) (-1.9783294677734373e-05, 2.240234375) (-2.1705642700195313e-05, 2.2421875) (-2.3643295288085935e-05, 2.244140625) (-2.5593059539794922e-05, 2.24609375) (-2.7551633834838867e-05, 2.248046875) (-2.951593780517578e-05, 2.25) (-3.148312187194824e-05, 2.251953125) (-3.3450164794921876e-05, 2.25390625) (-3.541383361816406e-05, 2.255859375) (-3.737079620361328e-05, 2.2578125) (-3.931754684448242e-05, 2.259765625) (-4.125080871582031e-05, 2.26171875) (-4.316769409179687e-05, 2.263671875) (-4.5065330505371094e-05, 2.265625) (-4.694091796875e-05, 2.267578125) (-4.8791873931884766e-05, 2.26953125) (-5.0615806579589843e-05, 2.271484375) (-5.241080474853515e-05, 2.2734375) (-5.417554473876953e-05, 2.275390625) (-5.590867233276367e-05, 2.27734375) (-5.760873413085937e-05, 2.279296875) (-5.9274444580078123e-05, 2.28125) (-6.090464782714844e-05, 2.283203125) (-6.249838256835937e-05, 2.28515625) (-6.405490112304688e-05, 2.287109375) (-6.557302856445312e-05, 2.2890625) (-6.70510482788086e-05, 2.291015625) (-6.848754882812499e-05, 2.29296875) (-6.988172912597656e-05, 2.294921875) (-7.123329162597656e-05, 2.296875) (-7.25425796508789e-05, 2.298828125) (-7.381022644042968e-05, 2.30078125) (-7.503704833984374e-05, 2.302734375) (-7.622505950927734e-05, 2.3046875) (-7.737795257568359e-05, 2.306640625) (-7.849971008300781e-05, 2.30859375) (-7.959413146972655e-05, 2.310546875) (-8.066435241699218e-05, 2.3125) (-8.171226501464843e-05, 2.314453125) (-8.274027252197265e-05, 2.31640625) (-8.375291442871093e-05, 2.318359375) (-8.475511932373046e-05, 2.3203125) (-8.57520751953125e-05, 2.322265625) (-8.675006866455078e-05, 2.32421875) (-8.775537872314452e-05, 2.326171875) (-8.877719116210937e-05, 2.328125) (-8.982849884033203e-05, 2.330078125) (-9.092010498046875e-05, 2.33203125) (-9.205966186523437e-05, 2.333984375) (-9.325160980224608e-05, 2.3359375) (-9.449506378173828e-05, 2.337890625) (-9.579065704345703e-05, 2.33984375) (-9.714448547363281e-05, 2.341796875) (-9.856208038330077e-05, 2.34375) (-0.00010005075073242187, 2.345703125) (-0.00010162214660644531, 2.34765625) (-0.00010328660583496093, 2.349609375) (-0.00010506205749511718, 2.3515625) (-0.00010697570037841797, 2.353515625) (-0.0001090485610961914, 2.35546875) (-0.00011129571533203125, 2.357421875) (-0.00011372215270996093, 2.359375) (-0.0001163182144165039, 2.361328125) (-0.00011908026885986328, 2.36328125) (-0.00012201591491699219, 2.365234375) (-0.00012513017272949218, 2.3671875) (-0.00012842938232421875, 2.369140625) (-0.00013191299438476562, 2.37109375) (-0.00013556362915039062, 2.373046875) (-0.00013937063598632812, 2.375) (-0.00014332301330566405, 2.376953125) (-0.0001473843994140625, 2.37890625) (-0.00015150790405273436, 2.380859375) (-0.00015562109375, 2.3828125) (-0.00015962928771972654, 2.384765625) (-0.00016346302795410155, 2.38671875) (-0.00016706095886230468, 2.388671875) (-0.00017036593627929686, 2.390625) (-0.00017334339904785155, 2.392578125) (-0.00017593780517578125, 2.39453125) (-0.000178077392578125, 2.396484375) (-0.00017973236083984373, 2.3984375) (-0.00018086207580566405, 2.400390625) (-0.00018141773986816406, 2.40234375) (-0.00018145652770996094, 2.404296875) (-0.0001810629425048828, 2.40625) (-0.00018036669921874999, 2.408203125) (-0.00017965226745605468, 2.41015625) (-0.00017917620849609373, 2.412109375) (-0.00017916069030761718, 2.4140625) (-0.00017995220947265625, 2.416015625) (-0.00018180511474609373, 2.41796875) (-0.00018468875122070312, 2.419921875) (-0.0001884562072753906, 2.421875) (-0.00019272726440429686, 2.423828125) (-0.00019688241577148436, 2.42578125) (-0.00020055416870117188, 2.427734375) (-0.000203396728515625, 2.4296875) (-0.00020481321716308594, 2.431640625) (-0.0002045254211425781, 2.43359375) (-0.00020272250366210938, 2.435546875) (-0.00019985572814941406, 2.4375) (-0.00019687632751464842, 2.439453125) (-0.00019497320556640624, 2.44140625) (-0.00019491815185546874, 2.443359375) (-0.0001976431884765625, 2.4453125) (-0.0002045460205078125, 2.447265625) (-0.00021646403503417967, 2.44921875) (-0.00023352172851562499, 2.451171875) (-0.00025554101562499996, 2.453125) (-0.0002816436767578125, 2.455078125) (-0.00031037561035156247, 2.45703125) (-0.00034047174072265624, 2.458984375) (-0.0003691389465332031, 2.4609375) (-0.00039169079589843747, 2.462890625) (-0.0004052906494140625, 2.46484375) (-0.00040820016479492185, 2.466796875) (-0.00039975720214843746, 2.46875) (-0.0003819110107421875, 2.470703125) (-0.00035269592285156246, 2.47265625) (-0.0003078319091796875, 2.474609375) (-0.00024534303283691404, 2.4765625) (-0.00016256106567382812, 2.478515625) (-6.229777145385742e-05, 2.48046875) (4.87852783203125e-05, 2.482421875) (0.000166067626953125, 2.484375) (0.00028128268432617184, 2.486328125) (0.0003859054565429687, 2.48828125) (0.00047138616943359374, 2.490234375) (0.0005276802368164062, 2.4921875) (0.0005509937744140624, 2.494140625) (0.0005437767333984375, 2.49609375) (0.0005134378662109374, 2.498046875) (0.0004696167297363281, 2.5) (0.0004188554992675781, 2.501953125) (0.0003638569946289062, 2.50390625) (0.00030460247802734374, 2.505859375) (0.00024177186584472656, 2.5078125) (0.00017789689636230467, 2.509765625) (0.0001168499755859375, 2.51171875) (6.310395050048828e-05, 2.513671875) (1.922093391418457e-05, 2.515625) (-1.423834228515625e-05, 2.517578125) (-3.78561897277832e-05, 2.51953125) (-5.339443969726562e-05, 2.521484375) (-6.277687072753906e-05, 2.5234375) (-6.752817535400391e-05, 2.525390625) (-6.951609039306641e-05, 2.52734375) (-7.055157470703124e-05, 2.529296875) (-7.205610656738281e-05, 2.53125) (-7.527986145019531e-05, 2.533203125) (-8.066751098632813e-05, 2.53515625) (-8.787503051757812e-05, 2.537109375) (-9.635460662841797e-05, 2.5390625) (-0.0001054803466796875, 2.541015625) (-0.00011447950744628906, 2.54296875) (-0.0001226681594848633, 2.544921875) (-0.00012938749694824217, 2.546875) (-0.00013393281555175782, 2.548828125) (-0.00013609521484375, 2.55078125) (-0.00013608116149902344, 2.552734375) (-0.00013422401428222656, 2.5546875) (-0.00013102236938476562, 2.556640625) (-0.000126962646484375, 2.55859375) (-0.0001224373092651367, 2.560546875) (-0.00011789149475097656, 2.5625) (-0.00011379347991943359, 2.564453125) (-0.00011041873168945313, 2.56640625) (-0.000107883056640625, 2.568359375) (-0.00010620169830322265, 2.5703125) (-0.00010526873016357421, 2.572265625) (-0.00010498994445800781, 2.57421875) (-0.0001053003692626953, 2.576171875) (-0.00010609515380859374, 2.578125) (-0.00010725991821289062, 2.580078125) (-0.00010868736267089844, 2.58203125) (-0.00011027235412597655, 2.583984375) (-0.00011192799377441405, 2.5859375) (-0.00011358036041259765, 2.587890625) (-0.000115149169921875, 2.58984375) (-0.00011654662322998046, 2.591796875) (-0.00011768798828125, 2.59375) (-0.00011848909759521484, 2.595703125) (-0.00011887838745117186, 2.59765625) (-0.0001188167266845703, 2.599609375) (-0.00011829016113281249, 2.6015625) (-0.00011730931854248046, 2.603515625) (-0.00011590087890625, 2.60546875) (-0.00011409694671630859, 2.607421875) (-0.000111936767578125, 2.609375) (-0.00010946704101562499, 2.611328125) (-0.00010674312591552734, 2.61328125) (-0.00010381982421874999, 2.615234375) (-0.00010074807739257812, 2.6171875) (-9.757442474365234e-05, 2.619140625) (-9.433949279785156e-05, 2.62109375) (-9.108605194091796e-05, 2.623046875) (-8.785757446289062e-05, 2.625) (-8.469715118408202e-05, 2.626953125) (-8.164434814453125e-05, 2.62890625) (-7.872513580322265e-05, 2.630859375) (-7.595387268066406e-05, 2.6328125) (-7.333663940429687e-05, 2.634765625) (-7.087361145019531e-05, 2.63671875) (-6.85615005493164e-05, 2.638671875) (-6.639356994628906e-05, 2.640625) (-6.435713958740234e-05, 2.642578125) (-6.243399429321288e-05, 2.64453125) (-6.060679626464844e-05, 2.646484375) (-5.885934448242187e-05, 2.6484375) (-5.7176322937011716e-05, 2.650390625) (-5.554263687133789e-05, 2.65234375) (-5.393946075439453e-05, 2.654296875) (-5.23450813293457e-05, 2.65625) (-5.0736198425292964e-05, 2.658203125) (-4.908948516845703e-05, 2.66015625) (-4.7383445739746095e-05, 2.662109375) (-4.559731292724609e-05, 2.6640625) (-4.371004104614258e-05, 2.666015625) (-4.170133972167969e-05, 2.66796875) (-3.955191421508789e-05, 2.669921875) (-3.724404144287109e-05, 2.671875) (-3.476259231567383e-05, 2.673828125) (-3.209245681762695e-05, 2.67578125) (-2.921670913696289e-05, 2.677734375) (-2.6117908477783203e-05, 2.6796875) (-2.2778427124023437e-05, 2.681640625) (-1.91812744140625e-05, 2.68359375) (-1.53114070892334e-05, 2.685546875) (-1.115427589416504e-05, 2.6875) (-6.69553518295288e-06, 2.689453125) (-1.92328679561615e-06, 2.69140625) (3.1719820499420165e-06, 2.693359375) (8.595691680908202e-06, 2.6953125) (1.4348511695861815e-05, 2.697265625) (2.0431472778320312e-05, 2.69921875) (2.6845382690429687e-05, 2.701171875) (3.359046173095703e-05, 2.703125) (4.066752624511719e-05, 2.705078125) (4.807135772705078e-05, 2.70703125) (5.578920745849609e-05, 2.708984375) (6.380677795410156e-05, 2.7109375) (7.210744476318359e-05, 2.712890625) (8.0666748046875e-05, 2.71484375) (8.945574951171875e-05, 2.716796875) (9.843617248535155e-05, 2.71875) (0.00010755905151367187, 2.720703125) (0.00011678299713134765, 2.72265625) (0.0001260741729736328, 2.724609375) (0.0001354035186767578, 2.7265625) (0.00014475057983398437, 2.728515625) (0.00015409341430664062, 2.73046875) (0.00016340701293945313, 2.732421875) (0.00017266868591308594, 2.734375) (0.00018185629272460938, 2.736328125) (0.0001909483184814453, 2.73828125) (0.00019992742919921875, 2.740234375) (0.00020877000427246093, 2.7421875) (0.0002174453125, 2.744140625) (0.00022593568420410155, 2.74609375) (0.00023423196411132813, 2.748046875) (0.0002423415832519531, 2.75) (0.0002502923889160156, 2.751953125) (0.00025809320068359375, 2.75390625) (0.00026573242187499996, 2.755859375) (0.00027318869018554684, 2.7578125) (0.00028042474365234374, 2.759765625) (0.00028739657592773436, 2.76171875) (0.00029405731201171873, 2.763671875) (0.0003003475341796875, 2.765625) (0.0003061960754394531, 2.767578125) (0.00031154083251953125, 2.76953125) (0.0003163282775878906, 2.771484375) (0.00032052285766601563, 2.7734375) (0.00032411114501953124, 2.775390625) (0.0003270712280273437, 2.77734375) (0.00032937255859375, 2.779296875) (0.00033096383666992186, 2.78125) (0.000331770751953125, 2.783203125) (0.00033174072265624996, 2.78515625) (0.00033084289550781246, 2.787109375) (0.00032905908203125, 2.7890625) (0.0003263861083984375, 2.791015625) (0.0003228350524902344, 2.79296875) (0.00031843572998046876, 2.794921875) (0.00031324652099609375, 2.796875) (0.0003073530578613281, 2.798828125) (0.0003008336181640625, 2.80078125) (0.00029375018310546873, 2.802734375) (0.00028614215087890624, 2.8046875) (0.00027802444458007813, 2.806640625) (0.0002694121704101562, 2.80859375) (0.0002603267822265625, 2.810546875) (0.00025081793212890625, 2.8125) (0.00024095890808105468, 2.814453125) (0.00023081826782226562, 2.81640625) (0.00022046923828125, 2.818359375) (0.00020998568725585936, 2.8203125) (0.00019944578552246093, 2.822265625) (0.00018893017578124998, 2.82421875) (0.0001784960021972656, 2.826171875) (0.0001681696319580078, 2.828125) (0.0001579520721435547, 2.830078125) (0.0001478443603515625, 2.83203125) (0.0001378640899658203, 2.833984375) (0.00012805404663085936, 2.8359375) (0.00011847502899169921, 2.837890625) (0.00010919659423828125, 2.83984375) (0.00010029413604736327, 2.841796875) (9.181764221191405e-05, 2.84375) (8.380085754394531e-05, 2.845703125) (7.627102661132812e-05, 2.84765625) (6.922741699218749e-05, 2.849609375) (6.265614318847656e-05, 2.8515625) (5.652416610717773e-05, 2.853515625) (5.077558135986328e-05, 2.85546875) (4.537110137939453e-05, 2.857421875) (4.0296283721923825e-05, 2.859375) (3.555018997192383e-05, 2.861328125) (3.113982009887695e-05, 2.86328125) (2.7065109252929687e-05, 2.865234375) (2.330476951599121e-05, 2.8671875) (1.9830390930175782e-05, 2.869140625) (1.6605777740478516e-05, 2.87109375) (1.3579039573669433e-05, 2.873046875) (1.071042251586914e-05, 2.875) (7.965516567230223e-06, 2.876953125) (5.311378002166748e-06, 2.87890625) (2.740345001220703e-06, 2.880859375) (2.575414180755615e-07, 2.8828125) (-2.1172471046447755e-06, 2.884765625) (-4.341492176055908e-06, 2.88671875) (-6.3816623687744135e-06, 2.888671875) (-8.223197937011719e-06, 2.890625) (-9.858936309814452e-06, 2.892578125) (-1.1293150901794432e-05, 2.89453125) (-1.2534944534301757e-05, 2.896484375) (-1.3584930419921874e-05, 2.8984375) (-1.4447031021118163e-05, 2.900390625) (-1.5127735137939453e-05, 2.90234375) (-1.5622689247131348e-05, 2.904296875) (-1.5930487632751464e-05, 2.90625) (-1.6051206588745117e-05, 2.908203125) (-1.598204231262207e-05, 2.91015625) (-1.573240852355957e-05, 2.912109375) (-1.5320079803466795e-05, 2.9140625) (-1.47686767578125e-05, 2.916015625) (-1.411341094970703e-05, 2.91796875) (-1.3387853622436523e-05, 2.919921875) (-1.2616311073303222e-05, 2.921875) (-1.182004165649414e-05, 2.923828125) (-1.1014795303344726e-05, 2.92578125) (-1.021067428588867e-05, 2.927734375) (-9.418570518493652e-06, 2.9296875) (-8.64527702331543e-06, 2.931640625) (-7.892132759094238e-06, 2.93359375) (-7.163896560668945e-06, 2.935546875) (-6.466292858123779e-06, 2.9375) (-5.8047533035278316e-06, 2.939453125) (-5.1872301101684565e-06, 2.94140625) (-4.619059562683105e-06, 2.943359375) (-4.102051734924316e-06, 2.9453125) (-3.637043237686157e-06, 2.947265625) (-3.22237491607666e-06, 2.94921875) (-2.855090856552124e-06, 2.951171875) (-2.5337023735046385e-06, 2.953125) (-2.2567768096923827e-06, 2.955078125) (-2.022609233856201e-06, 2.95703125) (-1.830707550048828e-06, 2.958984375) (-1.68069851398468e-06, 2.9609375) (-1.5727574825286866e-06, 2.962890625) (-1.5086660385131835e-06, 2.96484375) (-1.4894258975982665e-06, 2.966796875) (-1.5145375728607176e-06, 2.96875) (-1.5828779935836792e-06, 2.970703125) (-1.6921737194061279e-06, 2.97265625) (-1.8395063877105712e-06, 2.974609375) (-2.022144317626953e-06, 2.9765625) (-2.236850023269653e-06, 2.978515625) (-2.4797396659851073e-06, 2.98046875) (-2.7472994327545166e-06, 2.982421875) (-3.0363247394561765e-06, 2.984375) (-3.3438172340393067e-06, 2.986328125) (-3.667456865310669e-06, 2.98828125) (-4.005159378051758e-06, 2.990234375) (-4.354845523834229e-06, 2.9921875) (-4.7147746086120605e-06, 2.994140625) (-5.083433628082275e-06, 2.99609375) (-5.4593954086303704e-06, 2.998046875) (-5.8414578437805175e-06, 3.0) (-6.228599548339844e-06, 3.001953125) (-6.6198391914367676e-06, 3.00390625) (-7.014384269714355e-06, 3.005859375) (-7.411686897277832e-06, 3.0078125) (-7.8113374710083e-06, 3.009765625) (-8.213139533996581e-06, 3.01171875) (-8.617088317871094e-06, 3.013671875) (-9.023218154907226e-06, 3.015625) (-9.431647300720215e-06, 3.017578125) (-9.842606544494628e-06, 3.01953125) (-1.0256352424621582e-05, 3.021484375) (-1.067317771911621e-05, 3.0234375) (-1.1093440055847168e-05, 3.025390625) (-1.1517495155334473e-05, 3.02734375) (-1.1945795059204101e-05, 3.029296875) (-1.2379087448120117e-05, 3.03125) (-1.2818311691284179e-05, 3.033203125) (-1.32645845413208e-05, 3.03515625) (-1.3719243049621582e-05, 3.037109375) (-1.4183691024780272e-05, 3.0390625) (-1.4659400939941405e-05, 3.041015625) (-1.5147943496704102e-05, 3.04296875) (-1.5650742530822752e-05, 3.044921875) (-1.6168977737426756e-05, 3.046875) (-1.670363426208496e-05, 3.048828125) (-1.7255413055419922e-05, 3.05078125) (-1.782478141784668e-05, 3.052734375) (-1.8412048339843747e-05, 3.0546875) (-1.901728630065918e-05, 3.056640625) (-1.9640304565429688e-05, 3.05859375) (-2.02807559967041e-05, 3.060546875) (-2.0938087463378904e-05, 3.0625) (-2.161153793334961e-05, 3.064453125) (-2.230020523071289e-05, 3.06640625) (-2.300297164916992e-05, 3.068359375) (-2.3718528747558594e-05, 3.0703125) (-2.4445413589477537e-05, 3.072265625) (-2.5182029724121094e-05, 3.07421875) (-2.5926681518554687e-05, 3.076171875) (-2.667762756347656e-05, 3.078125) (-2.7433069229125975e-05, 3.080078125) (-2.8191139221191404e-05, 3.08203125) (-2.894993209838867e-05, 3.083984375) (-2.970745277404785e-05, 3.0859375) (-3.046164321899414e-05, 3.087890625) (-3.121038055419922e-05, 3.08984375) (-3.195144081115722e-05, 3.091796875) (-3.26824951171875e-05, 3.09375) (-3.340110015869141e-05, 3.095703125) (-3.4104763031005856e-05, 3.09765625) (-3.479093551635742e-05, 3.099609375) (-3.545710754394531e-05, 3.1015625) (-3.610079956054687e-05, 3.103515625) (-3.6719589233398434e-05, 3.10546875) (-3.7311164855957027e-05, 3.107421875) (-3.7873367309570314e-05, 3.109375) (-3.8404205322265626e-05, 3.111328125) (-3.8901885986328125e-05, 3.11328125) (-3.936481094360351e-05, 3.115234375) (-3.979158782958984e-05, 3.1171875) (-4.018104171752929e-05, 3.119140625) (-4.053224945068359e-05, 3.12109375) (-4.0844520568847656e-05, 3.123046875) (-4.1117424011230464e-05, 3.125) (-4.135076904296875e-05, 3.126953125) (-4.154458999633789e-05, 3.12890625) (-4.169913101196289e-05, 3.130859375) (-4.1814838409423826e-05, 3.1328125) (-4.1892295837402344e-05, 3.134765625) (-4.19322509765625e-05, 3.13671875) (-4.1935550689697264e-05, 3.138671875) (-4.190314865112304e-05, 3.140625) (-4.183606338500976e-05, 3.142578125) (-4.1735401153564454e-05, 3.14453125) (-4.1602367401123047e-05, 3.146484375) (-4.1438255310058595e-05, 3.1484375) (-4.1244438171386714e-05, 3.150390625) (-4.102237319946289e-05, 3.15234375) (-4.077360153198242e-05, 3.154296875) (-4.049971008300781e-05, 3.15625) (-4.020235443115234e-05, 3.158203125) (-3.9883224487304685e-05, 3.16015625) (-3.954401397705078e-05, 3.162109375) (-3.918640899658203e-05, 3.1640625) (-3.8812103271484375e-05, 3.166015625) (-3.842272186279297e-05, 3.16796875) (-3.8019863128662106e-05, 3.169921875) (-3.760506057739258e-05, 3.171875) (-3.7179801940917966e-05, 3.173828125) (-3.674546051025391e-05, 3.17578125) (-3.6303318023681636e-05, 3.177734375) (-3.5854537963867185e-05, 3.1796875) (-3.5400138854980465e-05, 3.181640625) (-3.4941013336181636e-05, 3.18359375) (-3.447790145874023e-05, 3.185546875) (-3.401137924194336e-05, 3.1875) (-3.354187393188476e-05, 3.189453125) (-3.306969451904297e-05, 3.19140625) (-3.259502410888672e-05, 3.193359375) (-3.2117980957031246e-05, 3.1953125) (-3.1638608932495117e-05, 3.197265625) (-3.115692901611328e-05, 3.19921875) (-3.0672956466674804e-05, 3.201171875) (-3.0186716079711913e-05, 3.203125) (-2.9698253631591796e-05, 3.205078125) (-2.920763778686523e-05, 3.20703125) (-2.871499252319336e-05, 3.208984375) (-2.8220470428466795e-05, 3.2109375) (-2.772428512573242e-05, 3.212890625) (-2.722670555114746e-05, 3.21484375) (-2.672809600830078e-05, 3.216796875) (-2.6228908538818357e-05, 3.21875) (-2.5729717254638672e-05, 3.220703125) (-2.5231224060058592e-05, 3.22265625) (-2.4734256744384766e-05, 3.224609375) (-2.423978042602539e-05, 3.2265625) (-2.3748886108398436e-05, 3.228515625) (-2.3262775421142578e-05, 3.23046875) (-2.2782764434814453e-05, 3.232421875) (-2.231025505065918e-05, 3.234375) (-2.184672164916992e-05, 3.236328125) (-2.1393724441528318e-05, 3.23828125) (-2.0952899932861327e-05, 3.240234375) (-2.0525970458984373e-05, 3.2421875) (-2.0114763259887694e-05, 3.244140625) (-1.9721195220947263e-05, 3.24609375) (-1.9347288131713868e-05, 3.248046875) (-1.8995164871215818e-05, 3.25) (-1.8667036056518552e-05, 3.251953125) (-1.836518096923828e-05, 3.25390625) (-1.8091915130615235e-05, 3.255859375) (-1.7849567413330078e-05, 3.2578125) (-1.7640424728393552e-05, 3.259765625) (-1.7466712951660154e-05, 3.26171875) (-1.733054733276367e-05, 3.263671875) (-1.7233919143676757e-05, 3.265625) (-1.7178689956665037e-05, 3.267578125) (-1.716654586791992e-05, 3.26953125) (-1.7198986053466797e-05, 3.271484375) (-1.727730178833008e-05, 3.2734375) (-1.7402565002441406e-05, 3.275390625) (-1.7575584411621093e-05, 3.27734375) (-1.7796892166137693e-05, 3.279296875) (-1.8066711425781248e-05, 3.28125) (-1.838491439819336e-05, 3.283203125) (-1.8751020431518555e-05, 3.28515625) (-1.9164194107055663e-05, 3.287109375) (-1.9623247146606445e-05, 3.2890625) (-2.012666702270508e-05, 3.291015625) (-2.0672632217407225e-05, 3.29296875) (-2.1259056091308594e-05, 3.294921875) (-2.1883617401123045e-05, 3.296875) (-2.254378890991211e-05, 3.298828125) (-2.3236865997314453e-05, 3.30078125) (-2.395998191833496e-05, 3.302734375) (-2.471009063720703e-05, 3.3046875) (-2.5483970642089843e-05, 3.306640625) (-2.627822494506836e-05, 3.30859375) (-2.708926773071289e-05, 3.310546875) (-2.791335296630859e-05, 3.3125) (-2.874658966064453e-05, 3.314453125) (-2.9584959030151364e-05, 3.31640625) (-3.042435836791992e-05, 3.318359375) (-3.126061248779297e-05, 3.3203125) (-3.2089530944824216e-05, 3.322265625) (-3.290696716308593e-05, 3.32421875) (-3.3708831787109374e-05, 3.326171875) (-3.449113082885742e-05, 3.328125) (-3.524994659423828e-05, 3.330078125) (-3.598149490356445e-05, 3.33203125) (-3.668215179443359e-05, 3.333984375) (-3.7348506927490235e-05, 3.3359375) (-3.797739028930664e-05, 3.337890625) (-3.8565906524658204e-05, 3.33984375) (-3.9111465454101564e-05, 3.341796875) (-3.9611850738525387e-05, 3.34375) (-4.006523132324219e-05, 3.345703125) (-4.047018051147461e-05, 3.34765625) (-4.082566452026367e-05, 3.349609375) (-4.113106155395508e-05, 3.3515625) (-4.1386127471923824e-05, 3.353515625) (-4.159099578857422e-05, 3.35546875) (-4.174611663818359e-05, 3.357421875) (-4.185223388671875e-05, 3.359375) (-4.1910366058349604e-05, 3.361328125) (-4.19217529296875e-05, 3.36328125) (-4.188788223266601e-05, 3.365234375) (-4.18104248046875e-05, 3.3671875) (-4.1691276550292965e-05, 3.369140625) (-4.153255844116211e-05, 3.37109375) (-4.1336605072021484e-05, 3.373046875) (-4.11059341430664e-05, 3.375) (-4.0843196868896485e-05, 3.376953125) (-4.0551174163818355e-05, 3.37890625) (-4.0232765197753905e-05, 3.380859375) (-3.989102172851562e-05, 3.3828125) (-3.952909851074219e-05, 3.384765625) (-3.915009307861328e-05, 3.38671875) (-3.875709915161133e-05, 3.388671875) (-3.8353248596191406e-05, 3.390625) (-3.794170379638672e-05, 3.392578125) (-3.752559280395508e-05, 3.39453125) (-3.710796356201172e-05, 3.396484375) (-3.6691661834716797e-05, 3.3984375) (-3.627930450439453e-05, 3.400390625) (-3.5873317718505856e-05, 3.40234375) (-3.5475822448730466e-05, 3.404296875) (-3.508860397338867e-05, 3.40625) (-3.471310424804687e-05, 3.408203125) (-3.4350521087646483e-05, 3.41015625) (-3.4001773834228516e-05, 3.412109375) (-3.366744995117188e-05, 3.4140625) (-3.3347831726074214e-05, 3.416015625) (-3.304278564453125e-05, 3.41796875) (-3.2751884460449214e-05, 3.419921875) (-3.247441482543945e-05, 3.421875) (-3.220931243896484e-05, 3.423828125) (-3.19551887512207e-05, 3.42578125) (-3.1710353851318357e-05, 3.427734375) (-3.147287940979004e-05, 3.4296875) (-3.124059295654297e-05, 3.431640625) (-3.1011024475097654e-05, 3.43359375) (-3.078144645690918e-05, 3.435546875) (-3.0549068450927735e-05, 3.4375) (-3.0311052322387693e-05, 3.439453125) (-3.0064437866210936e-05, 3.44140625) (-2.9806226730346678e-05, 3.443359375) (-2.9533172607421872e-05, 3.4453125) (-2.9241989135742185e-05, 3.447265625) (-2.8929725646972656e-05, 3.44921875) (-2.8593379974365234e-05, 3.451171875) (-2.8229623794555663e-05, 3.453125) (-2.783494186401367e-05, 3.455078125) (-2.740545654296875e-05, 3.45703125) (-2.6937269210815427e-05, 3.458984375) (-2.6427082061767578e-05, 3.4609375) (-2.587201690673828e-05, 3.462890625) (-2.526976203918457e-05, 3.46484375) (-2.4618768692016602e-05, 3.466796875) (-2.3918476104736328e-05, 3.46875) (-2.3169551849365234e-05, 3.470703125) (-2.237369918823242e-05, 3.47265625) (-2.1533411026000977e-05, 3.474609375) (-2.0651472091674803e-05, 3.4765625) (-1.973062515258789e-05, 3.478515625) (-1.8773237228393554e-05, 3.48046875) (-1.7782289505004883e-05, 3.482421875) (-1.676165771484375e-05, 3.484375) (-1.571618938446045e-05, 3.486328125) (-1.4653542518615722e-05, 3.48828125) (-1.3582884788513184e-05, 3.490234375) (-1.2514284133911133e-05, 3.4921875) (-1.1459401130676269e-05, 3.494140625) (-1.0430411338806151e-05, 3.49609375) (-9.439849853515624e-06, 3.498046875) (-8.49927806854248e-06, 3.5) (-7.617218971252441e-06, 3.501953125) (-6.7969722747802735e-06, 3.50390625) (-6.0390601158142085e-06, 3.505859375) (-5.344891548156738e-06, 3.5078125) (-4.718684673309326e-06, 3.509765625) (-4.170936584472656e-06, 3.51171875) (-3.7132911682128905e-06, 3.513671875) (-3.3594379425048826e-06, 3.515625) (-3.1254742145538327e-06, 3.517578125) (-3.022669792175293e-06, 3.51953125) (-3.0621964931488038e-06, 3.521484375) (-3.2519450187683103e-06, 3.5234375) (-3.593522310256958e-06, 3.525390625) (-4.086293697357177e-06, 3.52734375) (-4.724989891052246e-06, 3.529296875) (-5.5003919601440426e-06, 3.53125) (-6.406785011291504e-06, 3.533203125) (-7.452913284301758e-06, 3.53515625) (-8.653676986694336e-06, 3.537109375) (-1.0023265838623047e-05, 3.5390625) (-1.1563401222229004e-05, 3.541015625) (-1.3246881484985351e-05, 3.54296875) (-1.5042497634887695e-05, 3.544921875) (-1.6909976959228516e-05, 3.546875) (-1.8804826736450195e-05, 3.548828125) (-2.070207977294922e-05, 3.55078125) (-2.255816650390625e-05, 3.552734375) (-2.432156753540039e-05, 3.5546875) (-2.595233917236328e-05, 3.556640625) (-2.7398292541503904e-05, 3.55859375) (-2.8622825622558593e-05, 3.560546875) (-2.9627128601074217e-05, 3.5625) (-3.0377267837524414e-05, 3.564453125) (-3.0792690277099605e-05, 3.56640625) (-3.085478973388672e-05, 3.568359375) (-3.058835411071777e-05, 3.5703125) (-3.012561798095703e-05, 3.572265625) (-2.9778966903686523e-05, 3.57421875) (-2.9808361053466794e-05, 3.576171875) (-3.0415584564208982e-05, 3.578125) (-3.187312316894531e-05, 3.580078125) (-3.433395767211914e-05, 3.58203125) (-3.776194381713867e-05, 3.583984375) (-4.198870849609375e-05, 3.5859375) (-4.6457946777343746e-05, 3.587890625) (-5.0340919494628904e-05, 3.58984375) (-5.2974845886230464e-05, 3.591796875) (-5.37033462524414e-05, 3.59375) (-5.1901672363281245e-05, 3.595703125) (-4.7419677734375e-05, 3.59765625) (-4.0495765686035156e-05, 3.599609375) (-3.1770919799804684e-05, 3.6015625) (-2.2651611328125e-05, 3.603515625) (-1.473393440246582e-05, 3.60546875) (-9.421539306640624e-06, 3.607421875) (-8.362468719482422e-06, 3.609375) (-1.3014149665832519e-05, 3.611328125) (-2.4194862365722654e-05, 3.61328125) (-4.221369934082031e-05, 3.615234375) (-6.646758270263671e-05, 3.6171875) (-9.52627716064453e-05, 3.619140625) (-0.0001266436309814453, 3.62109375) (-0.00015838429260253906, 3.623046875) (-0.00018740548706054687, 3.625) (-0.00021047331237792968, 3.626953125) (-0.00022447447204589842, 3.62890625) (-0.0002265405578613281, 3.630859375) (-0.00021476226806640625, 3.6328125) (-0.00018798013305664063, 3.634765625) (-0.00014540911865234374, 3.63671875) (-8.709667205810546e-05, 3.638671875) (-1.5287004470825194e-05, 3.640625) (6.6009521484375e-05, 3.642578125) (0.0001525081024169922, 3.64453125) (0.00024033862304687499, 3.646484375) (0.00032839132690429685, 3.6484375) (0.000416714599609375, 3.650390625) (0.00050238330078125, 3.65234375) (0.0005790706176757812, 3.654296875) (0.0006366096801757813, 3.65625) (0.0006650448608398437, 3.658203125) (0.0006607164916992188, 3.66015625) (0.00062713623046875, 3.662109375) (0.0005741634521484374, 3.6640625) (0.000512866455078125, 3.666015625) (0.00045041546630859375, 3.66796875) (0.00038968002319335934, 3.669921875) (0.00032993115234374997, 3.671875) (0.00027078952026367184, 3.673828125) (0.00021417999267578125, 3.67578125) (0.0001631142120361328, 3.677734375) (0.00012086703491210937, 3.6796875) (8.858773803710937e-05, 3.681640625) (6.531570434570312e-05, 3.68359375) (4.9368576049804685e-05, 3.685546875) (3.868777084350586e-05, 3.6875) (3.1540348052978514e-05, 3.689453125) (2.630738067626953e-05, 3.69140625) (2.1208824157714843e-05, 3.693359375) (1.4742952346801756e-05, 3.6953125) (6.2149496078491205e-06, 3.697265625) (-4.311951160430908e-06, 3.69921875) (-1.6304065704345703e-05, 3.701171875) (-2.9023815155029295e-05, 3.703125) (-4.176875305175781e-05, 3.705078125) (-5.3768898010253904e-05, 3.70703125) (-6.415134429931641e-05, 3.708984375) (-7.209676361083984e-05, 3.7109375) (-7.720962524414063e-05, 3.712890625) (-7.957301330566406e-05, 3.71484375) (-7.950881958007812e-05, 3.716796875) (-7.747864532470702e-05, 3.71875) (-7.396607208251952e-05, 3.720703125) (-6.941004943847656e-05, 3.72265625) (-6.429376220703124e-05, 3.724609375) (-5.9144920349121094e-05, 3.7265625) (-5.430877304077148e-05, 3.728515625) (-4.995148468017578e-05, 3.73046875) (-4.6172603607177734e-05, 3.732421875) (-4.2969501495361326e-05, 3.734375) (-4.0328727722167964e-05, 3.736328125) (-3.828413772583008e-05, 3.73828125) (-3.682099151611328e-05, 3.740234375) (-3.587559509277344e-05, 3.7421875) (-3.540039443969727e-05, 3.744140625) (-3.532752227783203e-05, 3.74609375) (-3.558307647705078e-05, 3.748046875) (-3.612595748901367e-05, 3.75) (-3.6882781982421874e-05, 3.751953125) (-3.7765296936035156e-05, 3.75390625) (-3.8715614318847654e-05, 3.755859375) (-3.966570281982422e-05, 3.7578125) (-4.0564666748046876e-05, 3.759765625) (-4.1399589538574216e-05, 3.76171875) (-4.213917541503906e-05, 3.763671875) (-4.275039672851562e-05, 3.765625) (-4.321982955932617e-05, 3.767578125) (-4.351262283325195e-05, 3.76953125) (-4.3589977264404294e-05, 3.771484375) (-4.34461555480957e-05, 3.7734375) (-4.3083278656005857e-05, 3.775390625) (-4.251710510253906e-05, 3.77734375) (-4.178700256347656e-05, 3.779296875) (-4.0919513702392574e-05, 3.78125) (-3.9940555572509764e-05, 3.783203125) (-3.888706588745117e-05, 3.78515625) (-3.778165435791015e-05, 3.787109375) (-3.6643943786621095e-05, 3.7890625) (-3.548461532592773e-05, 3.791015625) (-3.428834533691406e-05, 3.79296875) (-3.304713439941406e-05, 3.794921875) (-3.176859474182129e-05, 3.796875) (-3.0460811614990235e-05, 3.798828125) (-2.915109062194824e-05, 3.80078125) (-2.7879297256469726e-05, 3.802734375) (-2.6663726806640624e-05, 3.8046875) (-2.5515560150146484e-05, 3.806640625) (-2.44443302154541e-05, 3.80859375) (-2.3441444396972656e-05, 3.810546875) (-2.2500150680541993e-05, 3.8125) (-2.1614887237548828e-05, 3.814453125) (-2.0765220642089843e-05, 3.81640625) (-1.9931421279907226e-05, 3.818359375) (-1.910074996948242e-05, 3.8203125) (-1.8264148712158202e-05, 3.822265625) (-1.7424245834350585e-05, 3.82421875) (-1.6584230422973632e-05, 3.826171875) (-1.5733248710632323e-05, 3.828125) (-1.485406494140625e-05, 3.830078125) (-1.3921047210693358e-05, 3.83203125) (-1.2898492813110352e-05, 3.833984375) (-1.1757283210754395e-05, 3.8359375) (-1.0470913887023925e-05, 3.837890625) (-9.008945465087891e-06, 3.83984375) (-7.347277641296387e-06, 3.841796875) (-5.465054035186767e-06, 3.84375) (-3.341630220413208e-06, 3.845703125) (-9.65853750705719e-07, 3.84765625) (1.6671085357666015e-06, 3.849609375) (4.567340850830078e-06, 3.8515625) (7.746603965759276e-06, 3.853515625) (1.1219524383544922e-05, 3.85546875) (1.5005520820617675e-05, 3.857421875) (1.911529731750488e-05, 3.859375) (2.3550373077392577e-05, 3.861328125) (2.8309432983398436e-05, 3.86328125) (3.338562774658203e-05, 3.865234375) (3.876708984375e-05, 3.8671875) (4.444063949584961e-05, 3.869140625) (5.038483428955078e-05, 3.87109375) (5.656791305541992e-05, 3.873046875) (6.296169281005859e-05, 3.875) (6.953907012939453e-05, 3.876953125) (7.627635955810547e-05, 3.87890625) (8.316299438476562e-05, 3.880859375) (9.018661499023438e-05, 3.8828125) (9.733016967773437e-05, 3.884765625) (0.00010457527160644531, 3.88671875) (0.00011189891052246093, 3.888671875) (0.00011928507232666014, 3.890625) (0.00012673283386230468, 3.892578125) (0.0001342440185546875, 3.89453125) (0.00014181427001953124, 3.896484375) (0.0001494444122314453, 3.8984375) (0.0001571341094970703, 3.900390625) (0.00016489176940917967, 3.90234375) (0.0001727496337890625, 3.904296875) (0.0001807285461425781, 3.90625) (0.00018883523559570312, 3.908203125) (0.0001970666961669922, 3.91015625) (0.00020539173889160155, 3.912109375) (0.00021377041625976562, 3.9140625) (0.0002221663818359375, 3.916015625) (0.00023053569030761717, 3.91796875) (0.0002388228302001953, 3.919921875) (0.0002469600524902344, 3.921875) (0.00025485394287109374, 3.923828125) (0.00026240295410156247, 3.92578125) (0.0002695283203125, 3.927734375) (0.0002761495666503906, 3.9296875) (0.0002821871337890625, 3.931640625) (0.00028755462646484374, 3.93359375) (0.00029213369750976563, 3.935546875) (0.000295826171875, 3.9375) (0.0002985661010742187, 3.939453125) (0.0003003040466308594, 3.94140625) (0.0003010234680175781, 3.943359375) (0.0003007256164550781, 3.9453125) (0.000299410888671875, 3.947265625) (0.0002971024780273437, 3.94921875) (0.0002938601379394531, 3.951171875) (0.0002897573852539062, 3.953125) (0.00028489376831054684, 3.955078125) (0.0002793775634765625, 3.95703125) (0.0002732791748046875, 3.958984375) (0.00026666906738281247, 3.9609375) (0.00025962225341796873, 3.962890625) (0.0002522144775390625, 3.96484375) (0.0002445484466552734, 3.966796875) (0.00023670602416992186, 3.96875) (0.00022872906494140623, 3.970703125) (0.0002206531982421875, 3.97265625) (0.00021250404357910156, 3.974609375) (0.00020429464721679686, 3.9765625) (0.0001960440673828125, 3.978515625) (0.00018774456787109373, 3.98046875) (0.00017934152221679687, 3.982421875) (0.00017078329467773437, 3.984375) (0.00016201470947265625, 3.986328125) (0.00015298681640625, 3.98828125) (0.00014369975280761717, 3.990234375) (0.0001341596221923828, 3.9921875) (0.00012436970520019532, 3.994140625) (0.00011435209655761719, 3.99609375) (0.00010412733459472656, 3.998046875) (9.374040222167969e-05, 4.0) (8.327773284912109e-05, 4.001953125) (7.281676483154296e-05, 4.00390625) (6.241859436035156e-05, 4.005859375) (5.215058135986328e-05, 4.0078125) (4.207173919677734e-05, 4.009765625) (3.2264617919921876e-05, 4.01171875) (2.2852901458740232e-05, 4.013671875) (1.3941289901733398e-05, 4.015625) (5.615434646606445e-06, 4.017578125) (-2.054037570953369e-06, 4.01953125) (-9.038100242614745e-06, 4.021484375) (-1.5315192222595214e-05, 4.0234375) (-2.0863159179687498e-05, 4.025390625) (-2.5693119049072266e-05, 4.02734375) (-2.9837867736816404e-05, 4.029296875) (-3.335431671142578e-05, 4.03125) (-3.633369445800781e-05, 4.033203125) (-3.884972763061523e-05, 4.03515625) (-4.0949867248535156e-05, 4.037109375) (-4.268642425537109e-05, 4.0390625) (-4.410675811767578e-05, 4.041015625) (-4.527405548095703e-05, 4.04296875) (-4.627869415283203e-05, 4.044921875) (-4.719076538085937e-05, 4.046875) (-4.805826568603516e-05, 4.048828125) (-4.892276000976562e-05, 4.05078125) (-4.980770111083984e-05, 4.052734375) (-5.0735420227050776e-05, 4.0546875) (-5.1732460021972655e-05, 4.056640625) (-5.2798446655273434e-05, 4.05859375) (-5.3910881042480465e-05, 4.060546875) (-5.503489685058594e-05, 4.0625) (-5.61187515258789e-05, 4.064453125) (-5.71281852722168e-05, 4.06640625) (-5.8051315307617185e-05, 4.068359375) (-5.887461853027343e-05, 4.0703125) (-5.958823013305664e-05, 4.072265625) (-6.0178600311279296e-05, 4.07421875) (-6.06226806640625e-05, 4.076171875) (-6.091157531738281e-05, 4.078125) (-6.105125427246094e-05, 4.080078125) (-6.104564666748046e-05, 4.08203125) (-6.090045928955078e-05, 4.083984375) (-6.062015533447265e-05, 4.0859375) (-6.02047119140625e-05, 4.087890625) (-5.966725158691406e-05, 4.08984375) (-5.903283309936523e-05, 4.091796875) (-5.8328849792480465e-05, 4.09375) (-5.758666610717773e-05, 4.095703125) (-5.6829051971435545e-05, 4.09765625) (-5.606822204589843e-05, 4.099609375) (-5.5316467285156245e-05, 4.1015625) (-5.458433532714844e-05, 4.103515625) (-5.388004684448242e-05, 4.10546875) (-5.321173858642578e-05, 4.107421875) (-5.258143615722656e-05, 4.109375) (-5.198503875732422e-05, 4.111328125) (-5.142161178588867e-05, 4.11328125) (-5.0892448425292965e-05, 4.115234375) (-5.03991584777832e-05, 4.1171875) (-4.994514465332031e-05, 4.119140625) (-4.9530143737792964e-05, 4.12109375) (-4.915013885498047e-05, 4.123046875) (-4.88016128540039e-05, 4.125) (-4.848099899291992e-05, 4.126953125) (-4.818558120727539e-05, 4.12890625) (-4.791413879394531e-05, 4.130859375) (-4.766498565673828e-05, 4.1328125) (-4.7436122894287104e-05, 4.134765625) (-4.7226924896240234e-05, 4.13671875) (-4.7037651062011714e-05, 4.138671875) (-4.686932373046875e-05, 4.140625) (-4.672380065917968e-05, 4.142578125) (-4.66015625e-05, 4.14453125) (-4.650183868408203e-05, 4.146484375) (-4.642372894287109e-05, 4.1484375) (-4.636591339111328e-05, 4.150390625) (-4.632707977294922e-05, 4.15234375) (-4.630607986450195e-05, 4.154296875) (-4.6301315307617184e-05, 4.15625) (-4.631089401245117e-05, 4.158203125) (-4.633348083496094e-05, 4.16015625) (-4.636817169189453e-05, 4.162109375) (-4.641427612304687e-05, 4.1640625) (-4.647139739990234e-05, 4.166015625) (-4.6539054870605465e-05, 4.16796875) (-4.661666870117187e-05, 4.169921875) (-4.670384979248047e-05, 4.171875) (-4.680032348632812e-05, 4.173828125) (-4.690583801269531e-05, 4.17578125) (-4.70201416015625e-05, 4.177734375) (-4.714301300048828e-05, 4.1796875) (-4.727427673339843e-05, 4.181640625) (-4.741389465332031e-05, 4.18359375) (-4.756198883056641e-05, 4.185546875) (-4.7718688964843746e-05, 4.1875) (-4.7884098052978515e-05, 4.189453125) (-4.805833053588867e-05, 4.19140625) (-4.824154281616211e-05, 4.193359375) (-4.8433891296386714e-05, 4.1953125) (-4.863558197021484e-05, 4.197265625) (-4.884675598144531e-05, 4.19921875) (-4.906747436523437e-05, 4.201171875) (-4.929790115356445e-05, 4.203125) (-4.953832626342773e-05, 4.205078125) (-4.978921127319336e-05, 4.20703125) (-5.005121612548828e-05, 4.208984375) (-5.032506942749023e-05, 4.2109375) (-5.0611541748046875e-05, 4.212890625) (-5.0911552429199215e-05, 4.21484375) (-5.122614288330078e-05, 4.216796875) (-5.1556434631347655e-05, 4.21875) (-5.190365219116211e-05, 4.220703125) (-5.2268905639648433e-05, 4.22265625) (-5.2653190612792964e-05, 4.224609375) (-5.3057502746582026e-05, 4.2265625) (-5.3482749938964844e-05, 4.228515625) (-5.392982482910156e-05, 4.23046875) (-5.439955902099609e-05, 4.232421875) (-5.489263916015625e-05, 4.234375) (-5.5409549713134764e-05, 4.236328125) (-5.5950649261474605e-05, 4.23828125) (-5.651613998413086e-05, 4.240234375) (-5.71060562133789e-05, 4.2421875) (-5.772026443481445e-05, 4.244140625) (-5.8358436584472654e-05, 4.24609375) (-5.9020038604736325e-05, 4.248046875) (-5.970441436767578e-05, 4.25) (-6.041078948974609e-05, 4.251953125) (-6.113829803466797e-05, 4.25390625) (-6.188602447509766e-05, 4.255859375) (-6.265293884277343e-05, 4.2578125) (-6.343791961669922e-05, 4.259765625) (-6.423976135253906e-05, 4.26171875) (-6.505717468261719e-05, 4.263671875) (-6.588879394531249e-05, 4.265625) (-6.673313140869141e-05, 4.267578125) (-6.758863830566407e-05, 4.26953125) (-6.845367431640625e-05, 4.271484375) (-6.932649230957031e-05, 4.2734375) (-7.020538330078125e-05, 4.275390625) (-7.10885009765625e-05, 4.27734375) (-7.197401428222656e-05, 4.279296875) (-7.286001586914063e-05, 4.28125) (-7.374453735351562e-05, 4.283203125) (-7.46256103515625e-05, 4.28515625) (-7.55011749267578e-05, 4.287109375) (-7.636918640136719e-05, 4.2890625) (-7.722761535644531e-05, 4.291015625) (-7.807443237304687e-05, 4.29296875) (-7.890769958496093e-05, 4.294921875) (-7.97256088256836e-05, 4.296875) (-8.052650451660156e-05, 4.298828125) (-8.130894470214843e-05, 4.30078125) (-8.207172393798827e-05, 4.302734375) (-8.281382751464843e-05, 4.3046875) (-8.353447723388672e-05, 4.306640625) (-8.423312377929688e-05, 4.30859375) (-8.490936279296875e-05, 4.310546875) (-8.556301879882812e-05, 4.3125) (-8.619401550292968e-05, 4.314453125) (-8.68024444580078e-05, 4.31640625) (-8.738854980468749e-05, 4.318359375) (-8.795267486572265e-05, 4.3203125) (-8.849532318115234e-05, 4.322265625) (-8.901711273193359e-05, 4.32421875) (-8.951878356933593e-05, 4.326171875) (-9.000120544433594e-05, 4.328125) (-9.046527099609375e-05, 4.330078125) (-9.091197967529297e-05, 4.33203125) (-9.134228515624999e-05, 4.333984375) (-9.17571563720703e-05, 4.3359375) (-9.215752410888672e-05, 4.337890625) (-9.254429626464843e-05, 4.33984375) (-9.291836547851562e-05, 4.341796875) (-9.328059387207031e-05, 4.34375) (-9.363182067871093e-05, 4.345703125) (-9.397293090820312e-05, 4.34765625) (-9.430474853515625e-05, 4.349609375) (-9.462818908691406e-05, 4.3515625) (-9.4944091796875e-05, 4.353515625) (-9.525323486328124e-05, 4.35546875) (-9.555632781982422e-05, 4.357421875) (-9.585391235351562e-05, 4.359375) (-9.61463623046875e-05, 4.361328125) (-9.643387603759765e-05, 4.36328125) (-9.671643829345703e-05, 4.365234375) (-9.69938507080078e-05, 4.3671875) (-9.726568603515624e-05, 4.369140625) (-9.753134155273438e-05, 4.37109375) (-9.779008483886718e-05, 4.373046875) (-9.804102325439452e-05, 4.375) (-9.828314208984375e-05, 4.376953125) (-9.851529693603516e-05, 4.37890625) (-9.873618316650391e-05, 4.380859375) (-9.894436645507812e-05, 4.3828125) (-9.91383056640625e-05, 4.384765625) (-9.93162612915039e-05, 4.38671875) (-9.947645568847656e-05, 4.388671875) (-9.961702728271484e-05, 4.390625) (-9.973603057861327e-05, 4.392578125) (-9.983163452148437e-05, 4.39453125) (-9.990196990966797e-05, 4.396484375) (-9.994535064697265e-05, 4.3984375) (-9.996028900146483e-05, 4.400390625) (-9.994547271728515e-05, 4.40234375) (-9.989971923828125e-05, 4.404296875) (-9.982211303710937e-05, 4.40625) (-9.971168518066406e-05, 4.408203125) (-9.956764221191406e-05, 4.41015625) (-9.938961791992187e-05, 4.412109375) (-9.917735290527343e-05, 4.4140625) (-9.893051147460937e-05, 4.416015625) (-9.864927673339843e-05, 4.41796875) (-9.833319091796874e-05, 4.419921875) (-9.798179626464844e-05, 4.421875) (-9.759732055664062e-05, 4.423828125) (-9.718214416503906e-05, 4.42578125) (-9.673773956298828e-05, 4.427734375) (-9.626658630371093e-05, 4.4296875) (-9.576976013183593e-05, 4.431640625) (-9.524664306640624e-05, 4.43359375) (-9.47029800415039e-05, 4.435546875) (-9.41452178955078e-05, 4.4375) (-9.356830596923828e-05, 4.439453125) (-9.296922302246093e-05, 4.44140625) (-9.234646606445312e-05, 4.443359375) (-9.169532775878906e-05, 4.4453125) (-9.102607727050781e-05, 4.447265625) (-9.035529327392577e-05, 4.44921875) (-8.967582702636719e-05, 4.451171875) (-8.897987365722656e-05, 4.453125) (-8.829705810546874e-05, 4.455078125) (-8.765037536621094e-05, 4.45703125) (-8.705844116210937e-05, 4.458984375) (-8.654837799072265e-05, 4.4609375) (-8.610292816162108e-05, 4.462890625) (-8.568450164794922e-05, 4.46484375) (-8.531742095947265e-05, 4.466796875) (-8.50435791015625e-05, 4.46875) (-8.475933837890624e-05, 4.470703125) (-8.434174346923828e-05, 4.47265625) (-8.386575317382813e-05, 4.474609375) (-8.332441711425781e-05, 4.4765625) (-8.269422912597657e-05, 4.478515625) (-8.224161529541015e-05, 4.48046875) (-8.12457275390625e-05, 4.482421875) (-7.900486755371094e-05, 4.484375) (-7.65176773071289e-05, 4.486328125) (-7.408526611328125e-05, 4.48828125) (-7.354306030273437e-05, 4.490234375) (-7.708828735351562e-05, 4.4921875) (-8.228257751464843e-05, 4.494140625) (-8.749954223632811e-05, 4.49609375) (-9.031876373291015e-05, 4.498046875) (-8.741656494140624e-05, 4.5) (-8.172540283203125e-05, 4.501953125) (-7.5730224609375e-05, 4.50390625) (-7.113231658935546e-05, 4.505859375) (-7.074588012695312e-05, 4.5078125) (-7.255105590820312e-05, 4.509765625) (-7.450076293945312e-05, 4.51171875) (-7.613639068603515e-05, 4.513671875) (-7.620845794677734e-05, 4.515625) (-7.543524169921874e-05, 4.517578125) (-7.474178314208984e-05, 4.51953125) (-7.394696044921875e-05, 4.521484375) (-7.316559600830077e-05, 4.5234375) (-7.23321075439453e-05, 4.525390625) (-7.125523376464843e-05, 4.52734375) (-7.005565643310547e-05, 4.529296875) (-6.8830078125e-05, 4.53125) (-6.754435729980468e-05, 4.533203125) (-6.619041442871094e-05, 4.53515625) (-6.477960205078124e-05, 4.537109375) (-6.330946350097656e-05, 4.5390625) (-6.177358245849609e-05, 4.541015625) (-6.016960906982422e-05, 4.54296875) (-5.848139190673828e-05, 4.544921875) (-5.668996429443359e-05, 4.546875) (-5.4806903839111326e-05, 4.548828125) (-5.284402084350586e-05, 4.55078125) (-5.080185317993164e-05, 4.552734375) (-4.86855354309082e-05, 4.5546875) (-4.6499557495117185e-05, 4.556640625) (-4.424743270874023e-05, 4.55859375) (-4.193746185302734e-05, 4.560546875) (-3.957844543457031e-05, 4.5625) (-3.717538070678711e-05, 4.564453125) (-3.473393249511719e-05, 4.56640625) (-3.2261039733886715e-05, 4.568359375) (-2.9763307571411133e-05, 4.5703125) (-2.7248291015625e-05, 4.572265625) (-2.47237434387207e-05, 4.57421875) (-2.21968994140625e-05, 4.576171875) (-1.9675182342529297e-05, 4.578125) (-1.7166259765625e-05, 4.580078125) (-1.4677846908569335e-05, 4.58203125) (-1.2217728614807128e-05, 4.583984375) (-9.793482780456543e-06, 4.5859375) (-7.412189483642578e-06, 4.587890625) (-5.080649375915527e-06, 4.58984375) (-2.805227756500244e-06, 4.591796875) (-5.917872786521911e-07, 4.59375) (1.5542380809783935e-06, 4.595703125) (3.6281232833862304e-06, 4.59765625) (5.625812530517578e-06, 4.599609375) (7.543821334838867e-06, 4.6015625) (9.379247665405273e-06, 4.603515625) (1.1129739761352539e-05, 4.60546875) (1.2793219566345214e-05, 4.607421875) (1.4368024826049804e-05, 4.609375) (1.5853276252746582e-05, 4.611328125) (1.7248674392700194e-05, 4.61328125) (1.8554737091064453e-05, 4.615234375) (1.9772487640380857e-05, 4.6171875) (2.090286064147949e-05, 4.619140625) (2.1947221755981445e-05, 4.62109375) (2.2907957077026365e-05, 4.623046875) (2.3788957595825196e-05, 4.625) (2.459535217285156e-05, 4.626953125) (2.5331623077392577e-05, 4.62890625) (2.5999498367309568e-05, 4.630859375) (2.659902191162109e-05, 4.6328125) (2.7131187438964843e-05, 4.634765625) (2.759870147705078e-05, 4.63671875) (2.800655174255371e-05, 4.638671875) (2.8356992721557614e-05, 4.640625) (2.8645721435546872e-05, 4.642578125) (2.887220001220703e-05, 4.64453125) (2.904780578613281e-05, 4.646484375) (2.9192970275878906e-05, 4.6484375) (2.9327659606933593e-05, 4.650390625) (2.9459590911865233e-05, 4.65234375) (2.957516860961914e-05, 4.654296875) (2.9659610748291014e-05, 4.65625) (2.9719478607177732e-05, 4.658203125) (2.9749048233032225e-05, 4.66015625) (2.970322036743164e-05, 4.662109375) (2.9509628295898437e-05, 4.6640625) (2.909925079345703e-05, 4.666015625) (2.8439506530761718e-05, 4.66796875) (2.756349754333496e-05, 4.669921875) (2.651626968383789e-05, 4.671875) (2.5274118423461913e-05, 4.673828125) (2.3873355865478514e-05, 4.67578125) (2.252592658996582e-05, 4.677734375) (2.141865348815918e-05, 4.6796875) (2.0592313766479492e-05, 4.681640625) (1.999020004272461e-05, 4.68359375) (1.936920928955078e-05, 4.685546875) (1.9134057998657225e-05, 4.6875) (2.0567340850830076e-05, 4.689453125) (2.428248405456543e-05, 4.69140625) (2.9496631622314452e-05, 4.693359375) (3.293305969238281e-05, 4.6953125) (2.9828495025634765e-05, 4.697265625) (1.7970884323120115e-05, 4.69921875) (-3.926577568054199e-07, 4.701171875) (-1.8271554946899413e-05, 4.703125) (-2.7687267303466797e-05, 4.705078125) (-2.4957931518554687e-05, 4.70703125) (-1.2615102767944335e-05, 4.708984375) (1.4832782745361327e-06, 4.7109375) (9.831106185913086e-06, 4.712890625) (9.224708557128906e-06, 4.71484375) (1.2017366886138915e-06, 4.716796875) (-9.099012374877929e-06, 4.71875) (-1.767102241516113e-05, 4.720703125) (-2.317935562133789e-05, 4.72265625) (-2.6042747497558594e-05, 4.724609375) (-2.7927799224853513e-05, 4.7265625) (-2.9667741775512693e-05, 4.728515625) (-3.111837005615234e-05, 4.73046875) (-3.2150482177734374e-05, 4.732421875) (-3.2588890075683595e-05, 4.734375) (-3.243194961547851e-05, 4.736328125) (-3.19013614654541e-05, 4.73828125) (-3.109945487976074e-05, 4.740234375) (-3.0130456924438476e-05, 4.7421875) (-2.9281810760498044e-05, 4.744140625) (-2.882914352416992e-05, 4.74609375) (-2.895822525024414e-05, 4.748046875) (-2.979911422729492e-05, 4.75) (-3.141292381286621e-05, 4.751953125) (-3.3712162017822266e-05, 4.75390625) (-3.6567344665527344e-05, 4.755859375) (-3.974166107177734e-05, 4.7578125) (-4.27276611328125e-05, 4.759765625) (-4.4991519927978516e-05, 4.76171875) (-4.6045379638671876e-05, 4.763671875) (-4.555439758300781e-05, 4.765625) (-4.3518138885498045e-05, 4.767578125) (-4.0307792663574215e-05, 4.76953125) (-3.6437492370605466e-05, 4.771484375) (-3.251773071289062e-05, 4.7734375) (-2.945806312561035e-05, 4.775390625) (-2.833418273925781e-05, 4.77734375) (-3.0323261260986326e-05, 4.779296875) (-3.636412811279297e-05, 4.78125) (-4.693806076049804e-05, 4.783203125) (-6.201980209350586e-05, 4.78515625) (-8.127201080322265e-05, 4.787109375) (-0.00010430339050292968, 4.7890625) (-0.00012924504089355468, 4.791015625) (-0.0001527285461425781, 4.79296875) (-0.00017162908935546874, 4.794921875) (-0.00018269598388671873, 4.796875) (-0.00018566439819335938, 4.798828125) (-0.00018360552978515624, 4.80078125) (-0.00017618904113769532, 4.802734375) (-0.00016205345153808592, 4.8046875) (-0.00013685122680664062, 4.806640625) (-9.074458312988281e-05, 4.80859375) (-2.052677536010742e-05, 4.810546875) (7.420706939697265e-05, 4.8125) (0.00019171655273437499, 4.814453125) (0.0003189105529785156, 4.81640625) (0.00044336474609375, 4.818359375) (0.000551185546875, 4.8203125) (0.000624743896484375, 4.822265625) (0.000658967529296875, 4.82421875) (0.0006554328002929687, 4.826171875) (0.00062158154296875, 4.828125) (0.0005736445312499999, 4.830078125) (0.0005211357421875, 4.83203125) (0.00046782513427734375, 4.833984375) (0.0004146181030273437, 4.8359375) (0.0003576001281738281, 4.837890625) (0.0002965931701660156, 4.83984375) (0.00023502879333496093, 4.841796875) (0.00017687107849121092, 4.84375) (0.00012679268646240233, 4.845703125) (8.698464965820312e-05, 4.84765625) (5.7280422210693355e-05, 4.849609375) (3.67722053527832e-05, 4.8515625) (2.3729898452758788e-05, 4.853515625) (1.650971794128418e-05, 4.85546875) (1.371651268005371e-05, 4.857421875) (1.3458824157714843e-05, 4.859375) (1.3996106147766113e-05, 4.861328125) (1.3955039024353027e-05, 4.86328125) (1.216196060180664e-05, 4.865234375) (8.245316505432128e-06, 4.8671875) (2.45056414604187e-06, 4.869140625) (-4.8751583099365235e-06, 4.87109375) (-1.3205132484436034e-05, 4.873046875) (-2.1778264999389647e-05, 4.875) (-2.9936162948608395e-05, 4.876953125) (-3.700851440429687e-05, 4.87890625) (-4.2311981201171876e-05, 4.880859375) (-4.567811584472656e-05, 4.8828125) (-4.7271179199218746e-05, 4.884765625) (-4.734639739990234e-05, 4.88671875) (-4.631576156616211e-05, 4.888671875) (-4.4593372344970704e-05, 4.890625) (-4.251276397705078e-05, 4.892578125) (-4.047559356689453e-05, 4.89453125) (-3.8902099609374996e-05, 4.896484375) (-3.798837280273437e-05, 4.8984375) (-3.779148483276367e-05, 4.900390625) (-3.8282958984375e-05, 4.90234375) (-3.9330802917480466e-05, 4.904296875) (-4.0841651916503904e-05, 4.90625) (-4.2748538970947264e-05, 4.908203125) (-4.494648742675781e-05, 4.91015625) (-4.7320915222167964e-05, 4.912109375) (-4.9774044036865234e-05, 4.9140625) (-5.2218955993652344e-05, 4.916015625) (-5.458940887451172e-05, 4.91796875) (-5.684184265136719e-05, 4.919921875) (-5.891468811035156e-05, 4.921875) (-6.07393569946289e-05, 4.923828125) (-6.224787902832031e-05, 4.92578125) (-6.336964416503905e-05, 4.927734375) (-6.406779479980469e-05, 4.9296875) (-6.43325424194336e-05, 4.931640625) (-6.4170654296875e-05, 4.93359375) (-6.360726165771484e-05, 4.935546875) (-6.267074966430663e-05, 4.9375) (-6.139338302612304e-05, 4.939453125) (-5.9818061828613276e-05, 4.94140625) (-5.7995063781738276e-05, 4.943359375) (-5.597300720214844e-05, 4.9453125) (-5.379824066162109e-05, 4.947265625) (-5.1511466979980464e-05, 4.94921875) (-4.914599227905273e-05, 4.951171875) (-4.6739078521728515e-05, 4.953125) (-4.432881927490234e-05, 4.955078125) (-4.195347595214844e-05, 4.95703125) (-3.9652099609375e-05, 4.958984375) (-3.745023727416992e-05, 4.9609375) (-3.536180877685547e-05, 4.962890625) (-3.339467620849609e-05, 4.96484375) (-3.1549928665161134e-05, 4.966796875) (-2.982577896118164e-05, 4.96875) (-2.8218326568603516e-05, 4.970703125) (-2.67174129486084e-05, 4.97265625) (-2.5307559967041015e-05, 4.974609375) (-2.3974899291992186e-05, 4.9765625) (-2.2706531524658203e-05, 4.978515625) (-2.1490333557128904e-05, 4.98046875) (-2.03154239654541e-05, 4.982421875) (-1.9167409896850584e-05, 4.984375) (-1.802908134460449e-05, 4.986328125) (-1.6881832122802734e-05, 4.98828125) (-1.5705545425415037e-05, 4.990234375) (-1.4480973243713378e-05, 4.9921875) (-1.3189678192138672e-05, 4.994140625) (-1.181308364868164e-05, 4.99609375) (-1.0332916259765624e-05, 4.998046875) (-8.731816291809082e-06, 5.0) (-6.9932498931884765e-06, 5.001953125) (-5.102784156799316e-06, 5.00390625) (-3.0480337142944333e-06, 5.005859375) (-8.161008358001708e-07, 5.0078125) (1.6061487197875977e-06, 5.009765625) (4.232015609741211e-06, 5.01171875) (7.074986457824706e-06, 5.013671875) (1.014781379699707e-05, 5.015625) (1.3462358474731445e-05, 5.017578125) (1.702979278564453e-05, 5.01953125) (2.0860492706298826e-05, 5.021484375) (2.496265411376953e-05, 5.0234375) (2.9342010498046874e-05, 5.025390625) (3.4001747131347656e-05, 5.02734375) (3.8942901611328126e-05, 5.029296875) (4.4163909912109374e-05, 5.03125) (4.9660491943359376e-05, 5.033203125) (5.542852401733398e-05, 5.03515625) (6.146298980712891e-05, 5.037109375) (6.775898742675782e-05, 5.0390625) (7.431236267089843e-05, 5.041015625) (8.111485290527344e-05, 5.04296875) (8.815304565429687e-05, 5.044921875) (9.540852355957031e-05, 5.046875) (0.00010285768127441406, 5.048828125) (0.00011046963500976563, 5.05078125) (0.00011820838928222656, 5.052734375) (0.00012603590393066405, 5.0546875) (0.00013391168212890624, 5.056640625) (0.00014179953002929686, 5.05859375) (0.00014966807556152342, 5.060546875) (0.00015749331665039062, 5.0625) (0.00016525979614257812, 5.064453125) (0.00017295396423339842, 5.06640625) (0.00018056399536132812, 5.068359375) (0.00018806951904296875, 5.0703125) (0.00019544085693359373, 5.072265625) (0.00020264955139160154, 5.07421875) (0.00020966998291015624, 5.076171875) (0.00021648081970214843, 5.078125) (0.00022306454467773437, 5.080078125) (0.0002294136505126953, 5.08203125) (0.0002355283508300781, 5.083984375) (0.00024141595458984373, 5.0859375) (0.00024709341430664063, 5.087890625) (0.00025256805419921873, 5.08984375) (0.0002578328857421875, 5.091796875) (0.0002628617553710937, 5.09375) (0.00026760733032226564, 5.095703125) (0.0002720103149414062, 5.09765625) (0.00027600592041015625, 5.099609375) (0.0002795462646484375, 5.1015625) (0.00028259875488281246, 5.103515625) (0.0002851348266601562, 5.10546875) (0.00028713290405273437, 5.107421875) (0.00028857501220703124, 5.109375) (0.00028945092773437496, 5.111328125) (0.000289751220703125, 5.11328125) (0.0002894593505859375, 5.115234375) (0.0002885416259765625, 5.1171875) (0.00028694464111328125, 5.119140625) (0.0002846241455078125, 5.12109375) (0.00028155697631835935, 5.123046875) (0.00027774765014648435, 5.125) (0.0002732291259765625, 5.126953125) (0.0002680531005859375, 5.12890625) (0.0002622784729003906, 5.130859375) (0.00025595269775390624, 5.1328125) (0.00024911898803710937, 5.134765625) (0.00024182044982910155, 5.13671875) (0.00023408981323242188, 5.138671875) (0.00022594944763183592, 5.140625) (0.00021740313720703124, 5.142578125) (0.00020844129943847656, 5.14453125) (0.00019906814575195312, 5.146484375) (0.00018932263183593748, 5.1484375) (0.0001792774963378906, 5.150390625) (0.0001690120849609375, 5.15234375) (0.000158594970703125, 5.154296875) (0.00014808189392089843, 5.15625) (0.00013751806640624999, 5.158203125) (0.00012694808959960938, 5.16015625) (0.00011642247009277343, 5.162109375) (0.00010599142456054687, 5.1640625) (9.569394683837891e-05, 5.166015625) (8.556303405761718e-05, 5.16796875) (7.564154052734375e-05, 5.169921875) (6.598885345458984e-05, 5.171875) (5.669031524658203e-05, 5.173828125) (4.785077285766601e-05, 5.17578125) (3.955605316162109e-05, 5.177734375) (3.185494995117187e-05, 5.1796875) (2.4764287948608397e-05, 5.181640625) (1.8284915924072264e-05, 5.18359375) (1.2416895866394043e-05, 5.185546875) (7.152366638183593e-06, 5.1875) (2.4697093963623044e-06, 5.189453125) (-1.6748580932617187e-06, 5.19140625) (-5.34318733215332e-06, 5.193359375) (-8.585540771484375e-06, 5.1953125) (-1.1432558059692382e-05, 5.197265625) (-1.3905679702758788e-05, 5.19921875) (-1.603183364868164e-05, 5.201171875) (-1.785433578491211e-05, 5.203125) (-1.9439037322998046e-05, 5.205078125) (-2.0865242004394532e-05, 5.20703125) (-2.2195657730102536e-05, 5.208984375) (-2.3473983764648435e-05, 5.2109375) (-2.473072052001953e-05, 5.212890625) (-2.5988231658935547e-05, 5.21484375) (-2.726908493041992e-05, 5.216796875) (-2.8582963943481444e-05, 5.21875) (-2.9920703887939453e-05, 5.220703125) (-3.125056076049805e-05, 5.22265625) (-3.2527740478515624e-05, 5.224609375) (-3.372402572631836e-05, 5.2265625) (-3.483029556274414e-05, 5.228515625) (-3.584744262695313e-05, 5.23046875) (-3.677788543701172e-05, 5.232421875) (-3.761768341064453e-05, 5.234375) (-3.8354675292968746e-05, 5.236328125) (-3.8976833343505856e-05, 5.23828125) (-3.948435974121094e-05, 5.240234375) (-3.988072204589844e-05, 5.2421875) (-4.0169410705566406e-05, 5.244140625) (-4.035411071777344e-05, 5.24609375) (-4.043603515625e-05, 5.248046875) (-4.042469787597656e-05, 5.25) (-4.034088897705078e-05, 5.251953125) (-4.021577453613281e-05, 5.25390625) (-4.008427810668945e-05, 5.255859375) (-3.997141647338867e-05, 5.2578125) (-3.989247894287109e-05, 5.259765625) (-3.985742950439453e-05, 5.26171875) (-3.987355804443359e-05, 5.263671875) (-3.994745635986328e-05, 5.265625) (-4.008460998535156e-05, 5.267578125) (-4.028524780273437e-05, 5.26953125) (-4.054319763183593e-05, 5.271484375) (-4.085370635986328e-05, 5.2734375) (-4.12140998840332e-05, 5.275390625) (-4.162266159057617e-05, 5.27734375) (-4.207890319824218e-05, 5.279296875) (-4.2578945159912105e-05, 5.28125) (-4.311498641967773e-05, 5.283203125) (-4.367725372314453e-05, 5.28515625) (-4.4255722045898436e-05, 5.287109375) (-4.484171676635742e-05, 5.2890625) (-4.5427703857421874e-05, 5.291015625) (-4.600637054443359e-05, 5.29296875) (-4.657036209106445e-05, 5.294921875) (-4.711318206787109e-05, 5.296875) (-4.762958908081055e-05, 5.298828125) (-4.811629867553711e-05, 5.30078125) (-4.857135772705078e-05, 5.302734375) (-4.8991882324218745e-05, 5.3046875) (-4.9374279022216795e-05, 5.306640625) (-4.971480178833008e-05, 5.30859375) (-5.000965118408203e-05, 5.310546875) (-5.025572204589843e-05, 5.3125) (-5.0450485229492186e-05, 5.314453125) (-5.059136581420898e-05, 5.31640625) (-5.067588806152343e-05, 5.318359375) (-5.070263290405273e-05, 5.3203125) (-5.067116165161132e-05, 5.322265625) (-5.0581901550292966e-05, 5.32421875) (-5.0436210632324214e-05, 5.326171875) (-5.023580932617187e-05, 5.328125) (-4.998280715942382e-05, 5.330078125) (-4.9679939270019526e-05, 5.33203125) (-4.933047103881836e-05, 5.333984375) (-4.893802642822265e-05, 5.3359375) (-4.850650787353515e-05, 5.337890625) (-4.804005813598633e-05, 5.33984375) (-4.754306030273437e-05, 5.341796875) (-4.702022552490234e-05, 5.34375) (-4.6476539611816405e-05, 5.345703125) (-4.5917201995849607e-05, 5.34765625) (-4.534748840332031e-05, 5.349609375) (-4.4772693634033204e-05, 5.3515625) (-4.4198165893554684e-05, 5.353515625) (-4.36292724609375e-05, 5.35546875) (-4.3071308135986326e-05, 5.357421875) (-4.252941131591797e-05, 5.359375) (-4.200844573974609e-05, 5.361328125) (-4.151294708251953e-05, 5.36328125) (-4.104722213745117e-05, 5.365234375) (-4.061542129516601e-05, 5.3671875) (-4.022142791748047e-05, 5.369140625) (-3.986878967285156e-05, 5.37109375) (-3.95606575012207e-05, 5.373046875) (-3.929980087280273e-05, 5.375) (-3.908863067626953e-05, 5.376953125) (-3.892926025390625e-05, 5.37890625) (-3.882341003417968e-05, 5.380859375) (-3.8772216796874995e-05, 5.3828125) (-3.877625274658203e-05, 5.384765625) (-3.883559417724609e-05, 5.38671875) (-3.89498062133789e-05, 5.388671875) (-3.911806488037109e-05, 5.390625) (-3.9339122772216795e-05, 5.392578125) (-3.9611286163330076e-05, 5.39453125) (-3.993244934082031e-05, 5.396484375) (-4.030022048950195e-05, 5.3984375) (-4.071199035644531e-05, 5.400390625) (-4.1164955139160154e-05, 5.40234375) (-4.165615081787109e-05, 5.404296875) (-4.2182453155517576e-05, 5.40625) (-4.2740596771240234e-05, 5.408203125) (-4.332723617553711e-05, 5.41015625) (-4.3938976287841794e-05, 5.412109375) (-4.457241058349609e-05, 5.4140625) (-4.5224143981933594e-05, 5.416015625) (-4.589074325561523e-05, 5.41796875) (-4.656885147094726e-05, 5.419921875) (-4.7255180358886714e-05, 5.421875) (-4.794654083251953e-05, 5.423828125) (-4.8639915466308594e-05, 5.42578125) (-4.933247375488281e-05, 5.427734375) (-5.002152252197265e-05, 5.4296875) (-5.07046012878418e-05, 5.431640625) (-5.137944030761719e-05, 5.43359375) (-5.204402160644531e-05, 5.435546875) (-5.269654083251953e-05, 5.4375) (-5.33354263305664e-05, 5.439453125) (-5.3959300994873045e-05, 5.44140625) (-5.456703186035156e-05, 5.443359375) (-5.515774536132812e-05, 5.4453125) (-5.573084259033203e-05, 5.447265625) (-5.62860107421875e-05, 5.44921875) (-5.682321166992187e-05, 5.451171875) (-5.734269332885742e-05, 5.453125) (-5.784496688842773e-05, 5.455078125) (-5.8330821990966794e-05, 5.45703125) (-5.8801216125488276e-05, 5.458984375) (-5.925727462768555e-05, 5.4609375) (-5.970024108886719e-05, 5.462890625) (-6.013137817382812e-05, 5.46484375) (-6.055200958251953e-05, 5.466796875) (-6.096340179443359e-05, 5.46875) (-6.13668098449707e-05, 5.470703125) (-6.176343536376953e-05, 5.47265625) (-6.215439605712891e-05, 5.474609375) (-6.254075622558593e-05, 5.4765625) (-6.29234390258789e-05, 5.478515625) (-6.330326461791992e-05, 5.48046875) (-6.368091583251952e-05, 5.482421875) (-6.405689239501953e-05, 5.484375) (-6.443151092529297e-05, 5.486328125) (-6.48049087524414e-05, 5.48828125) (-6.517700958251953e-05, 5.490234375) (-6.554753112792968e-05, 5.4921875) (-6.591606903076172e-05, 5.494140625) (-6.628203582763672e-05, 5.49609375) (-6.664474487304688e-05, 5.498046875) (-6.700343322753906e-05, 5.5) (-6.735722351074218e-05, 5.501953125) (-6.770521545410156e-05, 5.50390625) (-6.804638671874999e-05, 5.505859375) (-6.837962341308593e-05, 5.5078125) (-6.87037353515625e-05, 5.509765625) (-6.901734924316406e-05, 5.51171875) (-6.931896209716797e-05, 5.513671875) (-6.960693359375e-05, 5.515625) (-6.987946319580078e-05, 5.517578125) (-7.01346435546875e-05, 5.51953125) (-7.037054443359374e-05, 5.521484375) (-7.058518981933594e-05, 5.5234375) (-7.077662658691406e-05, 5.525390625) (-7.09429702758789e-05, 5.52734375) (-7.108242797851562e-05, 5.529296875) (-7.119331359863281e-05, 5.53125) (-7.127411651611328e-05, 5.533203125) (-7.132344818115234e-05, 5.53515625) (-7.134011840820313e-05, 5.537109375) (-7.132314300537109e-05, 5.5390625) (-7.127175903320313e-05, 5.541015625) (-7.118547058105469e-05, 5.54296875) (-7.106409454345703e-05, 5.544921875) (-7.090774536132812e-05, 5.546875) (-7.071685791015625e-05, 5.548828125) (-7.049217224121093e-05, 5.55078125) (-7.023474884033203e-05, 5.552734375) (-6.994586944580078e-05, 5.5546875) (-6.962705993652344e-05, 5.556640625) (-6.927999877929687e-05, 5.55859375) (-6.89064712524414e-05, 5.560546875) (-6.850837707519532e-05, 5.5625) (-6.808763122558593e-05, 5.564453125) (-6.76462631225586e-05, 5.56640625) (-6.718632507324219e-05, 5.568359375) (-6.67099380493164e-05, 5.5703125) (-6.62193145751953e-05, 5.572265625) (-6.571670532226562e-05, 5.57421875) (-6.520448303222656e-05, 5.576171875) (-6.468512725830078e-05, 5.578125) (-6.416114044189453e-05, 5.580078125) (-6.363511657714843e-05, 5.58203125) (-6.310963821411133e-05, 5.583984375) (-6.25872688293457e-05, 5.5859375) (-6.207053756713866e-05, 5.587890625) (-6.156192779541015e-05, 5.58984375) (-6.106383514404297e-05, 5.591796875) (-6.0578525543212886e-05, 5.59375) (-6.010811233520508e-05, 5.595703125) (-5.965456390380859e-05, 5.59765625) (-5.9219657897949216e-05, 5.599609375) (-5.880494689941406e-05, 5.6015625) (-5.841172790527344e-05, 5.603515625) (-5.8041000366210936e-05, 5.60546875) (-5.769345092773437e-05, 5.607421875) (-5.736941528320312e-05, 5.609375) (-5.706891632080078e-05, 5.611328125) (-5.679164123535156e-05, 5.61328125) (-5.6537010192871094e-05, 5.615234375) (-5.6304161071777344e-05, 5.6171875) (-5.609200286865234e-05, 5.619140625) (-5.5899288177490234e-05, 5.62109375) (-5.572462463378906e-05, 5.623046875) (-5.5566528320312496e-05, 5.625) (-5.542345428466797e-05, 5.626953125) (-5.52938117980957e-05, 5.62890625) (-5.517594146728515e-05, 5.630859375) (-5.5068168640136715e-05, 5.6328125) (-5.4968795776367185e-05, 5.634765625) (-5.4876121520996094e-05, 5.63671875) (-5.478843688964843e-05, 5.638671875) (-5.4704006195068354e-05, 5.640625) (-5.46211051940918e-05, 5.642578125) (-5.453800582885742e-05, 5.64453125) (-5.4453041076660155e-05, 5.646484375) (-5.436458587646484e-05, 5.6484375) (-5.427109909057617e-05, 5.650390625) (-5.417109680175781e-05, 5.65234375) (-5.406320190429687e-05, 5.654296875) (-5.394618988037109e-05, 5.65625) (-5.381901168823242e-05, 5.658203125) (-5.368080902099609e-05, 5.66015625) (-5.3530921936035155e-05, 5.662109375) (-5.33688850402832e-05, 5.6640625) (-5.319447326660156e-05, 5.666015625) (-5.300771331787109e-05, 5.66796875) (-5.280886840820312e-05, 5.669921875) (-5.2598434448242186e-05, 5.671875) (-5.23771858215332e-05, 5.673828125) (-5.214606857299805e-05, 5.67578125) (-5.190625381469726e-05, 5.677734375) (-5.165912246704101e-05, 5.6796875) (-5.1406185150146485e-05, 5.681640625) (-5.114913558959961e-05, 5.68359375) (-5.088973999023437e-05, 5.685546875) (-5.0629829406738276e-05, 5.6875) (-5.037117767333984e-05, 5.689453125) (-5.011551666259765e-05, 5.69140625) (-4.986454010009766e-05, 5.693359375) (-4.961985397338867e-05, 5.6953125) (-4.9383033752441405e-05, 5.697265625) (-4.9155502319335933e-05, 5.69921875) (-4.893855285644531e-05, 5.701171875) (-4.8733390808105464e-05, 5.703125) (-4.854109191894531e-05, 5.705078125) (-4.836262893676758e-05, 5.70703125) (-4.819883346557617e-05, 5.708984375) (-4.805032348632812e-05, 5.7109375) (-4.7917491912841795e-05, 5.712890625) (-4.7800521850585934e-05, 5.71484375) (-4.7699264526367186e-05, 5.716796875) (-4.7613235473632814e-05, 5.71875) (-4.754169845581055e-05, 5.720703125) (-4.7483520507812496e-05, 5.72265625) (-4.743727111816406e-05, 5.724609375) (-4.740126037597656e-05, 5.7265625) (-4.7373451232910156e-05, 5.728515625) (-4.7351558685302734e-05, 5.73046875) (-4.7333183288574214e-05, 5.732421875) (-4.731574249267578e-05, 5.734375) (-4.729637908935547e-05, 5.736328125) (-4.727210235595703e-05, 5.73828125) (-4.723970031738281e-05, 5.740234375) (-4.719575119018555e-05, 5.7421875) (-4.713680267333984e-05, 5.744140625) (-4.7059165954589844e-05, 5.74609375) (-4.695896911621093e-05, 5.748046875) (-4.683235931396484e-05, 5.75) (-4.667565155029297e-05, 5.751953125) (-4.648530197143555e-05, 5.75390625) (-4.625794982910156e-05, 5.755859375) (-4.5990310668945313e-05, 5.7578125) (-4.567901611328125e-05, 5.759765625) (-4.53209114074707e-05, 5.76171875) (-4.491299438476562e-05, 5.763671875) (-4.445235061645507e-05, 5.765625) (-4.3936309814453125e-05, 5.767578125) (-4.3362220764160156e-05, 5.76953125) (-4.2727577209472655e-05, 5.771484375) (-4.203021240234375e-05, 5.7734375) (-4.12682991027832e-05, 5.775390625) (-4.044038772583008e-05, 5.77734375) (-3.954569244384766e-05, 5.779296875) (-3.85839958190918e-05, 5.78125) (-3.7555332183837886e-05, 5.783203125) (-3.646036911010742e-05, 5.78515625) (-3.5300262451171877e-05, 5.787109375) (-3.407662200927734e-05, 5.7890625) (-3.279180908203125e-05, 5.791015625) (-3.144855117797852e-05, 5.79296875) (-3.00494384765625e-05, 5.794921875) (-2.859710121154785e-05, 5.796875) (-2.7094491958618162e-05, 5.798828125) (-2.5544654846191403e-05, 5.80078125) (-2.395130729675293e-05, 5.802734375) (-2.2318769454956052e-05, 5.8046875) (-2.065163803100586e-05, 5.806640625) (-1.8955196380615234e-05, 5.80859375) (-1.7235797882080078e-05, 5.810546875) (-1.5500783920288086e-05, 5.8125) (-1.3758242607116699e-05, 5.814453125) (-1.201695442199707e-05, 5.81640625) (-1.0285648345947265e-05, 5.818359375) (-8.572867393493652e-06, 5.8203125) (-6.8870959281921386e-06, 5.822265625) (-5.236980438232422e-06, 5.82421875) (-3.6314642429351807e-06, 5.826171875) (-2.0802369117736813e-06, 5.828125) (-5.94627857208252e-07, 5.830078125) (8.134552836418151e-07, 5.83203125) (2.1316113471984863e-06, 5.833984375) (3.347258329391479e-06, 5.8359375) (4.448410511016845e-06, 5.837890625) (5.422542572021484e-06, 5.83984375) (6.258611679077148e-06, 5.841796875) (6.949175357818603e-06, 5.84375) (7.491644859313964e-06, 5.845703125) (7.887307167053223e-06, 5.84765625) (8.137897491455078e-06, 5.849609375) (8.2418212890625e-06, 5.8515625) (8.19184684753418e-06, 5.853515625) (7.98095417022705e-06, 5.85546875) (7.599129676818847e-06, 5.857421875) (7.035380363464355e-06, 5.859375) (6.284552574157714e-06, 5.861328125) (5.33827781677246e-06, 5.86328125) (4.190261363983154e-06, 5.865234375) (2.839066982269287e-06, 5.8671875) (1.2841444015502929e-06, 5.869140625) (-4.6748554706573484e-07, 5.87109375) (-2.4005451202392575e-06, 5.873046875) (-4.503124237060547e-06, 5.875) (-6.778140544891357e-06, 5.876953125) (-9.232367515563964e-06, 5.87890625) (-1.1872081756591796e-05, 5.880859375) (-1.4686163902282715e-05, 5.8828125) (-1.7629470825195312e-05, 5.884765625) (-2.0653759002685545e-05, 5.88671875) (-2.3702423095703124e-05, 5.888671875) (-2.6719543457031248e-05, 5.890625) (-2.9667640686035155e-05, 5.892578125) (-3.2486919403076174e-05, 5.89453125) (-3.510438537597656e-05, 5.896484375) (-3.745156478881836e-05, 5.8984375) (-3.946650695800781e-05, 5.900390625) (-4.1122459411621095e-05, 5.90234375) (-4.2439453125e-05, 5.904296875) (-4.340835571289062e-05, 5.90625) (-4.395828247070312e-05, 5.908203125) (-4.405923461914062e-05, 5.91015625) (-4.373651123046875e-05, 5.912109375) (-4.31523208618164e-05, 5.9140625) (-4.2605186462402345e-05, 5.916015625) (-4.231153106689453e-05, 5.91796875) (-4.2440666198730466e-05, 5.919921875) (-4.320068359375e-05, 5.921875) (-4.47483901977539e-05, 5.923828125) (-4.716730499267578e-05, 5.92578125) (-5.041158294677734e-05, 5.927734375) (-5.4019065856933594e-05, 5.9296875) (-5.734920501708984e-05, 5.931640625) (-5.999896240234375e-05, 5.93359375) (-6.134504318237304e-05, 5.935546875) (-6.0691459655761714e-05, 5.9375) (-5.790309143066406e-05, 5.939453125) (-5.288778686523437e-05, 5.94140625) (-4.6542926788330077e-05, 5.943359375) (-4.1389915466308594e-05, 5.9453125) (-3.8508460998535154e-05, 5.947265625) (-3.8029777526855466e-05, 5.94921875) (-3.948722839355468e-05, 5.951171875) (-4.029089736938476e-05, 5.953125) (-4.156929779052734e-05, 5.955078125) (-4.778359985351562e-05, 5.95703125) (-6.276561737060547e-05, 5.958984375) (-9.11217803955078e-05, 5.9609375) (-0.00013111434936523438, 5.962890625) (-0.00017418902587890625, 5.96484375) (-0.00021221957397460936, 5.966796875) (-0.00023657080078124998, 5.96875) (-0.0002428877716064453, 5.970703125) (-0.00023241650390625, 5.97265625) (-0.00020539727783203124, 5.974609375) (-0.00016228607177734374, 5.9765625) (-0.00010428465270996093, 5.978515625) (-3.254969024658203e-05, 5.98046875) (4.996597290039062e-05, 5.982421875) (0.0001393992004394531, 5.984375) (0.00023413893127441406, 5.986328125) (0.0003335707092285156, 5.98828125) (0.0004337745971679687, 5.990234375) (0.0005274251708984374, 5.9921875) (0.0006029061279296875, 5.994140625) (0.0006484151611328124, 5.99609375) (0.0006599732666015624, 5.998046875) (0.000641758056640625, 6.0) (0.0006037099609374999, 6.001953125) (0.0005557552490234375, 6.00390625) (0.00050167578125, 6.005859375) (0.00043998748779296875, 6.0078125) (0.0003685823364257812, 6.009765625) (0.0002902002563476562, 6.01171875) (0.00021362455749511717, 6.013671875) (0.00014882768249511717, 6.015625) (0.00010334478759765625, 6.017578125) (7.783051300048827e-05, 6.01953125) (6.639623260498046e-05, 6.021484375) (6.444561004638672e-05, 6.0234375) (6.646867370605469e-05, 6.025390625) (6.746186828613281e-05, 6.02734375) (6.615689086914062e-05, 6.029296875) (5.816490936279297e-05, 6.03125) (4.258152770996094e-05, 6.033203125) (2.384065246582031e-05, 6.03515625) (4.664568901062011e-06, 6.037109375) (-1.0552828788757324e-05, 6.0390625) (-2.02819709777832e-05, 6.041015625) (-2.789719009399414e-05, 6.04296875) (-3.511181640625e-05, 6.044921875) (-4.2819843292236325e-05, 6.046875) (-5.072908782958984e-05, 6.048828125) (-5.6770683288574213e-05, 6.05078125) (-6.019581604003906e-05, 6.052734375) (-6.138514328002929e-05, 6.0546875) (-6.083489227294922e-05, 6.056640625) (-5.926587677001953e-05, 6.05859375) (-5.710073852539062e-05, 6.060546875) (-5.456777954101562e-05, 6.0625) (-5.20932731628418e-05, 6.064453125) (-5.0065494537353515e-05, 6.06640625) (-4.870841598510742e-05, 6.068359375) (-4.807475280761719e-05, 6.0703125) (-4.810334396362304e-05, 6.072265625) (-4.874527740478515e-05, 6.07421875) (-4.9956878662109374e-05, 6.076171875) (-5.167761993408203e-05, 6.078125) (-5.378597259521484e-05, 6.080078125) (-5.611606216430664e-05, 6.08203125) (-5.8524116516113277e-05, 6.083984375) (-6.090065765380859e-05, 6.0859375) (-6.317288208007813e-05, 6.087890625) (-6.528114318847657e-05, 6.08984375) (-6.716975402832031e-05, 6.091796875) (-6.878562164306641e-05, 6.09375) (-7.006953430175781e-05, 6.095703125) (-7.096194458007812e-05, 6.09765625) (-7.140814971923827e-05, 6.099609375) (-7.138091278076171e-05, 6.1015625) (-7.087908935546874e-05, 6.103515625) (-6.992109680175781e-05, 6.10546875) (-6.855624389648437e-05, 6.107421875) (-6.684832763671875e-05, 6.109375) (-6.488021850585938e-05, 6.111328125) (-6.276062774658203e-05, 6.11328125) (-6.0591876983642576e-05, 6.115234375) (-5.845696258544922e-05, 6.1171875) (-5.6410804748535155e-05, 6.119140625) (-5.447754669189453e-05, 6.12109375) (-5.265628814697265e-05, 6.123046875) (-5.093312072753906e-05, 6.125) (-4.9304515838623045e-05, 6.126953125) (-4.7774753570556636e-05, 6.12890625) (-4.635316467285156e-05, 6.130859375) (-4.5045413970947264e-05, 6.1328125) (-4.38477554321289e-05, 6.134765625) (-4.2753379821777344e-05, 6.13671875) (-4.1745338439941404e-05, 6.138671875) (-4.080007553100586e-05, 6.140625) (-3.987899780273437e-05, 6.142578125) (-3.892439270019531e-05, 6.14453125) (-3.788291931152344e-05, 6.146484375) (-3.671404266357422e-05, 6.1484375) (-3.539869689941406e-05, 6.150390625) (-3.393893051147461e-05, 6.15234375) (-3.235330200195312e-05, 6.154296875) (-3.06720085144043e-05, 6.15625) (-2.8917188644409177e-05, 6.158203125) (-2.7104223251342773e-05, 6.16015625) (-2.5241237640380858e-05, 6.162109375) (-2.3327438354492186e-05, 6.1640625) (-2.1358276367187498e-05, 6.166015625) (-1.93245792388916e-05, 6.16796875) (-1.721523094177246e-05, 6.169921875) (-1.5017571449279784e-05, 6.171875) (-1.2728408813476562e-05, 6.173828125) (-1.0355176925659178e-05, 6.17578125) (-7.90319776535034e-06, 6.177734375) (-5.374457359313965e-06, 6.1796875) (-2.7609148025512696e-06, 6.181640625) (-4.388785362243652e-08, 6.18359375) (2.802223443984985e-06, 6.185546875) (5.808598518371582e-06, 6.1875) (9.004846572875977e-06, 6.189453125) (1.2419124603271483e-05, 6.19140625) (1.607522201538086e-05, 6.193359375) (1.9991243362426757e-05, 6.1953125) (2.4179191589355468e-05, 6.197265625) (2.8643356323242186e-05, 6.19921875) (3.338484191894531e-05, 6.201171875) (3.840151214599609e-05, 6.203125) (4.369485092163086e-05, 6.205078125) (4.9271903991699215e-05, 6.20703125) (5.513508224487304e-05, 6.208984375) (6.128118515014649e-05, 6.2109375) (6.770288848876953e-05, 6.212890625) (7.438772583007812e-05, 6.21484375) (8.131680297851562e-05, 6.216796875) (8.846852111816406e-05, 6.21875) (9.581384277343749e-05, 6.220703125) (0.00010331179809570312, 6.22265625) (0.00011092434692382812, 6.224609375) (0.00011861520385742187, 6.2265625) (0.00012635010528564452, 6.228515625) (0.00013410733032226562, 6.23046875) (0.00014186639404296873, 6.232421875) (0.00014960450744628905, 6.234375) (0.00015729908752441405, 6.236328125) (0.00016492623901367186, 6.23828125) (0.00017246781921386717, 6.240234375) (0.00017991850280761718, 6.2421875) (0.00018727633666992187, 6.244140625) (0.0001945322265625, 6.24609375) (0.00020168157958984375, 6.248046875) (0.00020871884155273436, 6.25) (0.0002156453399658203, 6.251953125) (0.00022248419189453125, 6.25390625) (0.0002292498779296875, 6.255859375) (0.00023594593811035154, 6.2578125) (0.00024257208251953123, 6.259765625) (0.000249106689453125, 6.26171875) (0.0002555187072753906, 6.263671875) (0.00026177981567382814, 6.265625) (0.00026785357666015623, 6.267578125) (0.00027368927001953123, 6.26953125) (0.0002792284240722656, 6.271484375) (0.00028439367675781247, 6.2734375) (0.00028909591674804684, 6.275390625) (0.00029326654052734373, 6.27734375) (0.00029684271240234373, 6.279296875) (0.000299765869140625, 6.28125) (0.0003019829406738281, 6.283203125) (0.00030342404174804686, 6.28515625) (0.00030402630615234376, 6.287109375) (0.00030374462890625, 6.2890625) (0.00030254205322265625, 6.291015625) (0.0003004002075195312, 6.29296875) (0.00029731741333007813, 6.294921875) (0.0002932936401367187, 6.296875) (0.0002883389892578125, 6.298828125) (0.0002824913635253906, 6.30078125) (0.00027580291748046873, 6.302734375) (0.00026834823608398435, 6.3046875) (0.00026022784423828125, 6.306640625) (0.00025152479553222656, 6.30859375) (0.00024230548095703123, 6.310546875) (0.00023263189697265624, 6.3125) (0.0002225513458251953, 6.314453125) (0.00021211317443847654, 6.31640625) (0.00020137921142578124, 6.318359375) (0.00019040924072265624, 6.3203125) (0.0001792600402832031, 6.322265625) (0.0001679925079345703, 6.32421875) (0.00015666571044921875, 6.326171875) (0.00014534288024902343, 6.328125) (0.00013409771728515625, 6.330078125) (0.00012299303436279297, 6.33203125) (0.00011207410430908203, 6.333984375) (0.0001013693389892578, 6.3359375) (9.088111877441406e-05, 6.337890625) (8.061582946777344e-05, 6.33984375) (7.06056671142578e-05, 6.341796875) (6.089268493652343e-05, 6.34375) (5.153586959838867e-05, 