(-0.00011839128875732422, 0.0) (-0.00013421250915527343, 0.001953125) (-0.00014953102111816405, 0.00390625) (-0.000163912841796875, 0.005859375) (-0.00017673760986328124, 0.0078125) (-0.00018688433837890623, 0.009765625) (-0.00019338116455078124, 0.01171875) (-0.0001954986877441406, 0.013671875) (-0.000192170166015625, 0.015625) (-0.0001823706512451172, 0.017578125) (-0.00016517291259765624, 0.01953125) (-0.00013939308166503907, 0.021484375) (-0.00010442627716064453, 0.0234375) (-6.065026473999023e-05, 0.025390625) (-8.890220642089844e-06, 0.02734375) (4.9503917694091796e-05, 0.029296875) (0.00011237384033203124, 0.03125) (0.00017723348999023437, 0.033203125) (0.0002412106018066406, 0.03515625) (0.0003006859741210937, 0.037109375) (0.0003522734375, 0.0390625) (0.0003931947326660156, 0.041015625) (0.0004211581420898437, 0.04296875) (0.0004347969360351562, 0.044921875) (0.00043359747314453123, 0.046875) (0.0004176406555175781, 0.048828125) (0.00038793045043945313, 0.05078125) (0.0003467501831054687, 0.052734375) (0.00029701440429687496, 0.0546875) (0.00024198370361328125, 0.056640625) (0.0001850443878173828, 0.05859375) (0.00012915982055664062, 0.060546875) (7.707437133789063e-05, 0.0625) (3.1298303604125975e-05, 0.064453125) (-6.3380079269409175e-06, 0.06640625) (-3.511469268798828e-05, 0.068359375) (-5.5262268066406245e-05, 0.0703125) (-6.771248626708985e-05, 0.072265625) (-7.385714721679687e-05, 0.07421875) (-7.517919921875e-05, 0.076171875) (-7.335003662109375e-05, 0.078125) (-7.021259307861328e-05, 0.080078125) (-6.745081329345703e-05, 0.08203125) (-6.609909057617187e-05, 0.083984375) (-6.652041625976562e-05, 0.0859375) (-6.863153076171874e-05, 0.087890625) (-7.201166534423828e-05, 0.08984375) (-7.61356201171875e-05, 0.091796875) (-8.039710998535157e-05, 0.09375) (-8.401273345947265e-05, 0.095703125) (-8.620960998535156e-05, 0.09765625) (-8.661050415039062e-05, 0.099609375) (-8.520235443115234e-05, 0.1015625) (-8.220106506347656e-05, 0.103515625) (-7.801619720458984e-05, 0.10546875) (-7.306077575683593e-05, 0.107421875) (-6.772607421875e-05, 0.109375) (-6.248217010498046e-05, 0.111328125) (-5.777606201171875e-05, 0.11328125) (-5.385904312133789e-05, 0.115234375) (-5.082835388183593e-05, 0.1171875) (-4.866584396362304e-05, 0.119140625) (-4.726425170898437e-05, 0.12109375) (-4.653409957885742e-05, 0.123046875) (-4.639376831054687e-05, 0.125) (-4.672539520263672e-05, 0.126953125) (-4.739698028564453e-05, 0.12890625) (-4.829177093505859e-05, 0.130859375) (-4.931222534179687e-05, 0.1328125) (-5.0378097534179685e-05, 0.134765625) (-5.1414291381835936e-05, 0.13671875) (-5.2331268310546874e-05, 0.138671875) (-5.3030693054199214e-05, 0.140625) (-5.341959381103515e-05, 0.142578125) (-5.343432235717773e-05, 0.14453125) (-5.3043025970458985e-05, 0.146484375) (-5.223160934448242e-05, 0.1484375) (-5.100494766235351e-05, 0.150390625) (-4.937771987915039e-05, 0.15234375) (-4.737091064453125e-05, 0.154296875) (-4.501935577392578e-05, 0.15625) (-4.2365936279296875e-05, 0.158203125) (-3.9452358245849606e-05, 0.16015625) (-3.632102966308594e-05, 0.162109375) (-3.301244354248047e-05, 0.1640625) (-2.956396484375e-05, 0.166015625) (-2.6018547058105468e-05, 0.16796875) (-2.242092704772949e-05, 0.169921875) (-1.8814592361450195e-05, 0.171875) (-1.5242835998535156e-05, 0.173828125) (-1.1737090110778808e-05, 0.17578125) (-8.316296577453613e-06, 0.177734375) (-4.993962287902832e-06, 0.1796875) (-1.7765123844146727e-06, 0.181640625) (1.3342998027801512e-06, 0.18359375) (4.33786678314209e-06, 0.185546875) (7.238433361053467e-06, 0.1875) (1.0044086456298828e-05, 0.189453125) (1.2759645462036132e-05, 0.19140625) (1.538818359375e-05, 0.193359375) (1.7932260513305664e-05, 0.1953125) (2.0392379760742188e-05, 0.197265625) (2.277114105224609e-05, 0.19921875) (2.5073068618774412e-05, 0.201171875) (2.730226135253906e-05, 0.203125) (2.946315002441406e-05, 0.205078125) (3.155924034118652e-05, 0.20703125) (3.3592498779296876e-05, 0.208984375) (3.5564838409423823e-05, 0.2109375) (3.747821426391601e-05, 0.212890625) (3.9333911895751954e-05, 0.21484375) (4.113331604003906e-05, 0.216796875) (4.287744140625e-05, 0.21875) (4.4566833496093745e-05, 0.220703125) (4.6203514099121094e-05, 0.22265625) (4.779068756103515e-05, 0.224609375) (4.9331909179687495e-05, 0.2265625) (5.0831199645996094e-05, 0.228515625) (5.229235076904297e-05, 0.23046875) (5.371863174438476e-05, 0.232421875) (5.511343383789062e-05, 0.234375) (5.648013687133789e-05, 0.236328125) (5.7821422576904296e-05, 0.23828125) (5.9139408111572264e-05, 0.240234375) (6.0435836791992184e-05, 0.2421875) (6.171189880371093e-05, 0.244140625) (6.296868515014648e-05, 0.24609375) (6.420724487304688e-05, 0.248046875) (6.542832946777343e-05, 0.25) (6.663243103027344e-05, 0.251953125) (6.781985473632812e-05, 0.25390625) (6.899072265625e-05, 0.255859375) (7.014486694335937e-05, 0.2578125) (7.128208160400391e-05, 0.259765625) (7.240193939208985e-05, 0.26171875) (7.350384521484374e-05, 0.263671875) (7.458699798583984e-05, 0.265625) (7.56504898071289e-05, 0.267578125) (7.669313812255859e-05, 0.26953125) (7.771361541748046e-05, 0.271484375) (7.871043395996094e-05, 0.2734375) (7.96817398071289e-05, 0.275390625) (8.062548828125e-05, 0.27734375) (8.153931427001953e-05, 0.279296875) (8.242058563232421e-05, 0.28125) (8.326646423339844e-05, 0.283203125) (8.407388305664062e-05, 0.28515625) (8.483955383300781e-05, 0.287109375) (8.556015014648437e-05, 0.2890625) (8.623228454589844e-05, 0.291015625) (8.685257720947266e-05, 0.29296875) (8.74177474975586e-05, 0.294921875) (8.792459869384765e-05, 0.296875) (8.837002563476563e-05, 0.298828125) (8.875118255615234e-05, 0.30078125) (8.906543731689453e-05, 0.302734375) (8.931037139892577e-05, 0.3046875) (8.94837646484375e-05, 0.306640625) (8.958356475830078e-05, 0.30859375) (8.960787963867188e-05, 0.310546875) (8.955501556396484e-05, 0.3125) (8.942353820800781e-05, 0.314453125) (8.921210479736328e-05, 0.31640625) (8.891954040527343e-05, 0.318359375) (8.85448760986328e-05, 0.3203125) (8.808724975585937e-05, 0.322265625) (8.754600524902343e-05, 0.32421875) (8.692062377929687e-05, 0.326171875) (8.621080780029297e-05, 0.328125) (8.541641235351561e-05, 0.330078125) (8.453756713867188e-05, 0.33203125) (8.357463073730468e-05, 0.333984375) (8.252827453613281e-05, 0.3359375) (8.139957427978515e-05, 0.337890625) (8.018996429443358e-05, 0.33984375) (7.890128326416016e-05, 0.341796875) (7.753584289550781e-05, 0.34375) (7.60963134765625e-05, 0.345703125) (7.458583068847656e-05, 0.34765625) (7.30079116821289e-05, 0.349609375) (7.136639404296875e-05, 0.3515625) (6.966543579101562e-05, 0.353515625) (6.790945434570313e-05, 0.35546875) (6.610308837890624e-05, 0.357421875) (6.425125122070313e-05, 0.359375) (6.23589744567871e-05, 0.361328125) (6.0431488037109374e-05, 0.36328125) (5.847416305541992e-05, 0.365234375) (5.649249649047851e-05, 0.3671875) (5.449209976196289e-05, 0.369140625) (5.247867584228515e-05, 0.37109375) (5.045798110961914e-05, 0.373046875) (4.843582916259765e-05, 0.375) (4.641804504394531e-05, 0.376953125) (4.441046905517578e-05, 0.37890625) (4.2418945312499997e-05, 0.380859375) (4.044928741455078e-05, 0.3828125) (3.850733184814453e-05, 0.384765625) (3.6598846435546874e-05, 0.38671875) (3.472954559326172e-05, 0.388671875) (3.290506362915039e-05, 0.390625) (3.1130939483642576e-05, 0.392578125) (2.9412525177001953e-05, 0.39453125) (2.7754949569702148e-05, 0.396484375) (2.616305351257324e-05, 0.3984375) (2.4641326904296872e-05, 0.400390625) (2.3193870544433594e-05, 0.40234375) (2.1824359893798827e-05, 0.404296875) (2.0536014556884765e-05, 0.40625) (1.9331579208374024e-05, 0.408203125) (1.8213321685791015e-05, 0.41015625) (1.7183048248291014e-05, 0.412109375) (1.6242118835449217e-05, 0.4140625) (1.5391468048095702e-05, 0.416015625) (1.4631608009338378e-05, 0.41796875) (1.39626407623291e-05, 0.419921875) (1.3384258270263672e-05, 0.421875) (1.2895756721496582e-05, 0.423828125) (1.249604606628418e-05, 0.42578125) (1.2183664321899413e-05, 0.427734375) (1.1956783294677733e-05, 0.4296875) (1.1813217163085937e-05, 0.431640625) (1.175044059753418e-05, 0.43359375) (1.1765620231628418e-05, 0.435546875) (1.1855620384216308e-05, 0.4375) (1.2017037391662597e-05, 0.439453125) (1.2246185302734375e-05, 0.44140625) (1.2539085388183593e-05, 0.443359375) (1.2891494750976562e-05, 0.4453125) (1.3298891067504883e-05, 0.447265625) (1.3756499290466309e-05, 0.44921875) (1.4259302139282227e-05, 0.451171875) (1.4802069664001464e-05, 0.453125) (1.537938690185547e-05, 0.455078125) (1.598573017120361e-05, 0.45703125) (1.6615535736083984e-05, 0.458984375) (1.726326560974121e-05, 0.4609375) (1.7923471450805662e-05, 0.462890625) (1.8590831756591797e-05, 0.46484375) (1.9260198593139646e-05, 0.466796875) (1.9926639556884766e-05, 0.46875) (2.0585464477539062e-05, 0.470703125) (2.1232223510742188e-05, 0.47265625) (2.186271858215332e-05, 0.474609375) (2.247298240661621e-05, 0.4765625) (2.305929183959961e-05, 0.478515625) (2.3618183135986326e-05, 0.48046875) (2.4146471023559568e-05, 0.482421875) (2.4641235351562498e-05, 0.484375) (2.5099834442138672e-05, 0.486328125) (2.55198860168457e-05, 0.48828125) (2.589926528930664e-05, 0.490234375) (2.6236095428466796e-05, 0.4921875) (2.652876853942871e-05, 0.494140625) (2.6775896072387694e-05, 0.49609375) (2.697629928588867e-05, 0.498046875) (2.7129009246826172e-05, 0.5) (2.7233247756958007e-05, 0.501953125) (2.7288499832153318e-05, 0.50390625) (2.7294548034667966e-05, 0.505859375) (2.725146675109863e-05, 0.5078125) (2.7159624099731444e-05, 0.509765625) (2.7019704818725586e-05, 0.51171875) (2.6832723617553708e-05, 0.513671875) (2.6600011825561522e-05, 0.515625) (2.632321739196777e-05, 0.517578125) (2.6004169464111327e-05, 0.51953125) (2.5644813537597654e-05, 0.521484375) (2.5247196197509764e-05, 0.5234375) (2.4813405990600586e-05, 0.525390625) (2.4345581054687497e-05, 0.52734375) (2.3845870971679686e-05, 0.529296875) (2.3316375732421875e-05, 0.53125) (2.2759140014648435e-05, 0.533203125) (2.217618942260742e-05, 0.53515625) (2.156952667236328e-05, 0.537109375) (2.0941131591796875e-05, 0.5390625) (2.0292966842651365e-05, 0.541015625) (1.962685394287109e-05, 0.54296875) (1.894451332092285e-05, 0.544921875) (1.8247589111328123e-05, 0.546875) (1.7537628173828125e-05, 0.548828125) (1.6816192626953125e-05, 0.55078125) (1.608489418029785e-05, 0.552734375) (1.5345338821411133e-05, 0.5546875) (1.4599164009094238e-05, 0.556640625) (1.3848133087158202e-05, 0.55859375) (1.3094145774841309e-05, 0.560546875) (1.2339273452758789e-05, 0.5625) (1.158575439453125e-05, 0.564453125) (1.0835772514343261e-05, 0.56640625) (1.0091394424438476e-05, 0.568359375) (9.354634284973144e-06, 0.5703125) (8.627466201782227e-06, 0.572265625) (7.911760330200195e-06, 0.57421875) (7.209264755249023e-06, 0.576171875) (6.5215005874633785e-06, 0.578125) (5.849766731262207e-06, 0.580078125) (5.1954383850097655e-06, 0.58203125) (4.560042858123779e-06, 0.583984375) (3.9451699256896974e-06, 0.5859375) (3.352466583251953e-06, 0.587890625) (2.7835514545440673e-06, 0.58984375) (2.240023612976074e-06, 0.591796875) (1.7236275672912597e-06, 0.59375) (1.2362167835235594e-06, 0.595703125) (7.79563307762146e-07, 0.59765625) (3.554238677024841e-07, 0.599609375) (-3.448418900370598e-08, 0.6015625) (-3.884487748146057e-07, 0.603515625) (-7.044786214828491e-07, 0.60546875) (-9.804011583328246e-07, 0.607421875) (-1.2139885425567627e-06, 0.609375) (-1.4029371738433837e-06, 0.611328125) (-1.5451128482818602e-06, 0.61328125) (-1.6386961936950684e-06, 0.615234375) (-1.6820135116577147e-06, 0.6171875) (-1.6735857725143432e-06, 0.619140625) (-1.612415075302124e-06, 0.62109375) (-1.4979863166809082e-06, 0.623046875) (-1.3303395509719848e-06, 0.625) (-1.1101043224334716e-06, 0.626953125) (-8.379881381988525e-07, 0.62890625) (-5.145936012268066e-07, 0.630859375) (-1.4080223441123963e-07, 0.6328125) (2.821362018585205e-07, 0.634765625) (7.528657913208007e-07, 0.63671875) (1.269935369491577e-06, 0.638671875) (1.8320192098617553e-06, 0.640625) (2.4380052089691163e-06, 0.642578125) (3.0860540866851807e-06, 0.64453125) (3.773337364196777e-06, 0.646484375) (4.496708393096923e-06, 0.6484375) (5.252669811248779e-06, 0.650390625) (6.037081241607666e-06, 0.65234375) (6.845389366149902e-06, 0.654296875) (7.671875e-06, 0.65625) (8.509713172912597e-06, 0.658203125) (9.352722167968749e-06, 0.66015625) (1.0194921493530273e-05, 0.662109375) (1.1030048370361328e-05, 0.6640625) (1.1851743698120116e-05, 0.666015625) (1.2652645111083985e-05, 0.66796875) (1.3424614906311034e-05, 0.669921875) (1.4160066604614258e-05, 0.671875) (1.4851318359374999e-05, 0.673828125) (1.5489459991455076e-05, 0.67578125) (1.606568717956543e-05, 0.677734375) (1.6569908142089842e-05, 0.6796875) (1.6991127014160156e-05, 0.681640625) (1.7321596145629883e-05, 0.68359375) (1.755495262145996e-05, 0.685546875) (1.7686468124389648e-05, 0.6875) (1.7714141845703125e-05, 0.689453125) (1.7633453369140626e-05, 0.69140625) (1.743728446960449e-05, 0.693359375) (1.712018013000488e-05, 0.6953125) (1.6676593780517577e-05, 0.697265625) (1.609740447998047e-05, 0.69921875) (1.537210273742676e-05, 0.701171875) (1.4484282493591308e-05, 0.703125) (1.3413411140441894e-05, 0.705078125) (1.2148679733276367e-05, 0.70703125) (1.0685250282287596e-05, 0.708984375) (9.023134231567383e-06, 0.7109375) (7.16717004776001e-06, 0.712890625) (5.117128372192383e-06, 0.71484375) (2.874471426010132e-06, 0.716796875) (4.4718372821807857e-07, 0.71875) (-2.1547610759735107e-06, 0.720703125) (-4.917595863342285e-06, 0.72265625) (-7.822759628295898e-06, 0.724609375) (-1.0854691505432129e-05, 0.7265625) (-1.3992743492126464e-05, 0.728515625) (-1.719429588317871e-05, 0.73046875) (-2.0406429290771484e-05, 0.732421875) (-2.3559324264526366e-05, 0.734375) (-2.65699405670166e-05, 0.736328125) (-2.937628173828125e-05, 0.73828125) (-3.192619705200195e-05, 0.740234375) (-3.417299270629883e-05, 0.7421875) (-3.60787353515625e-05, 0.744140625) (-3.760219955444336e-05, 0.74609375) (-3.871549224853516e-05, 0.748046875) (-3.9414939880371094e-05, 0.75) (-3.971432495117187e-05, 0.751953125) (-3.963468933105469e-05, 0.75390625) (-3.919971466064453e-05, 0.755859375) (-3.843075561523437e-05, 0.7578125) (-3.736083984375e-05, 0.759765625) (-3.6060638427734375e-05, 0.76171875) (-3.462661743164062e-05, 0.763671875) (-3.3191673278808595e-05, 0.765625) (-3.190835571289062e-05, 0.767578125) (-3.090946578979492e-05, 0.76953125) (-3.0327194213867186e-05, 0.771484375) (-3.0269405364990233e-05, 0.7734375) (-3.085692977905273e-05, 0.775390625) (-3.224747848510742e-05, 0.77734375) (-3.451535034179687e-05, 0.779296875) (-3.7648544311523435e-05, 0.78125) (-4.1535053253173824e-05, 0.783203125) (-4.592055892944336e-05, 0.78515625) (-5.055935668945312e-05, 0.787109375) (-5.52826919555664e-05, 0.7890625) (-5.982307815551757e-05, 0.791015625) (-6.380763244628906e-05, 0.79296875) (-6.696862030029297e-05, 0.794921875) (-6.907522583007812e-05, 0.796875) (-7.014768981933593e-05, 0.798828125) (-7.066343688964844e-05, 0.80078125) (-7.103663635253907e-05, 0.802734375) (-7.156071472167968e-05, 0.8046875) (-7.262058258056641e-05, 0.806640625) (-7.450285339355469e-05, 0.80859375) (-7.73713150024414e-05, 0.810546875) (-8.130673217773437e-05, 0.8125) (-8.580042266845702e-05, 0.814453125) (-8.94997100830078e-05, 0.81640625) (-9.089170837402343e-05, 0.818359375) (-8.84459228515625e-05, 0.8203125) (-8.053945922851562e-05, 0.822265625) (-6.556105041503906e-05, 0.82421875) (-4.1979080200195313e-05, 0.826171875) (-8.614292144775391e-06, 0.828125) (3.5102020263671875e-05, 0.830078125) (8.745825195312499e-05, 0.83203125) (0.00014596789550781248, 0.833984375) (0.00020942779541015624, 0.8359375) (0.00027521234130859374, 0.837890625) (0.00034227770996093747, 0.83984375) (0.00040940853881835934, 0.841796875) (0.00046968853759765623, 0.84375) (0.000517777099609375, 0.845703125) (0.00054818701171875, 0.84765625) (0.0005554281616210937, 0.849609375) (0.00054265625, 0.8515625) (0.000513373046875, 0.853515625) (0.0004711071166992187, 0.85546875) (0.00042189349365234373, 0.857421875) (0.00036656713867187497, 0.859375) (0.0003063624267578125, 0.861328125) (0.00024438369750976564, 0.86328125) (0.00018221559143066405, 0.865234375) (0.00012367418670654296, 0.8671875) (7.233113861083984e-05, 0.869140625) (2.963744354248047e-05, 0.87109375) (-3.3650035858154295e-06, 0.873046875) (-2.6893417358398436e-05, 0.875) (-4.221879577636719e-05, 0.876953125) (-5.052217102050781e-05, 0.87890625) (-5.307581329345703e-05, 0.880859375) (-5.167370986938476e-05, 0.8828125) (-4.805043029785156e-05, 0.884765625) (-4.380136108398437e-05, 0.88671875) (-4.0411956787109376e-05, 0.888671875) (-3.8589767456054686e-05, 0.890625) (-3.838018798828125e-05, 0.892578125) (-3.9642513275146484e-05, 0.89453125) (-4.2045955657958985e-05, 0.896484375) (-4.4999969482421874e-05, 0.8984375) (-4.791023635864258e-05, 0.900390625) (-5.0101215362548826e-05, 0.90234375) (-5.0856689453125e-05, 0.904296875) (-4.994978713989258e-05, 0.90625) (-4.751496124267578e-05, 0.908203125) (-4.381327056884766e-05, 0.91015625) (-3.9256534576416016e-05, 0.912109375) (-3.4264762878417965e-05, 0.9140625) (-2.9205028533935545e-05, 0.916015625) (-2.4481727600097656e-05, 0.91796875) (-2.0489717483520506e-05, 0.919921875) (-1.741045570373535e-05, 0.921875) (-1.526617431640625e-05, 0.923828125) (-1.4002638816833496e-05, 0.92578125) (-1.3488946914672851e-05, 0.927734375) (-1.362633228302002e-05, 0.9296875) (-1.4353562355041504e-05, 0.931640625) (-1.558560848236084e-05, 0.93359375) (-1.7213268280029295e-05, 0.935546875) (-1.9138553619384763e-05, 0.9375) (-2.127267837524414e-05, 0.939453125) (-2.3519899368286133e-05, 0.94140625) (-2.5796493530273437e-05, 0.943359375) (-2.7997707366943357e-05, 0.9453125) (-2.999559211730957e-05, 0.947265625) (-3.169867515563965e-05, 0.94921875) (-3.30484504699707e-05, 0.951171875) (-3.401300048828125e-05, 0.953125) (-3.4595554351806636e-05, 0.955078125) (-3.480998611450195e-05, 0.95703125) (-3.466543960571289e-05, 0.958984375) (-3.417924499511718e-05, 0.9609375) (-3.33698501586914e-05, 0.962890625) (-3.2243339538574214e-05, 0.96484375) (-3.081782722473144e-05, 0.966796875) (-2.9117769241333005e-05, 0.96875) (-2.716493988037109e-05, 0.970703125) (-2.5001693725585935e-05, 0.97265625) (-2.2678815841674805e-05, 0.974609375) (-2.0254446029663087e-05, 0.9765625) (-1.7802555084228514e-05, 0.978515625) (-1.538219165802002e-05, 0.98046875) (-1.3030548095703125e-05, 0.982421875) (-1.0773615837097167e-05, 0.984375) (-8.621277809143067e-06, 0.986328125) (-6.574465751647949e-06, 0.98828125) (-4.637327194213867e-06, 0.990234375) (-2.807941436767578e-06, 0.9921875) (-1.0798616409301758e-06, 0.994140625) (5.433032512664795e-07, 0.99609375) (2.05949330329895e-06, 0.998046875) (3.4681591987609864e-06, 1.0) (4.764782905578613e-06, 1.001953125) (5.954554080963135e-06, 1.00390625) (7.049505233764648e-06, 1.005859375) (8.06509494781494e-06, 1.0078125) (9.025145530700683e-06, 1.009765625) (9.95163345336914e-06, 1.01171875) (1.085864543914795e-05, 1.013671875) (1.1757519721984863e-05, 1.015625) (1.2655722618103027e-05, 1.017578125) (1.355633544921875e-05, 1.01953125) (1.4462957382202148e-05, 1.021484375) (1.537639045715332e-05, 1.0234375) (1.6293550491333007e-05, 1.025390625) (1.7215087890624998e-05, 1.02734375) (1.81435489654541e-05, 1.029296875) (1.9081737518310545e-05, 1.03125) (2.0034631729125976e-05, 1.033203125) (2.1005266189575193e-05, 1.03515625) (2.199399948120117e-05, 1.037109375) (2.3000656127929688e-05, 1.0390625) (2.4023319244384763e-05, 1.041015625) (2.5058639526367186e-05, 1.04296875) (2.6103870391845702e-05, 1.044921875) (2.7156040191650388e-05, 1.046875) (2.8211694717407226e-05, 1.048828125) (2.9268232345581053e-05, 1.05078125) (3.032314682006836e-05, 1.052734375) (3.137414932250976e-05, 1.0546875) (3.241989517211914e-05, 1.056640625) (3.3458431243896486e-05, 1.05859375) (3.448666000366211e-05, 1.060546875) (3.5500999450683593e-05, 1.0625) (3.649720001220703e-05, 1.064453125) (3.747061920166015e-05, 1.06640625) (3.841676330566406e-05, 1.068359375) (3.933090209960937e-05, 1.0703125) (4.020800018310547e-05, 1.072265625) (4.1043426513671874e-05, 1.07421875) (4.183301162719726e-05, 1.076171875) (4.257292938232422e-05, 1.078125) (4.325986862182617e-05, 1.080078125) (4.389075469970703e-05, 1.08203125) (4.4462657928466796e-05, 1.083984375) (4.4972953796386715e-05, 1.0859375) (4.541931533813476e-05, 1.087890625) (4.579951858520508e-05, 1.08984375) (4.611149597167969e-05, 1.091796875) (4.6353385925292965e-05, 1.09375) (4.6523475646972657e-05, 1.095703125) (4.662031936645507e-05, 1.09765625) (4.66427993774414e-05, 1.099609375) (4.6590072631835936e-05, 1.1015625) (4.646160125732422e-05, 1.103515625) (4.625729370117187e-05, 1.10546875) (4.59774055480957e-05, 1.107421875) (4.5622455596923826e-05, 1.109375) (4.519329833984375e-05, 1.111328125) (4.469096755981445e-05, 1.11328125) (4.4116657257080076e-05, 1.115234375) (4.347176361083984e-05, 1.1171875) (4.275782012939453e-05, 1.119140625) (4.197650527954101e-05, 1.12109375) (4.1129783630371095e-05, 1.123046875) (4.0219852447509766e-05, 1.125) (3.9249122619628904e-05, 1.126953125) (3.822027206420898e-05, 1.12890625) (3.713613128662109e-05, 1.130859375) (3.5999656677246094e-05, 1.1328125) (3.481392669677734e-05, 1.134765625) (3.358193969726562e-05, 1.13671875) (3.2306522369384766e-05, 1.138671875) (3.099037170410156e-05, 1.140625) (2.963600158691406e-05, 1.142578125) (2.8245792388916016e-05, 1.14453125) (2.682206344604492e-05, 1.146484375) (2.5367074966430663e-05, 1.1484375) (2.3883054733276367e-05, 1.150390625) (2.2372310638427733e-05, 1.15234375) (2.0837257385253905e-05, 1.154296875) (1.92803955078125e-05, 1.15625) (1.7704349517822266e-05, 1.158203125) (1.6111812591552733e-05, 1.16015625) (1.4505535125732421e-05, 1.162109375) (1.2888333320617675e-05, 1.1640625) (1.1263053894042968e-05, 1.166015625) (9.632581710815429e-06, 1.16796875) (7.999863624572754e-06, 1.169921875) (6.367927074432372e-06, 1.171875) (4.739880084991455e-06, 1.173828125) (3.11892557144165e-06, 1.17578125) (1.5083398818969725e-06, 1.177734375) (-8.856028318405151e-08, 1.1796875) (-1.668437123298645e-06, 1.181640625) (-3.2279925346374512e-06, 1.18359375) (-4.764033794403076e-06, 1.185546875) (-6.273508071899414e-06, 1.1875) (-7.753538131713867e-06, 1.189453125) (-9.201434135437012e-06, 1.19140625) (-1.0614664077758788e-05, 1.193359375) (-1.1990816116333007e-05, 1.1953125) (-1.3327573776245117e-05, 1.197265625) (-1.462264060974121e-05, 1.19921875) (-1.5873723983764648e-05, 1.201171875) (-1.7078510284423828e-05, 1.203125) (-1.823465347290039e-05, 1.205078125) (-1.933980941772461e-05, 1.20703125) (-2.0391672134399412e-05, 1.208984375) (-2.1388038635253904e-05, 1.2109375) (-2.232686996459961e-05, 1.212890625) (-2.3206335067749023e-05, 1.21484375) (-2.4024852752685545e-05, 1.216796875) (-2.4781099319458008e-05, 1.21875) (-2.5474031448364258e-05, 1.220703125) (-2.61028938293457e-05, 1.22265625) (-2.6667240142822264e-05, 1.224609375) (-2.716691780090332e-05, 1.2265625) (-2.7602054595947264e-05, 1.228515625) (-2.7973098754882813e-05, 1.23046875) (-2.8280824661254882e-05, 1.232421875) (-2.8526378631591796e-05, 1.234375) (-2.8711284637451172e-05, 1.236328125) (-2.8837451934814453e-05, 1.23828125) (-2.890711975097656e-05, 1.240234375) (-2.8922824859619138e-05, 1.2421875) (-2.8887348175048827e-05, 1.244140625) (-2.880365753173828e-05, 1.24609375) (-2.8674856185913085e-05, 1.248046875) (-2.8504100799560546e-05, 1.25) (-2.8294527053833005e-05, 1.251953125) (-2.804924201965332e-05, 1.25390625) (-2.7771326065063475e-05, 1.255859375) (-2.74638557434082e-05, 1.2578125) (-2.7129953384399412e-05, 1.259765625) (-2.67728157043457e-05, 1.26171875) (-2.6395721435546875e-05, 1.263671875) (-2.600204277038574e-05, 1.265625) (-2.559525680541992e-05, 1.267578125) (-2.517892837524414e-05, 1.26953125) (-2.4756690979003905e-05, 1.271484375) (-2.4332191467285156e-05, 1.2734375) (-2.390899658203125e-05, 1.275390625) (-2.349057388305664e-05, 1.27734375) (-2.308024024963379e-05, 1.279296875) (-2.2681169509887696e-05, 1.28125) (-2.2296371459960936e-05, 1.283203125) (-2.1928682327270508e-05, 1.28515625) (-2.158071517944336e-05, 1.287109375) (-2.1254865646362304e-05, 1.2890625) (-2.0953296661376953e-05, 1.291015625) (-2.0677940368652344e-05, 1.29296875) (-2.0430444717407227e-05, 1.294921875) (-2.021216583251953e-05, 1.296875) (-2.0024084091186522e-05, 1.298828125) (-1.9866813659667968e-05, 1.30078125) (-1.974063491821289e-05, 1.302734375) (-1.9645519256591795e-05, 1.3046875) (-1.9581188201904295e-05, 1.306640625) (-1.954717445373535e-05, 1.30859375) (-1.9542821884155274e-05, 1.310546875) (-1.956735610961914e-05, 1.3125) (-1.961997413635254e-05, 1.314453125) (-1.9699903488159178e-05, 1.31640625) (-1.980640411376953e-05, 1.318359375) (-1.9938764572143554e-05, 1.3203125) (-2.0096210479736327e-05, 1.322265625) (-2.0277873992919923e-05, 1.32421875) (-2.0482797622680664e-05, 1.326171875) (-2.0709930419921874e-05, 1.328125) (-2.0958143234252927e-05, 1.330078125) (-2.1226194381713867e-05, 1.33203125) (-2.1512672424316406e-05, 1.333984375) (-2.1816051483154297e-05, 1.3359375) (-2.2134767532348633e-05, 1.337890625) (-2.2467256546020508e-05, 1.33984375) (-2.2812042236328124e-05, 1.341796875) (-2.316767883300781e-05, 1.34375) (-2.353266143798828e-05, 1.345703125) (-2.3905435562133787e-05, 1.34765625) (-2.4284446716308594e-05, 1.349609375) (-2.466815185546875e-05, 1.3515625) (-2.505499267578125e-05, 1.353515625) (-2.544343566894531e-05, 1.35546875) (-2.5831893920898435e-05, 1.357421875) (-2.6218751907348632e-05, 1.359375) (-2.6602512359619138e-05, 1.361328125) (-2.6981851577758787e-05, 1.36328125) (-2.735562515258789e-05, 1.365234375) (-2.7722843170166015e-05, 1.3671875) (-2.8082614898681638e-05, 1.369140625) (-2.8434059143066406e-05, 1.37109375) (-2.87763557434082e-05, 1.373046875) (-2.9108791351318357e-05, 1.375) (-2.9430561065673828e-05, 1.376953125) (-2.974070358276367e-05, 1.37890625) (-3.003800010681152e-05, 1.380859375) (-3.03209228515625e-05, 1.3828125) (-3.0587854385375976e-05, 1.384765625) (-3.0837162017822264e-05, 1.38671875) (-3.106718444824219e-05, 1.388671875) (-3.127620506286621e-05, 1.390625) (-3.146236991882324e-05, 1.392578125) (-3.162376403808594e-05, 1.39453125) (-3.175864791870117e-05, 1.396484375) (-3.186543273925781e-05, 1.3984375) (-3.194248580932617e-05, 1.400390625) (-3.1988115310668945e-05, 1.40234375) (-3.20003547668457e-05, 1.404296875) (-3.1977081298828125e-05, 1.40625) (-3.1916366577148435e-05, 1.408203125) (-3.181648445129394e-05, 1.41015625) (-3.167582702636719e-05, 1.412109375) (-3.149296188354492e-05, 1.4140625) (-3.126667594909668e-05, 1.416015625) (-3.099593734741211e-05, 1.41796875) (-3.06801586151123e-05, 1.419921875) (-3.0319219589233396e-05, 1.421875) (-2.9913105010986326e-05, 1.423828125) (-2.946179962158203e-05, 1.42578125) (-2.8965311050415037e-05, 1.427734375) (-2.8423595428466795e-05, 1.4296875) (-2.7836591720581054e-05, 1.431640625) (-2.7204404830932617e-05, 1.43359375) (-2.65270938873291e-05, 1.435546875) (-2.5804466247558593e-05, 1.4375) (-2.503675079345703e-05, 1.439453125) (-2.422480010986328e-05, 1.44140625) (-2.3370113372802735e-05, 1.443359375) (-2.2475048065185547e-05, 1.4453125) (-2.154254913330078e-05, 1.447265625) (-2.0575973510742185e-05, 1.44921875) (-1.9579618453979492e-05, 1.451171875) (-1.855884552001953e-05, 1.453125) (-1.751941680908203e-05, 1.455078125) (-1.6467164993286134e-05, 1.45703125) (-1.5407217025756836e-05, 1.458984375) (-1.4344310760498047e-05, 1.4609375) (-1.3283909797668456e-05, 1.462890625) (-1.2232457160949707e-05, 1.46484375) (-1.1197095870971678e-05, 1.466796875) (-1.018522262573242e-05, 1.46875) (-9.203832626342772e-06, 1.470703125) (-8.259785652160643e-06, 1.47265625) (-7.36207914352417e-06, 1.474609375) (-6.521302223205566e-06, 1.4765625) (-5.7469635009765624e-06, 1.478515625) (-5.046993255615234e-06, 1.48046875) (-4.425524711608887e-06, 1.482421875) (-3.883735418319702e-06, 1.484375) (-3.425486087799072e-06, 1.486328125) (-3.058180332183838e-06, 1.48828125) (-2.790698766708374e-06, 1.490234375) (-2.632939338684082e-06, 1.4921875) (-2.594879150390625e-06, 1.494140625) (-2.6864473819732663e-06, 1.49609375) (-2.9234509468078613e-06, 1.498046875) (-3.3275213241577147e-06, 1.5) (-3.919260978698731e-06, 1.501953125) (-4.71516752243042e-06, 1.50390625) (-5.720369338989257e-06, 1.505859375) (-6.930559158325195e-06, 1.5078125) (-8.342592239379883e-06, 1.509765625) (-9.957602500915527e-06, 1.51171875) (-1.1781463623046874e-05, 1.513671875) (-1.38184757232666e-05, 1.515625) (-1.605999755859375e-05, 1.517578125) (-1.8484783172607422e-05, 1.51953125) (-2.107118225097656e-05, 1.521484375) (-2.3798690795898438e-05, 1.5234375) (-2.6642726898193357e-05, 1.525390625) (-2.9568885803222655e-05, 1.52734375) (-3.251641082763672e-05, 1.529296875) (-3.540541839599609e-05, 1.53125) (-3.8158676147460934e-05, 1.533203125) (-4.071107482910156e-05, 1.53515625) (-4.3019947052001955e-05, 1.537109375) (-4.5056274414062495e-05, 1.5390625) (-4.67891845703125e-05, 1.541015625) (-4.8179870605468746e-05, 1.54296875) (-4.9189907073974607e-05, 1.544921875) (-4.9800086975097654e-05, 1.546875) (-5.001781845092773e-05, 1.548828125) (-4.9876232147216796e-05, 1.55078125) (-4.9411643981933594e-05, 1.552734375) (-4.8652591705322266e-05, 1.5546875) (-4.763747787475586e-05, 1.556640625) (-4.642793273925781e-05, 1.55859375) (-4.512570190429687e-05, 1.560546875) (-4.386920166015625e-05, 1.5625) (-4.2806632995605466e-05, 1.564453125) (-4.206785583496093e-05, 1.56640625) (-4.1764526367187496e-05, 1.568359375) (-4.2001911163330075e-05, 1.5703125) (-4.286421203613281e-05, 1.572265625) (-4.447523498535156e-05, 1.57421875) (-4.698620223999023e-05, 1.576171875) (-5.0445194244384767e-05, 1.578125) (-5.480827713012695e-05, 1.580078125) (-5.9903709411621094e-05, 1.58203125) (-6.542186737060547e-05, 1.583984375) (-7.110064697265624e-05, 1.5859375) (-7.675230407714843e-05, 1.587890625) (-8.209539794921875e-05, 1.58984375) (-8.676396942138672e-05, 1.591796875) (-9.04823989868164e-05, 1.59375) (-9.308306884765624e-05, 1.595703125) (-9.47865219116211e-05, 1.59765625) (-9.621021270751953e-05, 1.599609375) (-9.783207702636719e-05, 1.6015625) (-9.996775817871094e-05, 1.603515625) (-0.00010280841064453125, 1.60546875) (-0.00010640029907226562, 1.607421875) (-0.00011076541137695312, 1.609375) (-0.00011571476745605468, 1.611328125) (-0.00012031881713867187, 1.61328125) (-0.00012302044677734374, 1.615234375) (-0.00012223279571533204, 1.6171875) (-0.00011638536834716796, 1.619140625) (-0.00010431331634521484, 1.62109375) (-8.516628265380859e-05, 1.623046875) (-5.7919925689697264e-05, 1.625) (-2.197645568847656e-05, 1.626953125) (2.2304855346679686e-05, 1.62890625) (7.378240203857422e-05, 1.630859375) (0.00013065037536621094, 1.6328125) (0.0001906126708984375, 1.634765625) (0.00025150347900390624, 1.63671875) (0.0003108565673828125, 1.638671875) (0.0003654102783203125, 1.640625) (0.0004120610961914062, 1.642578125) (0.00044814950561523437, 1.64453125) (0.00047148751831054686, 1.646484375) (0.0004808590393066406, 1.6484375) (0.0004756644897460937, 1.650390625) (0.00045564947509765623, 1.65234375) (0.00042177301025390625, 1.654296875) (0.000376403564453125, 1.65625) (0.0003224521484375, 1.658203125) (0.0002633632202148437, 1.66015625) (0.00020281570434570312, 1.662109375) (0.0001440201416015625, 1.6640625) (9.020521545410156e-05, 1.666015625) (4.434459686279297e-05, 1.66796875) (8.048124313354491e-06, 1.669921875) (-1.8342798233032226e-05, 1.671875) (-3.5271884918212886e-05, 1.673828125) (-4.407000350952148e-05, 1.67578125) (-4.655088424682617e-05, 1.677734375) (-4.454045104980469e-05, 1.6796875) (-4.0365074157714844e-05, 1.681640625) (-3.6391742706298824e-05, 1.68359375) (-3.4040023803710934e-05, 1.685546875) (-3.3999038696289063e-05, 1.6875) (-3.642588806152344e-05, 1.689453125) (-4.0896156311035156e-05, 1.69140625) (-4.678247833251953e-05, 1.693359375) (-5.342971801757812e-05, 1.6953125) (-5.9804122924804686e-05, 1.697265625) (-6.479905700683594e-05, 1.69921875) (-6.786785888671875e-05, 1.701171875) (-6.885284423828125e-05, 1.703125) (-6.789406585693359e-05, 1.705078125) (-6.541775512695313e-05, 1.70703125) (-6.184264373779297e-05, 1.708984375) (-5.755289840698242e-05, 1.7109375) (-5.308088684082031e-05, 1.712890625) (-4.898854064941406e-05, 1.71484375) (-4.5598381042480466e-05, 1.716796875) (-4.306019210815429e-05, 1.71875) (-4.138210296630859e-05, 1.720703125) (-4.044246673583984e-05, 1.72265625) (-4.015877151489258e-05, 1.724609375) (-4.047428512573242e-05, 1.7265625) (-4.12850341796875e-05, 1.728515625) (-4.2468196868896484e-05, 1.73046875) (-4.391583251953125e-05, 1.732421875) (-4.552858734130859e-05, 1.734375) (-4.7231376647949214e-05, 1.736328125) (-4.8972354888916016e-05, 1.73828125) (-5.067223739624023e-05, 1.740234375) (-5.223893737792968e-05, 1.7421875) (-5.358240509033203e-05, 1.744140625) (-5.4612560272216796e-05, 1.74609375) (-5.5276729583740235e-05, 1.748046875) (-5.5554496765136713e-05, 1.75) (-5.543953323364257e-05, 1.751953125) (-5.494194793701172e-05, 1.75390625) (-5.407906341552734e-05, 1.755859375) (-5.28724136352539e-05, 1.7578125) (-5.135445022583008e-05, 1.759765625) (-4.9566925048828125e-05, 1.76171875) (-4.755043411254882e-05, 1.763671875) (-4.534529113769531e-05, 1.765625) (-4.2990001678466794e-05, 1.767578125) (-4.051921844482422e-05, 1.76953125) (-3.797381591796875e-05, 1.771484375) (-3.53970947265625e-05, 1.7734375) (-3.283214569091797e-05, 1.775390625) (-3.0321264266967772e-05, 1.77734375) (-2.7892494201660155e-05, 1.779296875) (-2.5561466217041015e-05, 1.78125) (-2.3338024139404294e-05, 1.783203125) (-2.122557258605957e-05, 1.78515625) (-1.9224271774291993e-05, 1.787109375) (-1.7332595825195313e-05, 1.7890625) (-1.5543968200683594e-05, 1.791015625) (-1.3848020553588867e-05, 1.79296875) (-1.223745059967041e-05, 1.794921875) (-1.0707067489624023e-05, 1.796875) (-9.252835273742676e-06, 1.798828125) (-7.872408390045165e-06, 1.80078125) (-6.561012268066406e-06, 1.802734375) (-5.312108516693115e-06, 1.8046875) (-4.119139671325683e-06, 1.806640625) (-2.9754562377929686e-06, 1.80859375) (-1.8761433362960814e-06, 1.810546875) (-8.176926374435424e-07, 1.8125) (2.035088688135147e-07, 1.814453125) (1.190690755844116e-06, 1.81640625) (2.1464385986328123e-06, 1.818359375) (3.0729355812072754e-06, 1.8203125) (3.970913887023926e-06, 1.822265625) (4.8404731750488275e-06, 1.82421875) (5.683366298675537e-06, 1.826171875) (6.502226829528809e-06, 1.828125) (7.299786567687988e-06, 1.830078125) (8.07925796508789e-06, 1.83203125) (8.843121528625487e-06, 1.833984375) (9.593395233154296e-06, 1.8359375) (1.0333218574523926e-05, 1.837890625) (1.1065534591674805e-05, 1.83984375) (1.1792363166809081e-05, 1.841796875) (1.2515222549438475e-05, 1.84375) (1.3234342575073241e-05, 1.845703125) (1.3949292182922362e-05, 1.84765625) (1.4660067558288574e-05, 1.849609375) (1.5366310119628906e-05, 1.8515625) (1.6067153930664063e-05, 1.853515625) (1.6761920928955078e-05, 1.85546875) (1.7448390960693357e-05, 1.857421875) (1.8124094009399415e-05, 1.859375) (1.878927421569824e-05, 1.861328125) (1.944340133666992e-05, 1.86328125) (2.0086511611938477e-05, 1.865234375) (2.0719234466552733e-05, 1.8671875) (2.1337066650390623e-05, 1.869140625) (2.1935096740722654e-05, 1.87109375) (2.251136016845703e-05, 1.873046875) (2.3063060760498045e-05, 1.875) (2.3586662292480468e-05, 1.876953125) (2.4080020904541014e-05, 1.87890625) (2.4537519454956055e-05, 1.880859375) (2.495334243774414e-05, 1.8828125) (2.5329479217529297e-05, 1.884765625) (2.566691970825195e-05, 1.88671875) (2.5967437744140622e-05, 1.888671875) (2.623435020446777e-05, 1.890625) (2.6462551116943357e-05, 1.892578125) (2.6647792816162107e-05, 1.89453125) (2.678720474243164e-05, 1.896484375) (2.6876144409179688e-05, 1.8984375) (2.6917972564697264e-05, 1.900390625) (2.6917642593383787e-05, 1.90234375) (2.6872825622558594e-05, 1.904296875) (2.6782529830932615e-05, 1.90625) (2.6651912689208982e-05, 1.908203125) (2.648279571533203e-05, 1.91015625) (2.628388786315918e-05, 1.912109375) (2.606549835205078e-05, 1.9140625) (2.5817035675048826e-05, 1.916015625) (2.552910041809082e-05, 1.91796875) (2.5195079803466795e-05, 1.919921875) (2.480445671081543e-05, 1.921875) (2.435972213745117e-05, 1.923828125) (2.386355400085449e-05, 1.92578125) (2.3312622070312498e-05, 1.927734375) (2.2706092834472656e-05, 1.9296875) (2.2039005279541016e-05, 1.931640625) (2.1303897857666016e-05, 1.93359375) (2.050290489196777e-05, 1.935546875) (1.9638046264648438e-05, 1.9375) (1.8699344635009765e-05, 1.939453125) (1.768154716491699e-05, 1.94140625) (1.6572906494140625e-05, 1.943359375) (1.5359197616577148e-05, 1.9453125) (1.4054848670959473e-05, 1.947265625) (1.2674179077148437e-05, 1.94921875) (1.122495937347412e-05, 1.951171875) (9.720404624938964e-06, 1.953125) (8.162269592285156e-06, 1.955078125) (6.551064968109131e-06, 1.95703125) (4.897048950195312e-06, 1.958984375) (3.2089467048645016e-06, 1.9609375) (1.4917994737625121e-06, 1.962890625) (-2.4658477306365964e-07, 1.96484375) (-2.00478458404541e-06, 1.966796875) (-3.7824182510375975e-06, 1.96875) (-5.565454483032227e-06, 1.970703125) (-7.3431301116943355e-06, 1.97265625) (-9.101806640625e-06, 1.974609375) (-1.0825042724609375e-05, 1.9765625) (-1.2518503189086914e-05, 1.978515625) (-1.4188180923461914e-05, 1.98046875) (-1.583272933959961e-05, 1.982421875) (-1.7454635620117188e-05, 1.984375) (-1.905043601989746e-05, 1.986328125) (-2.0614749908447266e-05, 1.98828125) (-2.215016746520996e-05, 1.990234375) (-2.3658763885498045e-05, 1.9921875) (-2.513459777832031e-05, 1.994140625) (-2.657339096069336e-05, 1.99609375) (-2.7969188690185546e-05, 1.998046875) (-2.9314546585083005e-05, 2.0) (-3.0611297607421876e-05, 2.001953125) (-3.186024475097656e-05, 2.00390625) (-3.306158828735351e-05, 2.005859375) (-3.4217453002929684e-05, 2.0078125) (-3.5321006774902345e-05, 2.009765625) (-3.6365219116210936e-05, 2.01171875) (-3.7347591400146486e-05, 2.013671875) (-3.826451873779297e-05, 2.015625) (-3.911368942260742e-05, 2.017578125) (-3.9894355773925776e-05, 2.01953125) (-4.060267639160156e-05, 2.021484375) (-4.1235038757324214e-05, 2.0234375) (-4.1793815612792966e-05, 2.025390625) (-4.228113937377929e-05, 2.02734375) (-4.269881439208984e-05, 2.029296875) (-4.3049880981445314e-05, 2.03125) (-4.333416366577148e-05, 2.033203125) (-4.355171966552734e-05, 2.03515625) (-4.370433044433594e-05, 2.037109375) (-4.3793540954589844e-05, 2.0390625) (-4.38221321105957e-05, 2.041015625) (-4.3793460845947265e-05, 2.04296875) (-4.371009445190429e-05, 2.044921875) (-4.357494735717773e-05, 2.046875) (-4.3391857147216796e-05, 2.048828125) (-4.316453552246093e-05, 2.05078125) (-4.289730072021484e-05, 2.052734375) (-4.2594806671142575e-05, 2.0546875) (-4.226027679443359e-05, 2.056640625) (-4.18970947265625e-05, 2.05859375) (-4.150935363769531e-05, 2.060546875) (-4.110104370117187e-05, 2.0625) (-4.067675018310547e-05, 2.064453125) (-4.024131011962891e-05, 2.06640625) (-3.979905319213867e-05, 2.068359375) (-3.935431671142578e-05, 2.0703125) (-3.8911930084228514e-05, 2.072265625) (-3.847648620605469e-05, 2.07421875) (-3.805230331420898e-05, 2.076171875) (-3.764352798461914e-05, 2.078125) (-3.725373077392578e-05, 2.080078125) (-3.688619995117187e-05, 2.08203125) (-3.6544189453124996e-05, 2.083984375) (-3.623072052001953e-05, 2.0859375) (-3.5948539733886716e-05, 2.087890625) (-3.5700241088867186e-05, 2.08984375) (-3.5488220214843746e-05, 2.091796875) (-3.5314655303955076e-05, 2.09375) (-3.518158721923828e-05, 2.095703125) (-3.50907974243164e-05, 2.09765625) (-3.5043766021728515e-05, 2.099609375) (-3.504167175292969e-05, 2.1015625) (-3.508541870117187e-05, 2.103515625) (-3.517560577392578e-05, 2.10546875) (-3.5312599182128904e-05, 2.107421875) (-3.549653625488281e-05, 2.109375) (-3.572724914550781e-05, 2.111328125) (-3.6004356384277344e-05, 2.11328125) (-3.632720947265625e-05, 2.115234375) (-3.669487762451172e-05, 2.1171875) (-3.710619354248047e-05, 2.119140625) (-3.7559654235839844e-05, 2.12109375) (-3.805338287353515e-05, 2.123046875) (-3.8585136413574214e-05, 2.125) (-3.9152397155761715e-05, 2.126953125) (-3.975231552124023e-05, 2.12890625) (-4.0381881713867186e-05, 2.130859375) (-4.103793716430664e-05, 2.1328125) (-4.171709442138672e-05, 2.134765625) (-4.241590881347656e-05, 2.13671875) (-4.313097763061523e-05, 2.138671875) (-4.38588638305664e-05, 2.140625) (-4.459619903564453e-05, 2.142578125) (-4.533966064453125e-05, 2.14453125) (-4.608582305908203e-05, 2.146484375) (-4.683126068115234e-05, 2.1484375) (-4.757256317138671e-05, 2.150390625) (-4.830630493164062e-05, 2.15234375) (-4.9029090881347655e-05, 2.154296875) (-4.973757934570312e-05, 2.15625) (-5.042849731445312e-05, 2.158203125) (-5.1098678588867184e-05, 2.16015625) (-5.174510955810547e-05, 2.162109375) (-5.2364936828613276e-05, 2.1640625) (-5.295543670654297e-05, 2.166015625) (-5.351405334472656e-05, 2.16796875) (-5.40383186340332e-05, 2.169921875) (-5.4525882720947265e-05, 2.171875) (-5.497450637817383e-05, 2.173828125) (-5.538203430175781e-05, 2.17578125) (-5.5746498107910155e-05, 2.177734375) (-5.606616592407226e-05, 2.1796875) (-5.6339477539062496e-05, 2.181640625) (-5.6565109252929686e-05, 2.18359375) (-5.6742023468017575e-05, 2.185546875) (-5.6869445800781246e-05, 2.1875) (-5.694686889648437e-05, 2.189453125) (-5.697406768798828e-05, 2.19140625) (-5.695096969604492e-05, 2.193359375) (-5.687757873535156e-05, 2.1953125) (-5.675406646728515e-05, 2.197265625) (-5.658071136474609e-05, 2.19921875) (-5.6357849121093746e-05, 2.201171875) (-5.608591461181641e-05, 2.203125) (-5.5765411376953124e-05, 2.205078125) (-5.5396816253662104e-05, 2.20703125) (-5.4980766296386716e-05, 2.208984375) (-5.4518070220947264e-05, 2.2109375) (-5.4009613037109375e-05, 2.212890625) (-5.345643615722656e-05, 2.21484375) (-5.2859619140624996e-05, 2.216796875) (-5.2220275878906245e-05, 2.21875) (-5.153956222534179e-05, 2.220703125) (-5.0818721771240235e-05, 2.22265625) (-5.005899810791015e-05, 2.224609375) (-4.9261695861816406e-05, 2.2265625) (-4.8428199768066406e-05, 2.228515625) (-4.7559921264648434e-05, 2.23046875) (-4.665839385986328e-05, 2.232421875) (-4.572532272338867e-05, 2.234375) (-4.476254653930664e-05, 2.236328125) (-4.3772090911865235e-05, 2.23828125) (-4.275604248046875e-05, 2.240234375) (-4.1716514587402344e-05, 2.2421875) (-4.065578460693359e-05, 2.244140625) (-3.9576313018798824e-05, 2.24609375) (-3.848068618774414e-05, 2.248046875) (-3.7371604919433594e-05, 2.25) (-3.625186157226562e-05, 2.251953125) (-3.512432098388672e-05, 2.25390625) (-3.3992149353027344e-05, 2.255859375) (-3.2858932495117184e-05, 2.2578125) (-3.172831344604492e-05, 2.259765625) (-3.0603956222534176e-05, 2.26171875) (-2.9489803314208984e-05, 2.263671875) (-2.8390228271484374e-05, 2.265625) (-2.7310319900512694e-05, 2.267578125) (-2.6256160736083983e-05, 2.26953125) (-2.523419380187988e-05, 2.271484375) (-2.425094985961914e-05, 2.2734375) (-2.331356620788574e-05, 2.275390625) (-2.242966842651367e-05, 2.27734375) (-2.160701560974121e-05, 2.279296875) (-2.0853515624999998e-05, 2.28125) (-2.0176437377929686e-05, 2.283203125) (-1.9581708908081052e-05, 2.28515625) (-1.907492446899414e-05, 2.287109375) (-1.866192626953125e-05, 2.2890625) (-1.8348600387573243e-05, 2.291015625) (-1.8141685485839842e-05, 2.29296875) (-1.8048257827758787e-05, 2.294921875) (-1.8074317932128907e-05, 2.296875) (-1.8225399017333984e-05, 2.298828125) (-1.8506536483764648e-05, 2.30078125) (-1.8921890258789062e-05, 2.302734375) (-1.947536849975586e-05, 2.3046875) (-2.0168601989746094e-05, 2.306640625) (-2.099984359741211e-05, 2.30859375) (-2.1966907501220702e-05, 2.310546875) (-2.3068077087402342e-05, 2.3125) (-2.4304359436035155e-05, 2.314453125) (-2.5682132720947265e-05, 2.31640625) (-2.720781898498535e-05, 2.318359375) (-2.888449478149414e-05, 2.3203125) (-3.07143440246582e-05, 2.322265625) (-3.2695907592773435e-05, 2.32421875) (-3.4822052001953124e-05, 2.326171875) (-3.708432769775391e-05, 2.328125) (-3.946745300292968e-05, 2.330078125) (-4.194670104980468e-05, 2.33203125) (-4.449627685546875e-05, 2.333984375) (-4.708797454833984e-05, 2.3359375) (-4.969486999511718e-05, 2.337890625) (-5.229629898071289e-05, 2.33984375) (-5.486895370483398e-05, 2.341796875) (-5.738463973999023e-05, 2.34375) (-5.980805969238281e-05, 2.345703125) (-6.20921630859375e-05, 2.34765625) (-6.418865966796874e-05, 2.349609375) (-6.605709838867188e-05, 2.3515625) (-6.765880584716796e-05, 2.353515625) (-6.896595001220703e-05, 2.35546875) (-6.997154998779296e-05, 2.357421875) (-7.067456817626952e-05, 2.359375) (-7.10953369140625e-05, 2.361328125) (-7.127468872070312e-05, 2.36328125) (-7.124537658691406e-05, 2.365234375) (-7.105622100830078e-05, 2.3671875) (-7.076988220214844e-05, 2.369140625) (-7.044610595703124e-05, 2.37109375) (-7.016205596923827e-05, 2.373046875) (-7.000184631347656e-05, 2.375) (-7.003910827636719e-05, 2.376953125) (-7.038795471191406e-05, 2.37890625) (-7.120918273925781e-05, 2.380859375) (-7.259332275390624e-05, 2.3828125) (-7.454097747802734e-05, 2.384765625) (-7.693533325195313e-05, 2.38671875) (-7.94954833984375e-05, 2.388671875) (-8.194380950927734e-05, 2.390625) (-8.408273315429687e-05, 2.392578125) (-8.566546630859375e-05, 2.39453125) (-8.637290954589843e-05, 2.396484375) (-8.602123260498047e-05, 2.3984375) (-8.467842864990233e-05, 2.400390625) (-8.274018859863282e-05, 2.40234375) (-8.098002624511718e-05, 2.404296875) (-8.013561248779296e-05, 2.40625) (-8.055182647705077e-05, 2.408203125) (-8.2378662109375e-05, 2.41015625) (-8.577406311035156e-05, 2.412109375) (-9.06029815673828e-05, 2.4140625) (-9.620655059814453e-05, 2.416015625) (-0.00010136471557617187, 2.41796875) (-0.00010412540435791015, 2.419921875) (-0.00010237977600097656, 2.421875) (-9.471760559082031e-05, 2.423828125) (-8.012106323242188e-05, 2.42578125) (-5.7499786376953124e-05, 2.427734375) (-2.6209442138671875e-05, 2.4296875) (1.3718880653381348e-05, 2.431640625) (6.158036422729492e-05, 2.43359375) (0.00011540484619140625, 2.435546875) (0.00017254492187499998, 2.4375) (0.0002308810119628906, 2.439453125) (0.0002882514038085937, 2.44140625) (0.00034185693359374997, 2.443359375) (0.0003889833374023437, 2.4453125) (0.0004270428466796875, 2.447265625) (0.00045369934082031246, 2.44921875) (0.0004680063781738281, 2.451171875) (0.0004698191833496094, 2.453125) (0.00045871972656249995, 2.455078125) (0.00043493417358398437, 2.45703125) (0.0003998247985839844, 2.458984375) (0.0003553883666992187, 2.4609375) (0.0003045025634765625, 2.462890625) (0.00025049960327148436, 2.46484375) (0.0001958651123046875, 2.466796875) (0.0001428833770751953, 2.46875) (9.425636291503906e-05, 2.470703125) (5.21290168762207e-05, 2.47265625) (1.7883499145507812e-05, 2.474609375) (-8.014252662658692e-06, 2.4765625) (-2.642837905883789e-05, 2.478515625) (-3.873561859130859e-05, 2.48046875) (-4.591613006591797e-05, 2.482421875) (-4.913941955566406e-05, 2.484375) (-4.9945911407470704e-05, 2.486328125) (-4.9763717651367184e-05, 2.48828125) (-4.99871597290039e-05, 2.490234375) (-5.1221481323242185e-05, 2.4921875) (-5.295899963378906e-05, 2.494140625) (-5.468141937255859e-05, 2.49609375) (-5.620742034912109e-05, 2.498046875) (-5.7407680511474606e-05, 2.5) (-5.828831481933593e-05, 2.501953125) (-5.870276641845703e-05, 2.50390625) (-5.8185295104980464e-05, 2.505859375) (-5.688753128051758e-05, 2.5078125) (-5.56722297668457e-05, 2.509765625) (-5.51341552734375e-05, 2.51171875) (-5.559477615356445e-05, 2.513671875) (-5.702241134643554e-05, 2.515625) (-5.8883270263671874e-05, 2.517578125) (-6.090959930419922e-05, 2.51953125) (-6.3184326171875e-05, 2.521484375) (-6.543586730957031e-05, 2.5234375) (-6.7100341796875e-05, 2.525390625) (-6.779742431640625e-05, 2.52734375) (-6.726213073730468e-05, 2.529296875) (-6.559671020507812e-05, 2.53125) (-6.335553741455077e-05, 2.533203125) (-6.086433410644531e-05, 2.53515625) (-5.8212104797363276e-05, 2.537109375) (-5.556748962402343e-05, 2.5390625) (-5.309999084472656e-05, 2.541015625) (-5.0952980041503906e-05, 2.54296875) (-4.927467727661132e-05, 2.544921875) (-4.802525329589844e-05, 2.546875) (-4.6956604003906246e-05, 2.548828125) (-4.591456604003906e-05, 2.55078125) (-4.483995819091797e-05, 2.552734375) (-4.371066284179687e-05, 2.5546875) (-4.2584434509277345e-05, 2.556640625) (-4.149988555908203e-05, 2.55859375) (-4.045667266845703e-05, 2.560546875) (-3.9483478546142574e-05, 2.5625) (-3.86324462890625e-05, 2.564453125) (-3.793320846557617e-05, 2.56640625) (-3.739250946044922e-05, 2.568359375) (-3.698808288574219e-05, 2.5703125) (-3.664873504638672e-05, 2.572265625) (-3.629490661621093e-05, 2.57421875) (-3.586331558227539e-05, 2.576171875) (-3.5297599792480464e-05, 2.578125) (-3.456362915039062e-05, 2.580078125) (-3.3642852783203124e-05, 2.58203125) (-3.2515342712402344e-05, 2.583984375) (-3.1160228729248046e-05, 2.5859375) (-2.9558950424194333e-05, 2.587890625) (-2.769924736022949e-05, 2.58984375) (-2.5578487396240234e-05, 2.591796875) (-2.320627212524414e-05, 2.59375) (-2.0593006134033203e-05, 2.595703125) (-1.7747821807861326e-05, 2.59765625) (-1.4690099716186522e-05, 2.599609375) (-1.144948387145996e-05, 2.6015625) (-8.075096130371094e-06, 2.603515625) (-4.63038158416748e-06, 2.60546875) (-1.169033646583557e-06, 2.607421875) (2.265619993209839e-06, 2.609375) (5.641255855560302e-06, 2.611328125) (8.936162948608398e-06, 2.61328125) (1.2129570960998535e-05, 2.615234375) (1.5201997756958006e-05, 2.6171875) (1.8142601013183594e-05, 2.619140625) (2.0948680877685545e-05, 2.62109375) (2.3620204925537108e-05, 2.623046875) (2.61610050201416e-05, 2.625) (2.8572391510009766e-05, 2.626953125) (3.0852268218994136e-05, 2.62890625) (3.30050048828125e-05, 2.630859375) (3.503973388671875e-05, 2.6328125) (3.697154998779297e-05, 2.634765625) (3.882111358642578e-05, 2.63671875) (4.060316467285156e-05, 2.638671875) (4.232670974731445e-05, 2.640625) (4.3998661041259764e-05, 2.642578125) (4.5622856140136715e-05, 2.64453125) (4.720198059082031e-05, 2.646484375) (4.873797988891601e-05, 2.6484375) (5.022791671752929e-05, 2.650390625) (5.166481399536133e-05, 2.65234375) (5.304341888427734e-05, 2.654296875) (5.4359523773193355e-05, 2.65625) (5.561057662963867e-05, 2.658203125) (5.6796379089355464e-05, 2.66015625) (5.791500091552734e-05, 2.662109375) (5.8963378906249995e-05, 2.6640625) (5.993888092041015e-05, 2.666015625) (6.0838714599609374e-05, 2.66796875) (6.166147232055664e-05, 2.669921875) (6.240739440917969e-05, 2.671875) (6.307654571533203e-05, 2.673828125) (6.366910552978515e-05, 2.67578125) (6.418611907958984e-05, 2.677734375) (6.462899017333984e-05, 2.6796875) (6.500013732910156e-05, 2.681640625) (6.530302429199219e-05, 2.68359375) (6.554026794433593e-05, 2.685546875) (6.571376037597656e-05, 2.6875) (6.582546234130859e-05, 2.689453125) (6.587708282470703e-05, 2.69140625) (6.587060546875e-05, 2.693359375) (6.580833435058593e-05, 2.6953125) (6.569219970703125e-05, 2.697265625) (6.552388000488281e-05, 2.69921875) (6.530536651611328e-05, 2.701171875) (6.503889465332031e-05, 2.703125) (6.472677612304687e-05, 2.705078125) (6.437150573730468e-05, 2.70703125) (6.397534942626953e-05, 2.708984375) (6.354044723510742e-05, 2.7109375) (6.306908798217772e-05, 2.712890625) (6.25635643005371e-05, 2.71484375) (6.202606201171875e-05, 2.716796875) (6.14586410522461e-05, 2.71875) (6.086307907104492e-05, 2.720703125) (6.024078750610351e-05, 2.72265625) (5.959296417236328e-05, 2.724609375) (5.8920501708984374e-05, 2.7265625) (5.8223884582519526e-05, 2.728515625) (5.750328063964844e-05, 2.73046875) (5.675854110717773e-05, 2.732421875) (5.598925018310546e-05, 2.734375) (5.5194915771484375e-05, 2.736328125) (5.437505722045898e-05, 2.73828125) (5.3529106140136714e-05, 2.740234375) (5.2656497955322266e-05, 2.7421875) (5.1756614685058594e-05, 2.744140625) (5.0828765869140624e-05, 2.74609375) (4.987235260009765e-05, 2.748046875) (4.8886833190917965e-05, 2.75) (4.7871673583984376e-05, 2.751953125) (4.68263931274414e-05, 2.75390625) (4.575064468383789e-05, 2.755859375) (4.4644248962402345e-05, 2.7578125) (4.3507331848144526e-05, 2.759765625) (4.234033203125e-05, 2.76171875) (4.114389419555664e-05, 2.763671875) (3.991887283325195e-05, 2.765625) (3.8666332244873044e-05, 2.767578125) (3.738753128051758e-05, 2.76953125) (3.608393859863281e-05, 2.771484375) (3.4757205963134764e-05, 2.7734375) (3.340911865234375e-05, 2.775390625) (3.20416145324707e-05, 2.77734375) (3.065686225891113e-05, 2.779296875) (2.9257265090942383e-05, 2.78125) (2.784552001953125e-05, 2.783203125) (2.6424638748168944e-05, 2.78515625) (2.49979133605957e-05, 2.787109375) (2.3568893432617187e-05, 2.7890625) (2.2141384124755858e-05, 2.791015625) (2.071937370300293e-05, 2.79296875) (1.930702209472656e-05, 2.794921875) (1.7908584594726562e-05, 2.796875) (1.6528358459472654e-05, 2.798828125) (1.5170631408691406e-05, 2.80078125) (1.3839663505554199e-05, 2.802734375) (1.2539657592773437e-05, 2.8046875) (1.1274752616882323e-05, 2.806640625) (1.0049003601074218e-05, 2.80859375) (8.86632251739502e-06, 2.810546875) (7.730432033538817e-06, 2.8125) (6.6448149681091304e-06, 2.814453125) (5.61265754699707e-06, 2.81640625) (4.636779308319092e-06, 2.818359375) (3.719587802886963e-06, 2.8203125) (2.863021373748779e-06, 2.822265625) (2.068516969680786e-06, 2.82421875) (1.3370155096054076e-06, 2.826171875) (6.689683198928833e-07, 2.828125) (6.43557757139206e-08, 2.830078125) (-4.772816896438598e-07, 2.83203125) (-9.568246603012085e-07, 2.833984375) (-1.375564455986023e-06, 2.8359375) (-1.7351884841918945e-06, 2.837890625) (-2.037769079208374e-06, 2.83984375) (-2.2857558727264402e-06, 2.841796875) (-2.4819583892822266e-06, 2.84375) (-2.629533529281616e-06, 2.845703125) (-2.7319724559783933e-06, 2.84765625) (-2.7930688858032224e-06, 2.849609375) (-2.81687593460083e-06, 2.8515625) (-2.807657718658447e-06, 2.853515625) (-2.7698378562927247e-06, 2.85546875) (-2.7079596519470214e-06, 2.857421875) (-2.6266570091247557e-06, 2.859375) (-2.5306270122528077e-06, 2.861328125) (-2.424595832824707e-06, 2.86328125) (-2.313289642333984e-06, 2.865234375) (-2.2013988494873046e-06, 2.8671875) (-2.0935449600219724e-06, 2.869140625) (-1.9942491054534913e-06, 2.87109375) (-1.9078965187072753e-06, 2.873046875) (-1.8386812210083007e-06, 2.875) (-1.7905466556549072e-06, 2.876953125) (-1.7671295404434203e-06, 2.87890625) (-1.771704077720642e-06, 2.880859375) (-1.80714750289917e-06, 2.8828125) (-1.8759220838546752e-06, 2.884765625) (-1.980045914649963e-06, 2.88671875) (-2.121068000793457e-06, 2.888671875) (-2.3000614643096924e-06, 2.890625) (-2.5176153182983395e-06, 2.892578125) (-2.7738492488861082e-06, 2.89453125) (-3.068429946899414e-06, 2.896484375) (-3.4005796909332274e-06, 2.8984375) (-3.769084930419922e-06, 2.900390625) (-4.172322273254394e-06, 2.90234375) (-4.6082949638366695e-06, 2.904296875) (-5.074678421020508e-06, 2.90625) (-5.568878173828125e-06, 2.908203125) (-6.0880689620971674e-06, 2.91015625) (-6.629236221313476e-06, 2.912109375) (-7.189221382141113e-06, 2.9140625) (-7.764750957489014e-06, 2.916015625) (-8.35247802734375e-06, 2.91796875) (-8.949014663696288e-06, 2.919921875) (-9.5509614944458e-06, 2.921875) (-1.0154892921447753e-05, 2.923828125) (-1.075739574432373e-05, 2.92578125) (-1.1355074882507324e-05, 2.927734375) (-1.1944593429565429e-05, 2.9296875) (-1.2522727966308593e-05, 2.931640625) (-1.3086398124694824e-05, 2.93359375) (-1.3632665634155273e-05, 2.935546875) (-1.4158757209777831e-05, 2.9375) (-1.4662094116210937e-05, 2.939453125) (-1.5140315055847167e-05, 2.94140625) (-1.559131622314453e-05, 2.943359375) (-1.601327896118164e-05, 2.9453125) (-1.6404621124267576e-05, 2.947265625) (-1.6763999938964843e-05, 2.94921875) (-1.7090377807617186e-05, 2.951171875) (-1.738300132751465e-05, 2.953125) (-1.7641468048095703e-05, 2.955078125) (-1.7865726470947264e-05, 2.95703125) (-1.805606460571289e-05, 2.958984375) (-1.821307373046875e-05, 2.9609375) (-1.8337640762329102e-05, 2.962890625) (-1.843091583251953e-05, 2.96484375) (-1.8494266510009766e-05, 2.966796875) (-1.8529245376586913e-05, 2.96875) (-1.8537481307983397e-05, 2.970703125) (-1.852063751220703e-05, 2.97265625) (-1.8480358123779295e-05, 2.974609375) (-1.8418224334716797e-05, 2.9765625) (-1.8335784912109375e-05, 2.978515625) (-1.823456001281738e-05, 2.98046875) (-1.8115949630737305e-05, 2.982421875) (-1.7981231689453124e-05, 2.984375) (-1.7831558227539063e-05, 2.986328125) (-1.7667947769165038e-05, 2.98828125) (-1.7491287231445313e-05, 2.990234375) (-1.7302366256713866e-05, 2.9921875) (-1.7101709365844725e-05, 2.994140625) (-1.688954544067383e-05, 2.99609375) (-1.666590118408203e-05, 2.998046875) (-1.6430599212646485e-05, 3.0) (-1.6183246612548827e-05, 3.001953125) (-1.592326545715332e-05, 3.00390625) (-1.5649837493896484e-05, 3.005859375) (-1.5361829757690428e-05, 3.0078125) (-1.5058000564575195e-05, 3.009765625) (-1.4737035751342773e-05, 3.01171875) (-1.4397474288940429e-05, 3.013671875) (-1.403774070739746e-05, 3.015625) (-1.3656099319458007e-05, 3.017578125) (-1.3250587463378906e-05, 3.01953125) (-1.2819101333618163e-05, 3.021484375) (-1.2359475135803223e-05, 3.0234375) (-1.1869462966918945e-05, 3.025390625) (-1.13468017578125e-05, 3.02734375) (-1.0789251327514648e-05, 3.029296875) (-1.0194546699523926e-05, 3.03125) (-9.56059169769287e-06, 3.033203125) (-8.885539054870604e-06, 3.03515625) (-8.167834281921386e-06, 3.037109375) (-7.406331539154052e-06, 3.0390625) (-6.6001396179199216e-06, 3.041015625) (-5.748542785644531e-06, 3.04296875) (-4.851248741149902e-06, 3.044921875) (-3.908570766448974e-06, 3.046875) (-2.9212436676025388e-06, 3.048828125) (-1.8905297517776489e-06, 3.05078125) (-8.181511163711548e-07, 3.052734375) (2.940283715724945e-07, 3.0546875) (1.4434194564819335e-06, 3.056640625) (2.6265206336975096e-06, 3.05859375) (3.839381456375122e-06, 3.060546875) (5.077562808990478e-06, 3.0625) (6.3359165191650385e-06, 3.064453125) (7.6087327003479e-06, 3.06640625) (8.889291763305663e-06, 3.068359375) (1.01693696975708e-05, 3.0703125) (1.144019317626953e-05, 3.072265625) (1.2692466735839843e-05, 3.07421875) (1.3916053771972655e-05, 3.076171875) (1.510071563720703e-05, 3.078125) (1.6235857009887694e-05, 3.080078125) (1.7310644149780274e-05, 3.08203125) (1.8314702987670898e-05, 3.083984375) (1.923792266845703e-05, 3.0859375) (2.007030487060547e-05, 3.087890625) (2.0802122116088866e-05, 3.08984375) (2.1423595428466797e-05, 3.091796875) (2.1924203872680662e-05, 3.09375) (2.229335594177246e-05, 3.095703125) (2.2520713806152344e-05, 3.09765625) (2.259640884399414e-05, 3.099609375) (2.251237678527832e-05, 3.1015625) (2.2261493682861327e-05, 3.103515625) (2.1837625503540038e-05, 3.10546875) (2.1237226486206055e-05, 3.107421875) (2.0458650588989257e-05, 3.109375) (1.9501138687133787e-05, 3.111328125) (1.8363910675048826e-05, 3.11328125) (1.70441780090332e-05, 3.115234375) (1.5537012100219725e-05, 3.1171875) (1.3838167190551758e-05, 3.119140625) (1.1945584297180175e-05, 3.12109375) (9.858302116394042e-06, 3.123046875) (7.57835578918457e-06, 3.125) (5.113134860992431e-06, 3.126953125) (2.474027395248413e-06, 3.12890625) (-3.2049018144607545e-07, 3.130859375) (-3.2444891929626464e-06, 3.1328125) (-6.270695209503174e-06, 3.134765625) (-9.37167739868164e-06, 3.13671875) (-1.2521044731140135e-05, 3.138671875) (-1.569454002380371e-05, 3.140625) (-1.886667442321777e-05, 3.142578125) (-2.200481605529785e-05, 3.14453125) (-2.5071090698242185e-05, 3.146484375) (-2.8027820587158202e-05, 3.1484375) (-3.083439254760742e-05, 3.150390625) (-3.345954132080078e-05, 3.15234375) (-3.587488555908203e-05, 3.154296875) (-3.8040367126464844e-05, 3.15625) (-3.993452453613281e-05, 3.158203125) (-4.155628204345703e-05, 3.16015625) (-4.292055130004883e-05, 3.162109375) (-4.407111358642578e-05, 3.1640625) (-4.5058170318603514e-05, 3.166015625) (-4.589205169677734e-05, 3.16796875) (-4.6589557647705076e-05, 3.169921875) (-4.725641632080078e-05, 3.171875) (-4.79975357055664e-05, 3.173828125) (-4.893312072753906e-05, 3.17578125) (-5.019573974609375e-05, 3.177734375) (-5.180123519897461e-05, 3.1796875) (-5.376863861083984e-05, 3.181640625) (-5.622225952148437e-05, 3.18359375) (-5.921556091308593e-05, 3.185546875) (-6.253665542602538e-05, 3.1875) (-6.587301635742187e-05, 3.189453125) (-6.877890014648437e-05, 3.19140625) (-7.077616882324218e-05, 3.193359375) (-7.174092102050781e-05, 3.1953125) (-7.156228637695312e-05, 3.197265625) (-6.998756408691405e-05, 3.19921875) (-6.699905395507812e-05, 3.201171875) (-6.304549407958984e-05, 3.203125) (-5.886931991577148e-05, 3.205078125) (-5.553507232666015e-05, 3.20703125) (-5.406919479370117e-05, 3.208984375) (-5.478243637084961e-05, 3.2109375) (-5.7843017578125e-05, 3.212890625) (-6.337693023681641e-05, 3.21484375) (-7.095274353027344e-05, 3.216796875) (-7.944392395019532e-05, 3.21875) (-8.704517364501952e-05, 3.220703125) (-9.127493286132812e-05, 3.22265625) (-8.961761474609374e-05, 3.224609375) (-8.029258728027344e-05, 3.2265625) (-6.168317413330078e-05, 3.228515625) (-3.248217010498047e-05, 3.23046875) (7.803468704223633e-06, 3.232421875) (5.875971221923828e-05, 3.234375) (0.00011876997375488281, 3.236328125) (0.0001850558624267578, 3.23828125) (0.00025428684997558595, 3.240234375) (0.0003230805358886719, 3.2421875) (0.0003876379699707031, 3.244140625) (0.00044413354492187497, 3.24609375) (0.0004891248474121093, 3.248046875) (0.0005197774658203125, 3.25) (0.0005344276733398437, 3.251953125) (0.0005325188598632812, 3.25390625) (0.0005143964843749999, 3.255859375) (0.0004812992553710937, 3.2578125) (0.00043563964843749996, 3.259765625) (0.000380666748046875, 3.26171875) (0.00032012881469726563, 3.263671875) (0.0002579256591796875, 3.265625) (0.00019754521179199218, 3.267578125) (0.00014212817382812498, 3.26953125) (9.433920288085938e-05, 3.271484375) (5.6039867401123045e-05, 3.2734375) (2.7885690689086912e-05, 3.275390625) (9.417078018188476e-06, 3.27734375) (-6.274607181549072e-07, 3.279296875) (-4.015707015991211e-06, 3.28125) (-2.6397764682769775e-06, 3.283203125) (1.45035982131958e-06, 3.28515625) (6.146840572357177e-06, 3.287109375) (9.617115020751952e-06, 3.2890625) (1.0788334846496582e-05, 3.291015625) (9.369466781616211e-06, 3.29296875) (5.585171699523926e-06, 3.294921875) (1.2377500534057616e-08, 3.296875) (-6.6747946739196775e-06, 3.298828125) (-1.371628189086914e-05, 3.30078125) (-2.020780563354492e-05, 3.302734375) (-2.530014610290527e-05, 3.3046875) (-2.8568435668945312e-05, 3.306640625) (-2.99984130859375e-05, 3.30859375) (-2.983218193054199e-05, 3.310546875) (-2.849393844604492e-05, 3.3125) (-2.639637756347656e-05, 3.314453125) (-2.3924604415893552e-05, 3.31640625) (-2.1528793334960938e-05, 3.318359375) (-1.9632476806640622e-05, 3.3203125) (-1.846903610229492e-05, 3.322265625) (-1.8109172821044922e-05, 3.32421875) (-1.8507741928100585e-05, 3.326171875) (-1.9538267135620118e-05, 3.328125) (-2.109598159790039e-05, 3.330078125) (-2.3095409393310547e-05, 3.33203125) (-2.5424545288085938e-05, 3.333984375) (-2.7959045410156248e-05, 3.3359375) (-3.0592399597167965e-05, 3.337890625) (-3.323798370361328e-05, 3.33984375) (-3.582512664794922e-05, 3.341796875) (-3.829179763793945e-05, 3.34375) (-4.056481170654297e-05, 3.345703125) (-4.2560359954833985e-05, 3.34765625) (-4.419883728027343e-05, 3.349609375) (-4.542720413208008e-05, 3.3515625) (-4.6220245361328126e-05, 3.353515625) (-4.657075500488281e-05, 3.35546875) (-4.649041748046875e-05, 3.357421875) (-4.5998466491699214e-05, 3.359375) (-4.511894607543945e-05, 3.361328125) (-4.3888023376464844e-05, 3.36328125) (-4.2348346710205076e-05, 3.365234375) (-4.054165649414062e-05, 3.3671875) (-3.851032257080078e-05, 3.369140625) (-3.629411315917969e-05, 3.37109375) (-3.392935180664062e-05, 3.373046875) (-3.145709991455078e-05, 3.375) (-2.8919679641723633e-05, 3.376953125) (-2.6358451843261717e-05, 3.37890625) (-2.3814872741699218e-05, 3.380859375) (-2.1319232940673827e-05, 3.3828125) (-1.88902473449707e-05, 3.384765625) (-1.6541400909423826e-05, 3.38671875) (-1.42791748046875e-05, 3.388671875) (-1.2105766296386719e-05, 3.390625) (-1.0022303581237792e-05, 3.392578125) (-8.025146484375e-06, 3.39453125) (-6.106880187988281e-06, 3.396484375) (-4.262969017028809e-06, 3.3984375) (-2.4903023242950437e-06, 3.400390625) (-7.862685918807983e-07, 3.40234375) (8.496619462966918e-07, 3.404296875) (2.4201178550720215e-06, 3.40625) (3.929701805114746e-06, 3.408203125) (5.382694244384766e-06, 3.41015625) (6.783842086791992e-06, 3.412109375) (8.137139320373535e-06, 3.4140625) (9.445157051086425e-06, 3.416015625) (1.0710474014282226e-05, 3.41796875) (1.1935750007629393e-05, 3.419921875) (1.3122912406921386e-05, 3.421875) (1.4273736953735352e-05, 3.423828125) (1.538957405090332e-05, 3.42578125) (1.647116661071777e-05, 3.427734375) (1.7520471572875975e-05, 3.4296875) (1.8540470123291013e-05, 3.431640625) (1.95343017578125e-05, 3.43359375) (2.0505420684814452e-05, 3.435546875) (2.1457000732421873e-05, 3.4375) (2.239168930053711e-05, 3.439453125) (2.3312118530273436e-05, 3.44140625) (2.422082138061523e-05, 3.443359375) (2.5119503021240233e-05, 3.4453125) (2.6009220123291015e-05, 3.447265625) (2.6890541076660156e-05, 3.44921875) (2.7763423919677734e-05, 3.451171875) (2.862763977050781e-05, 3.453125) (2.948284912109375e-05, 3.455078125) (3.032837677001953e-05, 3.45703125) (3.116324234008789e-05, 3.458984375) (3.1986328125e-05, 3.4609375) (3.2796302795410153e-05, 3.462890625) (3.359162139892578e-05, 3.46484375) (3.437073516845703e-05, 3.466796875) (3.513191604614258e-05, 3.46875) (3.587324523925781e-05, 3.470703125) (3.6592739105224605e-05, 3.47265625) (3.728831100463867e-05, 3.474609375) (3.795779418945312e-05, 3.4765625) (3.859901428222656e-05, 3.478515625) (3.9209735870361326e-05, 3.48046875) (3.978757858276367e-05, 3.482421875) (4.033012390136719e-05, 3.484375) (4.0834865570068354e-05, 3.486328125) (4.1299179077148434e-05, 3.48828125) (4.172039413452148e-05, 3.490234375) (4.209572601318359e-05, 3.4921875) (4.2422267913818356e-05, 3.494140625) (4.2697154998779295e-05, 3.49609375) (4.2917545318603515e-05, 3.498046875) (4.308067321777343e-05, 3.5) (4.318391418457031e-05, 3.501953125) (4.322478485107422e-05, 3.50390625) (4.3200973510742186e-05, 3.505859375) (4.31104736328125e-05, 3.5078125) (4.2951560974121094e-05, 3.509765625) (4.2722709655761715e-05, 3.51171875) (4.242262268066406e-05, 3.513671875) (4.2050201416015626e-05, 3.515625) (4.160446166992187e-05, 3.517578125) (4.1084629058837886e-05, 3.51953125) (4.049009323120117e-05, 3.521484375) (3.982036590576172e-05, 3.5234375) (3.9075096130371093e-05, 3.525390625) (3.825407791137695e-05, 3.52734375) (3.735721588134766e-05, 3.529296875) (3.638457870483398e-05, 3.53125) (3.533634185791015e-05, 3.533203125) (3.421280288696289e-05, 3.53515625) (3.301437759399414e-05, 3.537109375) (3.174159622192383e-05, 3.5390625) (3.0395145416259766e-05, 3.541015625) (2.897591209411621e-05, 3.54296875) (2.748501205444336e-05, 3.544921875) (2.592386245727539e-05, 3.546875) (2.429422378540039e-05, 3.548828125) (2.259824562072754e-05, 3.55078125) (2.0838478088378906e-05, 3.552734375) (1.901789855957031e-05, 3.5546875) (1.7139888763427735e-05, 3.556640625) (1.5208196640014648e-05, 3.55859375) (1.3226926803588866e-05, 3.560546875) (1.120048427581787e-05, 3.5625) (9.133533477783203e-06, 3.564453125) (7.030969619750976e-06, 3.56640625) (4.897890090942383e-06, 3.568359375) (2.739556312561035e-06, 3.5703125) (5.613988041877746e-07, 3.572265625) (-1.630997896194458e-06, 3.57421875) (-3.83192491531372e-06, 3.576171875) (-6.03557014465332e-06, 3.578125) (-8.23605728149414e-06, 3.580078125) (-1.0427479743957519e-05, 3.58203125) (-1.260393714904785e-05, 3.583984375) (-1.4759557723999022e-05, 3.5859375) (-1.6888534545898436e-05, 3.587890625) (-1.898514938354492e-05, 3.58984375) (-2.1043785095214844e-05, 3.591796875) (-2.3058929443359376e-05, 3.59375) (-2.5025163650512695e-05, 3.595703125) (-2.693716812133789e-05, 3.59765625) (-2.8789760589599608e-05, 3.599609375) (-3.057791519165039e-05, 3.6015625) (-3.229681015014648e-05, 3.603515625) (-3.394190216064453e-05, 3.60546875) (-3.550897979736328e-05, 3.607421875) (-3.6994209289550776e-05, 3.609375) (-3.839423751831055e-05, 3.611328125) (-3.9706222534179685e-05, 3.61328125) (-4.092788314819336e-05, 3.615234375) (-4.205749893188476e-05, 3.6171875) (-4.309391021728515e-05, 3.619140625) (-4.40364990234375e-05, 3.62109375) (-4.488516616821289e-05, 3.623046875) (-4.5640338897705075e-05, 3.625) (-4.630290222167969e-05, 3.626953125) (-4.687421417236328e-05, 3.62890625) (-4.735605621337891e-05, 3.630859375) (-4.7750621795654294e-05, 3.6328125) (-4.806049346923828e-05, 3.634765625) (-4.8288669586181635e-05, 3.63671875) (-4.84384536743164e-05, 3.638671875) (-4.851348114013672e-05, 3.640625) (-4.851760864257812e-05, 3.642578125) (-4.845489501953125e-05, 3.64453125) (-4.8329551696777344e-05, 3.646484375) (-4.814591598510742e-05, 3.6484375) (-4.7908390045166016e-05, 3.650390625) (-4.7621444702148434e-05, 3.65234375) (-4.728958892822266e-05, 3.654296875) (-4.6917396545410154e-05, 3.65625) (-4.650947952270508e-05, 3.658203125) (-4.607050323486328e-05, 3.66015625) (-4.5605186462402343e-05, 3.662109375) (-4.511824035644531e-05, 3.6640625) (-4.461434936523437e-05, 3.666015625) (-4.4098091125488276e-05, 3.66796875) (-4.3573883056640625e-05, 3.669921875) (-4.3045989990234374e-05, 3.671875) (-4.251838302612305e-05, 3.673828125) (-4.1994754791259765e-05, 3.67578125) (-4.147846603393555e-05, 3.677734375) (-4.097254180908203e-05, 3.6796875) (-4.047969055175781e-05, 3.681640625) (-4.000230407714844e-05, 3.68359375) (-3.954247283935547e-05, 3.685546875) (-3.9102008819580075e-05, 3.6875) (-3.8682434082031245e-05, 3.689453125) (-3.8284992218017575e-05, 3.69140625) (-3.791067504882812e-05, 3.693359375) (-3.7560218811035154e-05, 3.6953125) (-3.72341194152832e-05, 3.697265625) (-3.69326171875e-05, 3.69921875) (-3.665575790405273e-05, 3.701171875) (-3.640341186523437e-05, 3.703125) (-3.617531967163086e-05, 3.705078125) (-3.5971153259277344e-05, 3.70703125) (-3.579052734375e-05, 3.708984375) (-3.56330337524414e-05, 3.7109375) (-3.549823760986328e-05, 3.712890625) (-3.5385711669921874e-05, 3.71484375) (-3.529500579833984e-05, 3.716796875) (-3.522564697265625e-05, 3.71875) (-3.5177101135253904e-05, 3.720703125) (-3.514875793457031e-05, 3.72265625) (-3.513993835449219e-05, 3.724609375) (-3.51498908996582e-05, 3.7265625) (-3.517782592773437e-05, 3.728515625) (-3.5222930908203126e-05, 3.73046875) (-3.52844123840332e-05, 3.732421875) (-3.536154174804687e-05, 3.734375) (-3.545366287231445e-05, 3.736328125) (-3.5560176849365235e-05, 3.73828125) (-3.5680587768554684e-05, 3.740234375) (-3.581449127197265e-05, 3.7421875) (-3.5961532592773435e-05, 3.744140625) (-3.612141799926758e-05, 3.74609375) (-3.629385375976562e-05, 3.748046875) (-3.6478534698486326e-05, 3.75) (-3.6675170898437495e-05, 3.751953125) (-3.688344573974609e-05, 3.75390625) (-3.710305786132812e-05, 3.755859375) (-3.733370590209961e-05, 3.7578125) (-3.7575080871582026e-05, 3.759765625) (-3.78268814086914e-05, 3.76171875) (-3.808878707885742e-05, 3.763671875) (-3.836041259765625e-05, 3.765625) (-3.864128112792968e-05, 3.767578125) (-3.893080902099609e-05, 3.76953125) (-3.922825241088867e-05, 3.771484375) (-3.953271484375e-05, 3.7734375) (-3.984312057495117e-05, 3.775390625) (-4.015820693969726e-05, 3.77734375) (-4.047659683227539e-05, 3.779296875) (-4.0796833038330076e-05, 3.78125) (-4.111738586425781e-05, 3.783203125) (-4.143666076660156e-05, 3.78515625) (-4.175306701660156e-05, 3.787109375) (-4.206495666503906e-05, 3.7890625) (-4.237068176269531e-05, 3.791015625) (-4.2668571472167967e-05, 3.79296875) (-4.2956886291503906e-05, 3.794921875) (-4.323374938964844e-05, 3.796875) (-4.349722290039062e-05, 3.798828125) (-4.374530792236328e-05, 3.80078125) (-4.397592544555664e-05, 3.802734375) (-4.4186962127685546e-05, 3.8046875) (-4.437628936767578e-05, 3.806640625) (-4.454167175292968e-05, 3.80859375) (-4.4680965423583984e-05, 3.810546875) (-4.4792152404785156e-05, 3.8125) (-4.487321853637695e-05, 3.814453125) (-4.492227554321289e-05, 3.81640625) (-4.493747329711914e-05, 3.818359375) (-4.491699981689453e-05, 3.8203125) (-4.485908508300781e-05, 3.822265625) (-4.476203918457031e-05, 3.82421875) (-4.462424850463867e-05, 3.826171875) (-4.444418716430664e-05, 3.828125) (-4.422052764892578e-05, 3.830078125) (-4.395207595825195e-05, 3.83203125) (-4.363787460327148e-05, 3.833984375) (-4.32772216796875e-05, 3.8359375) (-4.286965942382812e-05, 3.837890625) (-4.2415077209472654e-05, 3.83984375) (-4.191352844238281e-05, 3.841796875) (-4.1365234375e-05, 3.84375) (-4.0770675659179685e-05, 3.845703125) (-4.013058853149414e-05, 3.84765625) (-3.94459228515625e-05, 3.849609375) (-3.8717880249023434e-05, 3.8515625) (-3.794789886474609e-05, 3.853515625) (-3.713760757446289e-05, 3.85546875) (-3.628907775878906e-05, 3.857421875) (-3.5404869079589844e-05, 3.859375) (-3.448775863647461e-05, 3.861328125) (-3.354071044921875e-05, 3.86328125) (-3.256705093383789e-05, 3.865234375) (-3.1570613861083985e-05, 3.8671875) (-3.0555984497070314e-05, 3.869140625) (-2.9528770446777342e-05, 3.87109375) (-2.8495075225830076e-05, 3.873046875) (-2.7461254119873046e-05, 3.875) (-2.6434370040893555e-05, 3.876953125) (-2.5422056198120117e-05, 3.87890625) (-2.4432189941406247e-05, 3.880859375) (-2.3472925186157227e-05, 3.8828125) (-2.2551942825317382e-05, 3.884765625) (-2.1675806045532225e-05, 3.88671875) (-2.0850833892822265e-05, 3.888671875) (-2.008355712890625e-05, 3.890625) (-1.938056182861328e-05, 3.892578125) (-1.8749351501464843e-05, 3.89453125) (-1.8197933197021484e-05, 3.896484375) (-1.7733577728271484e-05, 3.8984375) (-1.7363285064697263e-05, 3.900390625) (-1.7093647003173826e-05, 3.90234375) (-1.693044090270996e-05, 3.904296875) (-1.6879283905029296e-05, 3.90625) (-1.6943737030029296e-05, 3.908203125) (-1.7124300003051756e-05, 3.91015625) (-1.742107009887695e-05, 3.912109375) (-1.7834472656249998e-05, 3.9140625) (-1.8367679595947265e-05, 3.916015625) (-1.902920341491699e-05, 3.91796875) (-1.9828239440917967e-05, 3.919921875) (-2.0771636962890623e-05, 3.921875) (-2.1865816116333006e-05, 3.923828125) (-2.311379623413086e-05, 3.92578125) (-2.451313018798828e-05, 3.927734375) (-2.6059703826904296e-05, 3.9296875) (-2.7742694854736327e-05, 3.931640625) (-2.9542314529418945e-05, 3.93359375) (-3.1437034606933595e-05, 3.935546875) (-3.340248870849609e-05, 3.9375) (-3.541551971435547e-05, 3.939453125) (-3.745858383178711e-05, 3.94140625) (-3.9512016296386716e-05, 3.943359375) (-4.155220794677734e-05, 3.9453125) (-4.354830932617187e-05, 3.947265625) (-4.545751953125e-05, 3.94921875) (-4.723493957519531e-05, 3.951171875) (-4.884110260009766e-05, 3.953125) (-5.0236953735351563e-05, 3.955078125) (-5.139360046386719e-05, 3.95703125) (-5.230203247070312e-05, 3.958984375) (-5.295990753173828e-05, 3.9609375) (-5.338608551025391e-05, 3.962890625) (-5.36189956665039e-05, 3.96484375) (-5.369070053100586e-05, 3.966796875) (-5.364920425415039e-05, 3.96875) (-5.3555946350097656e-05, 3.970703125) (-5.3471351623535156e-05, 3.97265625) (-5.3472728729248046e-05, 3.974609375) (-5.364351654052734e-05, 3.9765625) (-5.405896759033203e-05, 3.978515625) (-5.483376312255859e-05, 3.98046875) (-5.612971878051757e-05, 3.982421875) (-5.8046020507812496e-05, 3.984375) (-6.058961486816406e-05, 3.986328125) (-6.364476776123046e-05, 3.98828125) (-6.692703247070312e-05, 3.990234375) (-7.013410949707031e-05, 3.9921875) (-7.303147888183593e-05, 3.994140625) (-7.533900451660156e-05, 3.99609375) (-7.669708251953125e-05, 3.998046875) (-7.689234924316406e-05, 4.0) (-7.600708007812499e-05, 4.001953125) (-7.447555541992187e-05, 4.00390625) (-7.314161682128906e-05, 4.005859375) (-7.288231658935546e-05, 4.0078125) (-7.4201904296875e-05, 4.009765625) (-7.741099548339844e-05, 4.01171875) (-8.283811950683593e-05, 4.013671875) (-9.042088317871093e-05, 4.015625) (-9.94134063720703e-05, 4.017578125) (-0.00010841912078857422, 4.01953125) (-0.00011521837615966797, 4.021484375) (-0.00011732572174072265, 4.0234375) (-0.00011294364929199218, 4.025390625) (-0.00010063942718505859, 4.02734375) (-7.889237976074218e-05, 4.029296875) (-4.683359909057617e-05, 4.03125) (-4.572498321533203e-06, 4.033203125) (4.691703033447266e-05, 4.03515625) (0.00010526565551757811, 4.037109375) (0.0001673267822265625, 4.0390625) (0.00023050436401367185, 4.041015625) (0.00029209689331054684, 4.04296875) (0.00034868841552734375, 4.044921875) (0.0003971671142578125, 4.046875) (0.00043492926025390623, 4.048828125) (0.00045986544799804687, 4.05078125) (0.00047132211303710933, 4.052734375) (0.0004695099487304687, 4.0546875) (0.00045429132080078123, 4.056640625) (0.00042623788452148437, 4.05859375) (0.00038732653808593747, 4.060546875) (0.0003400360717773437, 4.0625) (0.00028732867431640626, 4.064453125) (0.000232480224609375, 4.06640625) (0.00017800503540039061, 4.068359375) (0.00012617237854003905, 4.0703125) (7.983204650878905e-05, 4.072265625) (4.124389266967773e-05, 4.07421875) (1.1350723266601563e-05, 4.076171875) (-9.732913017272948e-06, 4.078125) (-2.2802852630615233e-05, 4.080078125) (-2.9302366256713866e-05, 4.08203125) (-3.0503437042236327e-05, 4.083984375) (-2.787843132019043e-05, 4.0859375) (-2.3604965209960937e-05, 4.087890625) (-1.9710371017456052e-05, 4.08984375) (-1.744026565551758e-05, 4.091796875) (-1.7427116394042968e-05, 4.09375) (-1.9627384185791016e-05, 4.095703125) (-2.3564477920532227e-05, 4.09765625) (-2.8825056076049802e-05, 4.099609375) (-3.4877769470214845e-05, 4.1015625) (-4.078851318359375e-05, 4.103515625) (-4.561775970458984e-05, 4.10546875) (-4.883199310302734e-05, 4.107421875) (-5.024983978271484e-05, 4.109375) (-5.0051692962646485e-05, 4.111328125) (-4.862990188598633e-05, 4.11328125) (-4.631417083740234e-05, 4.115234375) (-4.342039108276367e-05, 4.1171875) (-4.036897277832031e-05, 4.119140625) (-3.7583835601806636e-05, 4.12109375) (-3.531474304199219e-05, 4.123046875) (-3.365530395507812e-05, 4.125) (-3.25669937133789e-05, 4.126953125) (-3.1924596786499024e-05, 4.12890625) (-3.163386344909668e-05, 4.130859375) (-3.162593078613281e-05, 4.1328125) (-3.1816020965576174e-05, 4.134765625) (-3.210723114013672e-05, 4.13671875) (-3.243324279785156e-05, 4.138671875) (-3.275910186767578e-05, 4.140625) (-3.305527877807617e-05, 4.142578125) (-3.330513381958008e-05, 4.14453125) (-3.3478141784667964e-05, 4.146484375) (-3.35294189453125e-05, 4.1484375) (-3.3434074401855464e-05, 4.150390625) (-3.3187427520751953e-05, 4.15234375) (-3.2798118591308594e-05, 4.154296875) (-3.228734588623047e-05, 4.15625) (-3.167905044555664e-05, 4.158203125) (-3.098990249633789e-05, 4.16015625) (-3.0242694854736327e-05, 4.162109375) (-2.9464736938476562e-05, 4.1640625) (-2.8669288635253905e-05, 4.166015625) (-2.7864482879638672e-05, 4.16796875) (-2.7043256759643554e-05, 4.169921875) (-2.6179431915283203e-05, 4.171875) (-2.5262054443359373e-05, 4.173828125) (-2.4292694091796873e-05, 4.17578125) (-2.327276802062988e-05, 4.177734375) (-2.220880889892578e-05, 4.1796875) (-2.1096553802490234e-05, 4.181640625) (-1.991587448120117e-05, 4.18359375) (-1.8651176452636717e-05, 4.185546875) (-1.7292398452758787e-05, 4.1875) (-1.582909393310547e-05, 4.189453125) (-1.4257834434509276e-05, 4.19140625) (-1.257386589050293e-05, 4.193359375) (-1.0769405364990233e-05, 4.1953125) (-8.851499557495116e-06, 4.197265625) (-6.838282108306884e-06, 4.19921875) (-4.758183002471924e-06, 4.201171875) (-2.6519036293029785e-06, 4.203125) (-5.485669374465943e-07, 4.205078125) (1.5356063842773436e-06, 4.20703125) (3.584766864776611e-06, 4.208984375) (5.587104797363281e-06, 4.2109375) (7.528104782104492e-06, 4.212890625) (9.387060165405273e-06, 4.21484375) (1.1152141571044922e-05, 4.216796875) (1.2820466995239256e-05, 4.21875) (1.4387866973876953e-05, 4.220703125) (1.5852209091186524e-05, 4.22265625) (1.7210777282714842e-05, 4.224609375) (1.8458389282226563e-05, 4.2265625) (1.9599136352539062e-05, 4.228515625) (2.0645179748535155e-05, 4.23046875) (2.161164855957031e-05, 4.232421875) (2.251774215698242e-05, 4.234375) (2.3377466201782226e-05, 4.236328125) (2.4198280334472654e-05, 4.23828125) (2.4987880706787107e-05, 4.240234375) (2.5752744674682615e-05, 4.2421875) (2.649818420410156e-05, 4.244140625) (2.7229928970336914e-05, 4.24609375) (2.794934272766113e-05, 4.248046875) (2.8653408050537107e-05, 4.25) (2.934122848510742e-05, 4.251953125) (3.001323318481445e-05, 4.25390625) (3.0670185089111324e-05, 4.255859375) (3.1314258575439454e-05, 4.2578125) (3.1944980621337886e-05, 4.259765625) (3.255922698974609e-05, 4.26171875) (3.3154335021972656e-05, 4.263671875) (3.372761917114258e-05, 4.265625) (3.4277084350585934e-05, 4.267578125) (3.480194091796875e-05, 4.26953125) (3.530107116699219e-05, 4.271484375) (3.577319717407227e-05, 4.2734375) (3.621806335449219e-05, 4.275390625) (3.6636161804199216e-05, 4.27734375) (3.702862548828125e-05, 4.279296875) (3.739733123779297e-05, 4.28125) (3.774331665039062e-05, 4.283203125) (3.806675338745117e-05, 4.28515625) (3.836774444580078e-05, 4.287109375) (3.864609909057617e-05, 4.2890625) (3.890154647827148e-05, 4.291015625) (3.9133895874023436e-05, 4.29296875) (3.9342472076416014e-05, 4.294921875) (3.9526180267333986e-05, 4.296875) (3.9684154510498046e-05, 4.298828125) (3.9815700531005855e-05, 4.30078125) (3.9920131683349606e-05, 4.302734375) (3.999692535400391e-05, 4.3046875) (4.0045387268066404e-05, 4.306640625) (4.00646743774414e-05, 4.30859375) (4.0054061889648435e-05, 4.310546875) (4.001289749145508e-05, 4.3125) (3.994046401977539e-05, 4.314453125) (3.983597946166992e-05, 4.31640625) (3.969856262207031e-05, 4.318359375) (3.952718734741211e-05, 4.3203125) (3.9320838928222656e-05, 4.322265625) (3.9078529357910155e-05, 4.32421875) (3.879911422729492e-05, 4.326171875) (3.848140335083008e-05, 4.328125) (3.812416839599609e-05, 4.330078125) (3.7726119995117186e-05, 4.33203125) (3.728594207763672e-05, 4.333984375) (3.680231094360351e-05, 4.3359375) (3.627375793457031e-05, 4.337890625) (3.569865417480469e-05, 4.33984375) (3.507535934448242e-05, 4.341796875) (3.4402156829833984e-05, 4.34375) (3.3677356719970704e-05, 4.345703125) (3.289934921264648e-05, 4.34765625) (3.2066539764404296e-05, 4.349609375) (3.117744827270508e-05, 4.3515625) (3.0230812072753904e-05, 4.353515625) (2.9225646972656247e-05, 4.35546875) (2.8161239624023437e-05, 4.357421875) (2.703723907470703e-05, 4.359375) (2.5853528976440427e-05, 4.361328125) (2.4610246658325194e-05, 4.36328125) (2.3307865142822266e-05, 4.365234375) (2.1947174072265623e-05, 4.3671875) (2.0529289245605467e-05, 4.369140625) (1.9055696487426756e-05, 4.37109375) (1.752818298339844e-05, 4.373046875) (1.5948853492736816e-05, 4.375) (1.4320215225219726e-05, 4.376953125) (1.2645170211791991e-05, 4.37890625) (1.0927001953125e-05, 4.380859375) (9.169374465942382e-06, 4.3828125) (7.376295089721679e-06, 4.384765625) (5.552079200744629e-06, 4.38671875) (3.7013759613037106e-06, 4.388671875) (1.8291192054748535e-06, 4.390625) (-5.950057506561279e-08, 4.392578125) (-1.9590489864349364e-06, 4.39453125) (-3.863877296447754e-06, 4.396484375) (-5.768130779266357e-06, 4.3984375) (-7.665739059448242e-06, 4.400390625) (-9.550435066223145e-06, 4.40234375) (-1.1415785789489746e-05, 4.404296875) (-1.3255213737487793e-05, 4.40625) (-1.506204032897949e-05, 4.408203125) (-1.682952880859375e-05, 4.41015625) (-1.855093002319336e-05, 4.412109375) (-2.0219547271728515e-05, 4.4140625) (-2.1828834533691404e-05, 4.416015625) (-2.337244415283203e-05, 4.41796875) (-2.484431457519531e-05, 4.419921875) (-2.6238712310791014e-05, 4.421875) (-2.7550285339355468e-05, 4.423828125) (-2.8774114608764647e-05, 4.42578125) (-2.9905757904052732e-05, 4.427734375) (-3.094128036499023e-05, 4.4296875) (-3.187725448608398e-05, 4.431640625) (-3.271080017089844e-05, 4.43359375) (-3.343958282470703e-05, 4.435546875) (-3.406183624267578e-05, 4.4375) (-3.457639694213867e-05, 4.439453125) (-3.498268890380859e-05, 4.44140625) (-3.52807388305664e-05, 4.443359375) (-3.5471168518066404e-05, 4.4453125) (-3.555521392822265e-05, 4.447265625) (-3.5534721374511716e-05, 4.44921875) (-3.541210556030273e-05, 4.451171875) (-3.5190399169921875e-05, 4.453125) (-3.4873146057128905e-05, 4.455078125) (-3.446442031860351e-05, 4.45703125) (-3.396879196166992e-05, 4.458984375) (-3.339133071899414e-05, 4.4609375) (-3.273755645751953e-05, 4.462890625) (-3.201344299316406e-05, 4.46484375) (-3.1225355148315426e-05, 4.466796875) (-3.038003921508789e-05, 4.46875) (-2.948460006713867e-05, 4.470703125) (-2.854646301269531e-05, 4.47265625) (-2.757333755493164e-05, 4.474609375) (-2.657312774658203e-05, 4.4765625) (-2.5553863525390625e-05, 4.478515625) (-2.452361297607422e-05, 4.48046875) (-2.349040985107422e-05, 4.482421875) (-2.2462173461914062e-05, 4.484375) (-2.1446653366088867e-05, 4.486328125) (-2.0451330184936522e-05, 4.48828125) (-1.9483366012573243e-05, 4.490234375) (-1.8549558639526366e-05, 4.4921875) (-1.765632438659668e-05, 4.494140625) (-1.6809686660766602e-05, 4.49609375) (-1.60152645111084e-05, 4.498046875) (-1.5278234481811523e-05, 4.5) (-1.4603317260742187e-05, 4.501953125) (-1.3994760513305663e-05, 4.50390625) (-1.3456342697143554e-05, 4.505859375) (-1.2991363525390625e-05, 4.5078125) (-1.2602619171142577e-05, 4.509765625) (-1.2292369842529296e-05, 4.51171875) (-1.2062322616577147e-05, 4.513671875) (-1.1913652420043945e-05, 4.515625) (-1.1847042083740234e-05, 4.517578125) (-1.1862697601318358e-05, 4.51953125) (-1.1960363388061523e-05, 4.521484375) (-1.2139284133911132e-05, 4.5234375) (-1.239823818206787e-05, 4.525390625) (-1.2735580444335936e-05, 4.52734375) (-1.3149242401123046e-05, 4.529296875) (-1.3636764526367186e-05, 4.53125) (-1.4195253372192382e-05, 4.533203125) (-1.4821352958679198e-05, 4.53515625) (-1.551128005981445e-05, 4.537109375) (-1.6260881423950195e-05, 4.5390625) (-1.7065700531005858e-05, 4.541015625) (-1.7921070098876953e-05, 4.54296875) (-1.8822174072265625e-05, 4.544921875) (-1.976406478881836e-05, 4.546875) (-2.0741731643676755e-05, 4.548828125) (-2.1750188827514646e-05, 4.55078125) (-2.2784534454345703e-05, 4.552734375) (-2.384000015258789e-05, 4.5546875) (-2.4911935806274413e-05, 4.556640625) (-2.599576377868652e-05, 4.55859375) (-2.708696365356445e-05, 4.560546875) (-2.8181125640869138e-05, 4.5625) (-2.927399444580078e-05, 4.564453125) (-3.036146545410156e-05, 4.56640625) (-3.143959045410156e-05, 4.568359375) (-3.2504501342773434e-05, 4.5703125) (-3.355245971679687e-05, 4.572265625) (-3.4579940795898436e-05, 4.57421875) (-3.5583656311035156e-05, 4.576171875) (-3.6560504913330075e-05, 4.578125) (-3.750749969482422e-05, 4.580078125) (-3.8421676635742184e-05, 4.58203125) (-3.930017852783203e-05, 4.583984375) (-4.014034652709961e-05, 4.5859375) (-4.093961334228515e-05, 4.587890625) (-4.1695487976074214e-05, 4.58984375) (-4.2405563354492184e-05, 4.591796875) (-4.3067440032958983e-05, 4.59375) (-4.367891693115234e-05, 4.595703125) (-4.423817443847656e-05, 4.59765625) (-4.474365615844727e-05, 4.599609375) (-4.5194068908691403e-05, 4.6015625) (-4.558832550048828e-05, 4.603515625) (-4.5925384521484374e-05, 4.60546875) (-4.620426559448242e-05, 4.607421875) (-4.6424179077148436e-05, 4.609375) (-4.658443069458008e-05, 4.611328125) (-4.6684364318847655e-05, 4.61328125) (-4.672331619262695e-05, 4.615234375) (-4.670048141479492e-05, 4.6171875) (-4.661511993408203e-05, 4.619140625) (-4.6466728210449215e-05, 4.62109375) (-4.625504684448242e-05, 4.623046875) (-4.5979938507080076e-05, 4.625) (-4.564129638671875e-05, 4.626953125) (-4.52390022277832e-05, 4.62890625) (-4.4773063659667964e-05, 4.630859375) (-4.424383544921875e-05, 4.6328125) (-4.365184020996094e-05, 4.634765625) (-4.2997627258300777e-05, 4.63671875) (-4.2281776428222656e-05, 4.638671875) (-4.1504981994628904e-05, 4.640625) (-4.066837310791015e-05, 4.642578125) (-3.977364349365234e-05, 4.64453125) (-3.882286834716797e-05, 4.646484375) (-3.78182373046875e-05, 4.6484375) (-3.676220703125e-05, 4.650390625) (-3.565776824951172e-05, 4.65234375) (-3.450860214233398e-05, 4.654296875) (-3.331922149658203e-05, 4.65625) (-3.209434509277344e-05, 4.658203125) (-3.083881378173828e-05, 4.66015625) (-2.9557655334472654e-05, 4.662109375) (-2.8256393432617186e-05, 4.6640625) (-2.694133377075195e-05, 4.666015625) (-2.561910629272461e-05, 4.66796875) (-2.4296680450439452e-05, 4.669921875) (-2.298103332519531e-05, 4.671875) (-2.1679283142089842e-05, 4.673828125) (-2.0399290084838866e-05, 4.67578125) (-1.914948272705078e-05, 4.677734375) (-1.7938688278198243e-05, 4.6796875) (-1.6776184082031248e-05, 4.681640625) (-1.567158031463623e-05, 4.68359375) (-1.4633891105651855e-05, 4.685546875) (-1.3672460556030273e-05, 4.6875) (-1.2797433853149414e-05, 4.689453125) (-1.2017642974853515e-05, 4.69140625) (-1.1341096878051758e-05, 4.693359375) (-1.077403450012207e-05, 4.6953125) (-1.0320695877075196e-05, 4.697265625) (-9.987419128417968e-06, 4.69921875) (-9.783113479614258e-06, 4.701171875) (-9.717109680175781e-06, 4.703125) (-9.797769546508788e-06, 4.705078125) (-1.0031810760498047e-05, 4.70703125) (-1.0424728393554687e-05, 4.708984375) (-1.0984503746032714e-05, 4.7109375) (-1.1718688011169433e-05, 4.712890625) (-1.2628671646118164e-05, 4.71484375) (-1.3712333679199218e-05, 4.716796875) (-1.4962383270263671e-05, 4.71875) (-1.636860656738281e-05, 4.720703125) (-1.7926952362060545e-05, 4.72265625) (-1.9635257720947266e-05, 4.724609375) (-2.1489587783813477e-05, 4.7265625) (-2.348673629760742e-05, 4.728515625) (-2.561428451538086e-05, 4.73046875) (-2.7847503662109374e-05, 4.732421875) (-3.0160287857055662e-05, 4.734375) (-3.252556228637695e-05, 4.736328125) (-3.491114807128906e-05, 4.73828125) (-3.727970504760742e-05, 4.740234375) (-3.9580642700195314e-05, 4.7421875) (-4.176130676269531e-05, 4.744140625) (-4.378888702392578e-05, 4.74609375) (-4.5650604248046874e-05, 4.748046875) (-4.734817886352539e-05, 4.75) (-4.8877243041992185e-05, 4.751953125) (-5.020327758789062e-05, 4.75390625) (-5.1284790039062496e-05, 4.755859375) (-5.2104633331298824e-05, 4.7578125) (-5.26632080078125e-05, 4.759765625) (-5.299637222290039e-05, 4.76171875) (-5.3132663726806635e-05, 4.763671875) (-5.304755020141601e-05, 4.765625) (-5.2769462585449217e-05, 4.767578125) (-5.2432243347167966e-05, 4.76953125) (-5.226003265380859e-05, 4.771484375) (-5.252179718017578e-05, 4.7734375) (-5.3384452819824215e-05, 4.775390625) (-5.4803260803222656e-05, 4.77734375) (-5.672182083129883e-05, 4.779296875) (-5.9236213684082026e-05, 4.78125) (-6.23384780883789e-05, 4.783203125) (-6.584174346923828e-05, 4.78515625) (-6.926201629638671e-05, 4.787109375) (-7.183935546874999e-05, 4.7890625) (-7.310293579101562e-05, 4.791015625) (-7.310183715820313e-05, 4.79296875) (-7.201584625244141e-05, 4.794921875) (-6.983396911621094e-05, 4.796875) (-6.66518325805664e-05, 4.798828125) (-6.279238891601562e-05, 4.80078125) (-5.914861297607421e-05, 4.802734375) (-5.720813369750976e-05, 4.8046875) (-5.802795791625976e-05, 4.806640625) (-6.183663558959961e-05, 4.80859375) (-6.838764190673827e-05, 4.810546875) (-7.737944030761718e-05, 4.8125) (-8.83392333984375e-05, 4.814453125) (-0.00010039727020263671, 4.81640625) (-0.00011182099151611328, 4.818359375) (-0.00011997942352294921, 4.8203125) (-0.00012238006591796873, 4.822265625) (-0.00011725048065185547, 4.82421875) (-0.00010354512786865234, 4.826171875) (-8.05104751586914e-05, 4.828125) (-4.7615882873535155e-05, 4.830078125) (-4.969663619995117e-06, 4.83203125) (4.629425048828125e-05, 4.833984375) (0.00010396420288085937, 4.8359375) (0.00016519589233398438, 4.837890625) (0.0002271834259033203, 4.83984375) (0.00028755242919921876, 4.841796875) (0.0003438116455078125, 4.84375) (0.00039326171875, 4.845703125) (0.0004335617980957031, 4.84765625) (0.00046289544677734375, 4.849609375) (0.000480148681640625, 4.8515625) (0.00048521533203125, 4.853515625) (0.0004783348388671875, 4.85546875) (0.00045962335205078125, 4.857421875) (0.00042991015624999995, 4.859375) (0.00039083435058593746, 4.861328125) (0.0003444415588378906, 4.86328125) (0.0002932726440429687, 4.865234375) (0.00023995016479492185, 4.8671875) (0.00018650546264648436, 4.869140625) (0.0001350384063720703, 4.87109375) (8.803327941894531e-05, 4.873046875) (4.739437866210937e-05, 4.875) (1.429299736022949e-05, 4.876953125) (-1.0917970657348632e-05, 4.87890625) (-2.890481948852539e-05, 4.880859375) (-4.0670623779296874e-05, 4.8828125) (-4.695642852783203e-05, 4.884765625) (-4.8841903686523435e-05, 4.88671875) (-4.798677825927734e-05, 4.888671875) (-4.597103500366211e-05, 4.890625) (-4.411928558349609e-05, 4.892578125) (-4.298542785644531e-05, 4.89453125) (-4.224751663208008e-05, 4.896484375) (-4.155824661254883e-05, 4.8984375) (-4.0951812744140626e-05, 4.900390625) (-4.0475761413574214e-05, 4.90234375) (-3.985000991821289e-05, 4.904296875) (-3.8636592864990236e-05, 4.90625) (-3.641287231445312e-05, 4.908203125) (-3.3333953857421875e-05, 4.91015625) (-3.0146944046020508e-05, 4.912109375) (-2.7442596435546875e-05, 4.9140625) (-2.534763717651367e-05, 4.916015625) (-2.3633064270019532e-05, 4.91796875) (-2.215920639038086e-05, 4.919921875) (-2.0999523162841797e-05, 4.921875) (-2.028672409057617e-05, 4.923828125) (-1.9899335861206055e-05, 4.92578125) (-1.9390844345092774e-05, 4.927734375) (-1.8418413162231443e-05, 4.9296875) (-1.699515151977539e-05, 4.931640625) (-1.547464942932129e-05, 4.93359375) (-1.4178150177001953e-05, 4.935546875) (-1.3237433433532714e-05, 4.9375) (-1.2677782058715819e-05, 4.939453125) (-1.2507572174072266e-05, 4.94140625) (-1.2856573104858397e-05, 4.943359375) (-1.3821758270263672e-05, 4.9453125) (-1.530681896209717e-05, 4.947265625) (-1.705465316772461e-05, 4.94921875) (-1.8814315795898437e-05, 4.951171875) (-2.043255615234375e-05, 4.953125) (-2.1847816467285154e-05, 4.955078125) (-2.3055204391479492e-05, 4.95703125) (-2.400569534301758e-05, 4.958984375) (-2.464480972290039e-05, 4.9609375) (-2.497104454040527e-05, 4.962890625) (-2.5014835357666014e-05, 4.96484375) (-2.482308006286621e-05, 4.966796875) (-2.4417051315307614e-05, 4.96875) (-2.3776506423950193e-05, 4.970703125) (-2.2874961853027342e-05, 4.97265625) (-2.1705768585205076e-05, 4.974609375) (-2.028533172607422e-05, 4.9765625) (-1.8648904800415037e-05, 4.978515625) (-1.6836177825927733e-05, 4.98046875) (-1.4878180503845214e-05, 4.982421875) (-1.2808198928833008e-05, 4.984375) (-1.0664254188537597e-05, 4.986328125) (-8.48572063446045e-06, 4.98828125) (-6.31779670715332e-06, 4.990234375) (-4.190639019012451e-06, 4.9921875) (-2.117467403411865e-06, 4.994140625) (-1.0949474573135375e-07, 4.99609375) (1.827260136604309e-06, 4.998046875) (3.680912971496582e-06, 5.0) (5.430328845977783e-06, 5.001953125) (7.062516212463378e-06, 5.00390625) (8.573564529418945e-06, 5.005859375) (9.961763381958007e-06, 5.0078125) (1.123088264465332e-05, 5.009765625) (1.238602066040039e-05, 5.01171875) (1.3428927421569824e-05, 5.013671875) (1.4368679046630859e-05, 5.015625) (1.5221089363098144e-05, 5.017578125) (1.6002986907958984e-05, 5.01953125) (1.6734718322753905e-05, 5.021484375) (1.7430768966674804e-05, 5.0234375) (1.8097862243652342e-05, 5.025390625) (1.8742446899414062e-05, 5.02734375) (1.9369709014892577e-05, 5.029296875) (1.9984745025634766e-05, 5.03125) (2.0594234466552733e-05, 5.033203125) (2.1201393127441407e-05, 5.03515625) (2.1805431365966796e-05, 5.037109375) (2.240749168395996e-05, 5.0390625) (2.3009948730468748e-05, 5.041015625) (2.361543846130371e-05, 5.04296875) (2.4228141784667966e-05, 5.044921875) (2.4849344253540037e-05, 5.046875) (2.5477239608764647e-05, 5.048828125) (2.611019706726074e-05, 5.05078125) (2.674622917175293e-05, 5.052734375) (2.7383903503417968e-05, 5.0546875) (2.8022953033447265e-05, 5.056640625) (2.866267395019531e-05, 5.05859375) (2.9301933288574217e-05, 5.060546875) (2.9940500259399414e-05, 5.0625) (3.057869529724121e-05, 5.064453125) (3.121723175048828e-05, 5.06640625) (3.1857337951660156e-05, 5.068359375) (3.249905776977539e-05, 5.0703125) (3.314115905761719e-05, 5.072265625) (3.378203201293945e-05, 5.07421875) (3.4419528961181636e-05, 5.076171875) (3.505123138427734e-05, 5.078125) (3.567465591430664e-05, 5.080078125) (3.628682327270508e-05, 5.08203125) (3.688439559936523e-05, 5.083984375) (3.7464393615722657e-05, 5.0859375) (3.8024188995361327e-05, 5.087890625) (3.856132507324219e-05, 5.08984375) (3.907356262207031e-05, 5.091796875) (3.9558517456054686e-05, 5.09375) (4.001363372802734e-05, 5.095703125) (4.043645095825195e-05, 5.09765625) (4.082456970214843e-05, 5.099609375) (4.117549133300781e-05, 5.1015625) (4.1486663818359373e-05, 5.103515625) (4.175551605224609e-05, 5.10546875) (4.197946929931641e-05, 5.107421875) (4.2156208038330074e-05, 5.109375) (4.228364562988281e-05, 5.111328125) (4.2359718322753905e-05, 5.11328125) (4.238235473632812e-05, 5.115234375) (4.234944152832031e-05, 5.1171875) (4.2258808135986326e-05, 5.119140625) (4.2108253479003904e-05, 5.12109375) (4.1895591735839844e-05, 5.123046875) (4.161844635009766e-05, 5.125) (4.1274353027343745e-05, 5.126953125) (4.086093521118164e-05, 5.12890625) (4.037601852416992e-05, 5.130859375) (3.981777191162109e-05, 5.1328125) (3.9184768676757814e-05, 5.134765625) (3.8475883483886716e-05, 5.13671875) (3.769029998779297e-05, 5.138671875) (3.682756423950195e-05, 5.140625) (3.588759994506836e-05, 5.142578125) (3.487067413330078e-05, 5.14453125) (3.377740097045898e-05, 5.146484375) (3.2608524322509763e-05, 5.1484375) (3.1364940643310544e-05, 5.150390625) (3.0047794342041016e-05, 5.15234375) (2.865848159790039e-05, 5.154296875) (2.7198770523071287e-05, 5.15625) (2.5670766830444334e-05, 5.158203125) (2.4076816558837888e-05, 5.16015625) (2.2419506072998046e-05, 5.162109375) (2.0701711654663087e-05, 5.1640625) (1.8926605224609373e-05, 5.166015625) (1.7097637176513672e-05, 5.16796875) (1.5218532562255858e-05, 5.169921875) (1.3293195724487303e-05, 5.171875) (1.1325754165649414e-05, 5.173828125) (9.320652008056641e-06, 5.17578125) (7.282715797424316e-06, 5.177734375) (5.217199802398681e-06, 5.1796875) (3.129791736602783e-06, 5.181640625) (1.0265445709228514e-06, 5.18359375) (-1.0861519575119018e-06, 5.185546875) (-3.2015814781188962e-06, 5.1875) (-5.312767505645752e-06, 5.189453125) (-7.412568092346191e-06, 5.19140625) (-9.493783950805663e-06, 5.193359375) (-1.1549308776855468e-05, 5.1953125) (-1.3572196960449218e-05, 5.197265625) (-1.5555648803710938e-05, 5.19921875) (-1.7493032455444335e-05, 5.201171875) (-1.9377922058105467e-05, 5.203125) (-2.1204113006591795e-05, 5.205078125) (-2.2965732574462888e-05, 5.20703125) (-2.4657249450683594e-05, 5.208984375) (-2.6273437499999997e-05, 5.2109375) (-2.7809404373168943e-05, 5.212890625) (-2.926063537597656e-05, 5.21484375) (-3.062303352355957e-05, 5.216796875) (-3.189299392700195e-05, 5.21875) (-3.3067359924316405e-05, 5.220703125) (-3.414334106445312e-05, 5.22265625) (-3.511846542358398e-05, 5.224609375) (-3.5990577697753905e-05, 5.2265625) (-3.6757850646972655e-05, 5.228515625) (-3.741882705688476e-05, 5.23046875) (-3.797246170043945e-05, 5.232421875) (-3.8418087005615234e-05, 5.234375) (-3.8755550384521484e-05, 5.236328125) (-3.8985267639160156e-05, 5.23828125) (-3.9108329772949215e-05, 5.240234375) (-3.912657928466797e-05, 5.2421875) (-3.904262924194336e-05, 5.244140625) (-3.8859764099121095e-05, 5.24609375) (-3.8581905364990235e-05, 5.248046875) (-3.821355056762695e-05, 5.25) (-3.7759723663330075e-05, 5.251953125) (-3.722595596313477e-05, 5.25390625) (-3.661820983886718e-05, 5.255859375) (-3.5942726135253904e-05, 5.2578125) (-3.5205959320068356e-05, 5.259765625) (-3.441463470458984e-05, 5.26171875) (-3.357570648193359e-05, 5.263671875) (-3.269638061523437e-05, 5.265625) (-3.178401947021484e-05, 5.267578125) (-3.084589195251465e-05, 5.26953125) (-2.9889118194580077e-05, 5.271484375) (-2.8920732498168943e-05, 5.2734375) (-2.794754600524902e-05, 5.275390625) (-2.6976165771484373e-05, 5.27734375) (-2.6012950897216796e-05, 5.279296875) (-2.5063861846923828e-05, 5.28125) (-2.413457489013672e-05, 5.283203125) (-2.3230745315551758e-05, 5.28515625) (-2.2357955932617185e-05, 5.287109375) (-2.1521774291992186e-05, 5.2890625) (-2.0727809906005857e-05, 5.291015625) (-1.99814395904541e-05, 5.29296875) (-1.928779411315918e-05, 5.294921875) (-1.8651760101318358e-05, 5.296875) (-1.8077707290649412e-05, 5.298828125) (-1.756938934326172e-05, 5.30078125) (-1.712991905212402e-05, 5.302734375) (-1.6761518478393554e-05, 5.3046875) (-1.646555519104004e-05, 5.306640625) (-1.6242795944213867e-05, 5.30859375) (-1.6093379974365235e-05, 5.310546875) (-1.6016891479492186e-05, 5.3125) (-1.6012489318847656e-05, 5.314453125) (-1.607868003845215e-05, 5.31640625) (-1.6213356018066406e-05, 5.318359375) (-1.641409683227539e-05, 5.3203125) (-1.6678054809570313e-05, 5.322265625) (-1.700177764892578e-05, 5.32421875) (-1.7381303787231446e-05, 5.326171875) (-1.7812021255493162e-05, 5.328125) (-1.8288803100585937e-05, 5.330078125) (-1.8806629180908202e-05, 5.33203125) (-1.9360595703125e-05, 5.333984375) (-1.994568634033203e-05, 5.3359375) (-2.055703544616699e-05, 5.337890625) (-2.119005012512207e-05, 5.33984375) (-2.1840307235717774e-05, 5.341796875) (-2.250396156311035e-05, 5.34375) (-2.3177494049072264e-05, 5.345703125) (-2.3856834411621093e-05, 5.34765625) (-2.4537574768066406e-05, 5.349609375) (-2.5215160369873046e-05, 5.3515625) (-2.5884504318237302e-05, 5.353515625) (-2.6540313720703123e-05, 5.35546875) (-2.717721366882324e-05, 5.357421875) (-2.7789260864257812e-05, 5.359375) (-2.8370697021484375e-05, 5.361328125) (-2.8917030334472653e-05, 5.36328125) (-2.9424631118774413e-05, 5.365234375) (-2.989100646972656e-05, 5.3671875) (-3.0315185546874997e-05, 5.369140625) (-3.069647407531738e-05, 5.37109375) (-3.103469276428223e-05, 5.373046875) (-3.1330795288085936e-05, 5.375) (-3.1585542678833006e-05, 5.376953125) (-3.1799484252929685e-05, 5.37890625) (-3.197357940673828e-05, 5.380859375) (-3.210726165771484e-05, 5.3828125) (-3.2198974609375e-05, 5.384765625) (-3.224952697753906e-05, 5.38671875) (-3.2260848999023434e-05, 5.388671875) (-3.223681640625e-05, 5.390625) (-3.218429565429687e-05, 5.392578125) (-3.210743713378906e-05, 5.39453125) (-3.200823974609375e-05, 5.396484375) (-3.189002227783203e-05, 5.3984375) (-3.175369644165039e-05, 5.400390625) (-3.1597007751464844e-05, 5.40234375) (-3.1415470123291015e-05, 5.404296875) (-3.119802093505859e-05, 5.40625) (-3.093136215209961e-05, 5.408203125) (-3.060899925231933e-05, 5.41015625) (-3.0227605819702147e-05, 5.412109375) (-2.978813934326172e-05, 5.4140625) (-2.9298852920532226e-05, 5.416015625) (-2.876543426513672e-05, 5.41796875) (-2.819424819946289e-05, 5.419921875) (-2.7595829010009765e-05, 5.421875) (-2.6975236892700194e-05, 5.423828125) (-2.6338085174560544e-05, 5.42578125) (-2.5692457199096677e-05, 5.427734375) (-2.503890228271484e-05, 5.4296875) (-2.437854766845703e-05, 5.431640625) (-2.3723745346069335e-05, 5.43359375) (-2.3093620300292966e-05, 5.435546875) (-2.2519229888916015e-05, 5.4375) (-2.2039060592651366e-05, 5.439453125) (-2.167629241943359e-05, 5.44140625) (-2.1444936752319336e-05, 5.443359375) (-2.1357448577880857e-05, 5.4453125) (-2.1414108276367187e-05, 5.447265625) (-2.161162185668945e-05, 5.44921875) (-2.1938795089721677e-05, 5.451171875) (-2.2363807678222656e-05, 5.453125) (-2.2855045318603515e-05, 5.455078125) (-2.3387739181518554e-05, 5.45703125) (-2.3936973571777344e-05, 5.458984375) (-2.4488075256347656e-05, 5.4609375) (-2.502811622619629e-05, 5.462890625) (-2.5523223876953125e-05, 5.46484375) (-2.592690086364746e-05, 5.466796875) (-2.6186649322509765e-05, 5.46875) (-2.624269676208496e-05, 5.470703125) (-2.6052263259887692e-05, 5.47265625) (-2.558567428588867e-05, 5.474609375) (-2.4804994583129882e-05, 5.4765625) (-2.368049049377441e-05, 5.478515625) (-2.219819641113281e-05, 5.48046875) (-2.036288261413574e-05, 5.482421875) (-1.8215972900390625e-05, 5.484375) (-1.5811400413513183e-05, 5.486328125) (-1.3190687179565428e-05, 5.48828125) (-1.0393211364746093e-05, 5.490234375) (-7.458094120025634e-06, 5.4921875) (-4.427953243255615e-06, 5.494140625) (-1.3721568584442139e-06, 5.49609375) (1.6235463619232178e-06, 5.498046875) (4.486260414123535e-06, 5.5) (7.1463518142700195e-06, 5.501953125) (9.541642189025878e-06, 5.50390625) (1.1618122100830077e-05, 5.505859375) (1.3300426483154297e-05, 5.5078125) (1.4510098457336425e-05, 5.509765625) (1.5193311691284179e-05, 5.51171875) (1.5320226669311524e-05, 5.513671875) (1.4896476745605468e-05, 5.515625) (1.3944698333740234e-05, 5.517578125) (1.2474538803100585e-05, 5.51953125) (1.0493690490722656e-05, 5.521484375) (8.027485847473145e-06, 5.5234375) (5.118566513061523e-06, 5.525390625) (1.8377974033355712e-06, 5.52734375) (-1.728634476661682e-06, 5.529296875) (-5.526874542236328e-06, 5.53125) (-9.517403602600097e-06, 5.533203125) (-1.3653682708740235e-05, 5.53515625) (-1.7879501342773437e-05, 5.537109375) (-2.209947967529297e-05, 5.5390625) (-2.620844268798828e-05, 5.541015625) (-3.012629699707031e-05, 5.54296875) (-3.379611587524414e-05, 5.544921875) (-3.718952178955078e-05, 5.546875) (-4.027389907836914e-05, 5.548828125) (-4.29859619140625e-05, 5.55078125) (-4.52595100402832e-05, 5.552734375) (-4.7045734405517575e-05, 5.5546875) (-4.832478332519531e-05, 5.556640625) (-4.914375305175781e-05, 5.55859375) (-4.954461669921875e-05, 5.560546875) (-4.94944953918457e-05, 5.5625) (-4.9001091003417964e-05, 5.564453125) (-4.8118270874023436e-05, 5.56640625) (-4.697145843505859e-05, 5.568359375) (-4.586820220947265e-05, 5.5703125) (-4.509825134277344e-05, 5.572265625) (-4.475588226318359e-05, 5.57421875) (-4.491296768188476e-05, 5.576171875) (-4.559550094604492e-05, 5.578125) (-4.667004013061523e-05, 5.580078125) (-4.808988952636718e-05, 5.58203125) (-4.96807632446289e-05, 5.583984375) (-5.087369155883789e-05, 5.5859375) (-5.114963150024414e-05, 5.587890625) (-5.022027587890625e-05, 5.58984375) (-4.791911697387695e-05, 5.591796875) (-4.449283981323242e-05, 5.59375) (-4.0523345947265624e-05, 5.595703125) (-3.634757614135742e-05, 5.59765625) (-3.2458770751953126e-05, 5.599609375) (-2.974687576293945e-05, 5.6015625) (-2.9026348114013672e-05, 5.603515625) (-3.113503837585449e-05, 5.60546875) (-3.666864013671875e-05, 5.607421875) (-4.543878936767578e-05, 5.609375) (-5.681063461303711e-05, 5.611328125) (-7.018795776367188e-05, 5.61328125) (-8.468650817871094e-05, 5.615234375) (-9.920367431640624e-05, 5.6171875) (-0.00011247605895996094, 5.619140625) (-0.000122627197265625, 5.62109375) (-0.00012786325073242186, 5.623046875) (-0.00012695010375976561, 5.625) (-0.00011884451293945312, 5.626953125) (-0.00010286370086669921, 5.62890625) (-7.860966491699219e-05, 5.630859375) (-4.5526649475097656e-05, 5.6328125) (-3.5502142906188963e-06, 5.634765625) (4.636355972290039e-05, 5.63671875) (0.00010291022491455077, 5.638671875) (0.00016439385986328125, 5.640625) (0.00022863998413085937, 5.642578125) (0.0002936954345703125, 5.64453125) (0.00035725323486328125, 5.646484375) (0.00041608108520507813, 5.6484375) (0.0004670863037109375, 5.650390625) (0.0005076210937499999, 5.65234375) (0.0005353341064453125, 5.654296875) (0.0005488323364257812, 5.65625) (0.0005474464721679687, 5.658203125) (0.0005306892700195312, 5.66015625) (0.0004991200561523438, 5.662109375) (0.00045483587646484374, 5.6640625) (0.0004006631469726562, 5.666015625) (0.00034008349609375, 5.66796875) (0.0002769161682128906, 5.669921875) (0.00021449227905273436, 5.671875) (0.0001559830780029297, 5.673828125) (0.00010448674774169921, 5.67578125) (6.223037719726563e-05, 5.677734375) (3.0141969680786132e-05, 5.6796875) (8.11404800415039e-06, 5.681640625) (-4.950756072998047e-06, 5.68359375) (-1.0762417793273925e-05, 5.685546875) (-1.1092607498168945e-05, 5.6875) (-7.978194236755371e-06, 5.689453125) (-3.6323697566986083e-06, 5.69140625) (5.400717258453369e-08, 5.693359375) (1.9203448295593263e-06, 5.6953125) (1.54558265209198e-06, 5.697265625) (-8.837392926216125e-07, 5.69921875) (-4.798450469970703e-06, 5.701171875) (-9.534687042236327e-06, 5.703125) (-1.4297758102416992e-05, 5.705078125) (-1.818387222290039e-05, 5.70703125) (-2.0398159027099608e-05, 5.708984375) (-2.0566322326660157e-05, 5.7109375) (-1.873991012573242e-05, 5.712890625) (-1.5243623733520507e-05, 5.71484375) (-1.0583288192749023e-05, 5.716796875) (-5.265796661376953e-06, 5.71875) (2.3354744911193846e-07, 5.720703125) (5.421378135681152e-06, 5.72265625) (9.856277465820312e-06, 5.724609375) (1.3294578552246093e-05, 5.7265625) (1.5667016983032227e-05, 5.728515625) (1.699769973754883e-05, 5.73046875) (1.738714027404785e-05, 5.732421875) (1.6923465728759764e-05, 5.734375) (1.5670310020446778e-05, 5.736328125) (1.3735514640808105e-05, 5.73828125) (1.125319766998291e-05, 5.740234375) (8.350017547607422e-06, 5.7421875) (5.156801223754883e-06, 5.744140625) (1.811073303222656e-06, 5.74609375) (-1.5505998134613036e-06, 5.748046875) (-4.783806800842285e-06, 5.75) (-7.748001098632813e-06, 5.751953125) (-1.0343578338623046e-05, 5.75390625) (-1.2506267547607421e-05, 5.755859375) (-1.4198274612426757e-05, 5.7578125) (-1.540932273864746e-05, 5.759765625) (-1.613520050048828e-05, 5.76171875) (-1.6377696990966796e-05, 5.763671875) (-1.61453800201416e-05, 5.765625) (-1.5446046829223632e-05, 5.767578125) (-1.4294060707092284e-05, 5.76953125) (-1.2713520050048828e-05, 5.771484375) (-1.0741323471069335e-05, 5.7734375) (-8.427661895751952e-06, 5.775390625) (-5.841272830963134e-06, 5.77734375) (-3.063495635986328e-06, 5.779296875) (-1.7170405387878418e-07, 5.78125) (2.762397289276123e-06, 5.783203125) (5.685380458831787e-06, 5.78515625) (8.563050270080566e-06, 5.787109375) (1.1372245788574219e-05, 5.7890625) (1.4101306915283203e-05, 5.791015625) (1.674510383605957e-05, 5.79296875) (1.9302936553955078e-05, 5.794921875) (2.1773132324218748e-05, 5.796875) (2.415081214904785e-05, 5.798828125) (2.6429338455200193e-05, 5.80078125) (2.8601455688476563e-05, 5.802734375) (3.066536712646484e-05, 5.8046875) (3.262475204467773e-05, 5.806640625) (3.449081420898437e-05, 5.80859375) (3.6281269073486325e-05, 5.810546875) (3.8012840270996095e-05, 5.8125) (3.970137786865234e-05, 5.814453125) (4.135880661010742e-05, 5.81640625) (4.2991825103759766e-05, 5.818359375) (4.4604286193847655e-05, 5.8203125) (4.619695663452148e-05, 5.822265625) (4.7767211914062495e-05, 5.82421875) (4.930998229980469e-05, 5.826171875) (5.082178878784179e-05, 5.828125) (5.230100631713867e-05, 5.830078125) (5.374808502197265e-05, 5.83203125) (5.516561126708984e-05, 5.833984375) (5.6555133819580074e-05, 5.8359375) (5.7917221069335934e-05, 5.837890625) (5.925154113769531e-05, 5.83984375) (6.055654907226562e-05, 5.841796875) (6.18305435180664e-05, 5.84375) (6.307150268554687e-05, 5.845703125) (6.427703857421875e-05, 5.84765625) (6.544486236572265e-05, 5.849609375) (6.657315063476562e-05, 5.8515625) (6.766058349609374e-05, 5.853515625) (6.870674896240234e-05, 5.85546875) (6.971209716796875e-05, 5.857421875) (7.067658233642578e-05, 5.859375) (7.159984588623046e-05, 5.861328125) (7.248118591308594e-05, 5.86328125) (7.331935119628906e-05, 5.865234375) (7.411307525634765e-05, 5.8671875) (7.48610610961914e-05, 5.869140625) (7.556165313720703e-05, 5.87109375) (7.621305847167968e-05, 5.873046875) (7.68136749267578e-05, 5.875) (7.736219787597656e-05, 5.876953125) (7.78576202392578e-05, 5.87890625) (7.82992706298828e-05, 5.880859375) (7.868659210205078e-05, 5.8828125) (7.901907348632812e-05, 5.884765625) (7.929644012451171e-05, 5.88671875) (7.951857757568359e-05, 5.888671875) (7.968550872802734e-05, 5.890625) (7.979737091064453e-05, 5.892578125) (7.985432434082031e-05, 5.89453125) (7.985652160644531e-05, 5.896484375) (7.980425262451172e-05, 5.8984375) (7.969796752929687e-05, 5.900390625) (7.953823089599609e-05, 5.90234375) (7.932579040527344e-05, 5.904296875) (7.906153869628905e-05, 5.90625) (7.874649047851563e-05, 5.908203125) (7.838189697265625e-05, 5.91015625) (7.796916198730469e-05, 5.912109375) (7.750973510742187e-05, 5.9140625) (7.700507354736328e-05, 5.916015625) (7.645652770996094e-05, 5.91796875) (7.586528015136719e-05, 5.919921875) (7.523243713378906e-05, 5.921875) (7.455894470214843e-05, 5.923828125) (7.384571075439453e-05, 5.92578125) (7.309357452392577e-05, 5.927734375) (7.23033218383789e-05, 5.9296875) (7.147570037841797e-05, 5.931640625) (7.061146545410156e-05, 5.93359375) (6.971137237548828e-05, 5.935546875) (6.877603149414062e-05, 5.9375) (6.7805908203125e-05, 5.939453125) (6.680132293701171e-05, 5.94140625) (6.576242065429688e-05, 5.943359375) (6.468922424316405e-05, 5.9453125) (6.358172607421875e-05, 5.947265625) (6.243986511230469e-05, 5.94921875) (6.126361846923828e-05, 5.951171875) (6.005303192138671e-05, 5.953125) (5.880825805664062e-05, 5.955078125) (5.752959060668945e-05, 5.95703125) (5.621746444702148e-05, 5.958984375) (5.487239837646484e-05, 5.9609375) (5.3494991302490235e-05, 5.962890625) (5.208596038818359e-05, 5.96484375) (5.064608001708984e-05, 5.966796875) (4.917625045776367e-05, 5.96875) (4.767752075195312e-05, 5.970703125) (4.6151126861572265e-05, 5.97265625) (4.4598529815673825e-05, 5.974609375) (4.302146911621094e-05, 5.9765625) (4.14219970703125e-05, 5.978515625) (3.980247497558594e-05, 5.98046875) (3.816558837890625e-05, 5.982421875) (3.651428985595703e-05, 5.984375) (3.485178756713867e-05, 5.986328125) (3.318146514892578e-05, 5.98828125) (3.1506874084472655e-05, 5.990234375) (2.9831684112548826e-05, 5.9921875) (2.8159679412841795e-05, 5.994140625) (2.6494739532470703e-05, 5.99609375) (2.4840858459472656e-05, 5.998046875) (2.3202125549316405e-05, 6.0) (2.158271026611328e-05, 6.001953125) (1.998684310913086e-05, 6.00390625) (1.841876983642578e-05, 6.005859375) (1.688267135620117e-05, 6.0078125) (1.538261604309082e-05, 6.009765625) (1.3922466278076171e-05, 6.01171875) (1.2505839347839355e-05, 6.013671875) (1.1136065483093262e-05, 6.015625) (9.816176414489745e-06, 6.017578125) (8.548906326293946e-06, 6.01953125) (7.336699485778808e-06, 6.021484375) (6.181733131408691e-06, 6.0234375) (5.085912704467773e-06, 6.025390625) (4.050874710083008e-06, 6.02734375) (3.077967405319214e-06, 6.029296875) (2.1682050228118896e-06, 6.03125) (1.322222352027893e-06, 6.033203125) (5.402189493179321e-07, 6.03515625) (-1.7808589339256285e-07, 6.037109375) (-8.334788680076599e-07, 6.0390625) (-1.427253484725952e-06, 6.041015625) (-1.9611867666244505e-06, 6.04296875) (-2.4375040531158446e-06, 6.044921875) (-2.8588318824768066e-06, 6.046875) (-3.2281394004821776e-06, 6.048828125) (-3.5486865043640134e-06, 6.05078125) (-3.823992967605591e-06, 6.052734375) (-4.057808399200439e-06, 6.0546875) (-4.254096984863281e-06, 6.056640625) (-4.417044639587402e-06, 6.05859375) (-4.551019668579101e-06, 6.060546875) (-4.660548210144043e-06, 6.0625) (-4.750287532806396e-06, 6.064453125) (-4.824973106384277e-06, 6.06640625) (-4.8893308639526365e-06, 6.068359375) (-4.947999954223632e-06, 6.0703125) (-5.005440711975097e-06, 6.072265625) (-5.065850734710693e-06, 6.07421875) (-5.133170127868652e-06, 6.076171875) (-5.211087226867675e-06, 6.078125) (-5.303026676177978e-06, 6.080078125) (-5.4121651649475096e-06, 6.08203125) (-5.541429042816162e-06, 6.083984375) (-5.693519592285156e-06, 6.0859375) (-5.870926380157471e-06, 6.087890625) (-6.075926780700683e-06, 6.08984375) (-6.3105411529541015e-06, 6.091796875) (-6.57645034790039e-06, 6.09375) (-6.874923706054687e-06, 6.095703125) (-7.2067794799804686e-06, 6.09765625) (-7.572379112243652e-06, 6.099609375) (-7.97164535522461e-06, 6.1015625) (-8.404075622558594e-06, 6.103515625) (-8.868783950805663e-06, 6.10546875) (-9.364503860473632e-06, 6.107421875) (-9.889625549316405e-06, 6.109375) (-1.0442291259765625e-05, 6.111328125) (-1.102045726776123e-05, 6.11328125) (-1.162187385559082e-05, 6.115234375) (-1.2244089126586914e-05, 6.1171875) (-1.2884429931640625e-05, 6.119140625) (-1.3539976119995116e-05, 6.12109375) (-1.4207700729370116e-05, 6.123046875) (-1.4884580612182617e-05, 6.125) (-1.556757354736328e-05, 6.126953125) (-1.6253646850585938e-05, 6.12890625) (-1.6939891815185548e-05, 6.130859375) (-1.762357711791992e-05, 6.1328125) (-1.830230712890625e-05, 6.134765625) (-1.8974103927612303e-05, 6.13671875) (-1.9637245178222656e-05, 6.138671875) (-2.0290132522583006e-05, 6.140625) (-2.093130874633789e-05, 6.142578125) (-2.155945587158203e-05, 6.14453125) (-2.21734561920166e-05, 6.146484375) (-2.2772384643554686e-05, 6.1484375) (-2.335543060302734e-05, 6.150390625) (-2.3921859741210936e-05, 6.15234375) (-2.4471082687377927e-05, 6.154296875) (-2.5002824783325193e-05, 6.15625) (-2.5517251968383786e-05, 6.158203125) (-2.6014965057373047e-05, 6.16015625) (-2.649691390991211e-05, 6.162109375) (-2.6964298248291015e-05, 6.1640625) (-2.741853332519531e-05, 6.166015625) (-2.7861186981201172e-05, 6.16796875) (-2.8294111251831055e-05, 6.169921875) (-2.871943664550781e-05, 6.171875) (-2.9139373779296875e-05, 6.173828125) (-2.9556121826171875e-05, 6.17578125) (-2.9971935272216795e-05, 6.177734375) (-3.0389186859130857e-05, 6.1796875) (-3.081043243408203e-05, 6.181640625) (-3.123849678039551e-05, 6.18359375) (-3.167612838745117e-05, 6.185546875) (-3.212563323974609e-05, 6.1875) (-3.258912658691406e-05, 6.189453125) (-3.306857681274414e-05, 6.19140625) (-3.356552124023437e-05, 6.193359375) (-3.4081092834472654e-05, 6.1953125) (-3.4615692138671876e-05, 6.197265625) (-3.516876220703125e-05, 6.19921875) (-3.573960876464844e-05, 6.201171875) (-3.632775497436523e-05, 6.203125) (-3.693265914916992e-05, 6.205078125) (-3.7553627014160154e-05, 6.20703125) (-3.81899299621582e-05, 6.208984375) (-3.884077453613281e-05, 6.2109375) (-3.950581359863281e-05, 6.212890625) (-4.018540573120117e-05, 6.21484375) (-4.087946701049804e-05, 6.216796875) (-4.15869140625e-05, 6.21875) (-4.2305572509765624e-05, 6.220703125) (-4.303225708007812e-05, 6.22265625) (-4.376350402832031e-05, 6.224609375) (-4.449564743041992e-05, 6.2265625) (-4.522446060180664e-05, 6.228515625) (-4.59450454711914e-05, 6.23046875) (-4.66520881652832e-05, 6.232421875) (-4.7340316772460934e-05, 6.234375) (-4.8006103515625e-05, 6.236328125) (-4.864770126342773e-05, 6.23828125) (-4.9262557983398435e-05, 6.240234375) (-4.984717178344726e-05, 6.2421875) (-5.039608001708984e-05, 6.244140625) (-5.090148162841797e-05, 6.24609375) (-5.135852813720703e-05, 6.248046875) (-5.176626586914062e-05, 6.25) (-5.212509536743164e-05, 6.251953125) (-5.2436237335205075e-05, 6.25390625) (-5.270257568359375e-05, 6.255859375) (-5.292985534667968e-05, 6.2578125) (-5.3129676818847656e-05, 6.259765625) (-5.332072448730469e-05, 6.26171875) (-5.35204849243164e-05, 6.263671875) (-5.374039840698242e-05, 6.265625) (-5.3984725952148435e-05, 6.267578125) (-5.425141143798828e-05, 6.26953125) (-5.4540275573730464e-05, 6.271484375) (-5.485250091552734e-05, 6.2734375) (-5.519029998779297e-05, 6.275390625) (-5.555581283569336e-05, 6.27734375) (-5.594342422485351e-05, 6.279296875) (-5.634497451782226e-05, 6.28125) (-5.6755836486816406e-05, 6.283203125) (-5.717473983764648e-05, 6.28515625) (-5.7597614288330073e-05, 6.287109375) (-5.8012226104736326e-05, 6.2890625) (-5.8393478393554685e-05, 6.291015625) (-5.870281982421875e-05, 6.29296875) (-5.890955352783203e-05, 6.294921875) (-5.900049972534179e-05, 6.296875) (-5.89777946472168e-05, 6.298828125) (-5.885556030273437e-05, 6.30078125) (-5.864844131469726e-05, 6.302734375) (-5.837592315673828e-05, 6.3046875) (-5.806387329101562e-05, 6.306640625) (-5.774821090698242e-05, 6.30859375) (-5.747734832763672e-05, 6.310546875) (-5.7292831420898437e-05, 6.3125) (-5.722489166259765e-05, 6.314453125) (-5.729626846313476e-05, 6.31640625) (-5.753462600708008e-05, 6.318359375) (-5.798281860351562e-05, 6.3203125) (-5.869921112060547e-05, 6.322265625) (-5.9753456115722654e-05, 6.32421875) (-6.119854736328125e-05, 6.326171875) (-6.306330871582031e-05, 6.328125) (-6.53575439453125e-05, 6.330078125) (-6.807518005371093e-05, 6.33203125) (-7.12000274658203e-05, 6.333984375) (-7.469523620605469e-05, 6.3359375) (-7.850527954101561e-05, 