(-3.239269256591797e-05, 0.0) (-3.4505393981933594e-05, 0.001953125) (-3.678769302368164e-05, 0.00390625) (-3.921649169921875e-05, 0.005859375) (-4.177383422851562e-05, 0.0078125) (-4.4444259643554686e-05, 0.009765625) (-4.721029663085937e-05, 0.01171875) (-5.0055469512939454e-05, 0.013671875) (-5.296071243286132e-05, 0.015625) (-5.5904045104980466e-05, 0.017578125) (-5.887193298339844e-05, 0.01953125) (-6.185873794555663e-05, 0.021484375) (-6.486189270019531e-05, 0.0234375) (-6.788388061523437e-05, 0.025390625) (-7.0930908203125e-05, 0.02734375) (-7.401099395751953e-05, 0.029296875) (-7.714261627197265e-05, 0.03125) (-8.035364532470702e-05, 0.033203125) (-8.366505432128906e-05, 0.03515625) (-8.708978271484375e-05, 0.037109375) (-9.062997436523437e-05, 0.0390625) (-9.427378845214843e-05, 0.041015625) (-9.800110626220703e-05, 0.04296875) (-0.00010178221893310546, 0.044921875) (-0.00010558406829833984, 0.046875) (-0.00010937338256835937, 0.048828125) (-0.00011310443878173827, 0.05078125) (-0.00011672071075439453, 0.052734375) (-0.00012016204833984374, 0.0546875) (-0.00012336365509033203, 0.056640625) (-0.0001262639923095703, 0.05859375) (-0.00012880764770507812, 0.060546875) (-0.00013092649841308594, 0.0625) (-0.000132538818359375, 0.064453125) (-0.0001335686492919922, 0.06640625) (-0.00013394815063476562, 0.068359375) (-0.00013362399291992188, 0.0703125) (-0.0001325616455078125, 0.072265625) (-0.00013074440002441406, 0.07421875) (-0.0001281746826171875, 0.076171875) (-0.0001248658981323242, 0.078125) (-0.00012084115600585937, 0.080078125) (-0.00011614045715332031, 0.08203125) (-0.0001108168716430664, 0.083984375) (-0.00010492863464355468, 0.0859375) (-9.853969573974609e-05, 0.087890625) (-9.170391845703124e-05, 0.08984375) (-8.446299743652344e-05, 0.091796875) (-7.687615966796875e-05, 0.09375) (-6.901979064941406e-05, 0.095703125) (-6.0977348327636716e-05, 0.09765625) (-5.283879852294922e-05, 0.099609375) (-4.468946838378906e-05, 0.1015625) (-3.6607635498046876e-05, 0.103515625) (-2.8657152175903318e-05, 0.10546875) (-2.0885000228881835e-05, 0.107421875) (-1.332725143432617e-05, 0.109375) (-6.00852346420288e-06, 0.111328125) (1.0589349269866943e-06, 0.11328125) (7.871649265289306e-06, 0.115234375) (1.4427238464355468e-05, 0.1171875) (2.0725961685180663e-05, 0.119140625) (2.6752254486083984e-05, 0.12109375) (3.247304916381836e-05, 0.123046875) (3.787001037597656e-05, 0.125) (4.293892669677734e-05, 0.126953125) (4.7692260742187495e-05, 0.12890625) (5.216041564941406e-05, 0.130859375) (5.638047790527343e-05, 0.1328125) (6.039537811279297e-05, 0.134765625) (6.424072265625e-05, 0.13671875) (6.794381713867187e-05, 0.138671875) (7.152449035644531e-05, 0.140625) (7.499303436279297e-05, 0.142578125) (7.8353759765625e-05, 0.14453125) (8.160636901855468e-05, 0.146484375) (8.475222015380859e-05, 0.1484375) (8.779362487792968e-05, 0.150390625) (9.07483901977539e-05, 0.15234375) (9.364973449707031e-05, 0.154296875) (9.652455139160155e-05, 0.15625) (9.939274597167968e-05, 0.158203125) (0.00010225823974609374, 0.16015625) (0.00010511039733886719, 0.162109375) (0.00010792956542968749, 0.1640625) (0.00011068765258789062, 0.166015625) (0.00011336248779296874, 0.16796875) (0.00011593365478515625, 0.169921875) (0.00011838342285156249, 0.171875) (0.00012070169067382812, 0.173828125) (0.0001228811340332031, 0.17578125) (0.0001249152374267578, 0.177734375) (0.0001267982635498047, 0.1796875) (0.00012852105712890625, 0.181640625) (0.000130060791015625, 0.18359375) (0.00013138969421386718, 0.185546875) (0.00013248081970214842, 0.1875) (0.0001333100891113281, 0.189453125) (0.00013386767578125, 0.19140625) (0.00013415032958984373, 0.193359375) (0.00013416265869140625, 0.1953125) (0.00013391868591308592, 0.197265625) (0.00013342692565917967, 0.19921875) (0.00013269764709472655, 0.201171875) (0.00013175158691406248, 0.203125) (0.00013060934448242187, 0.205078125) (0.0001292953643798828, 0.20703125) (0.0001278462905883789, 0.208984375) (0.00012629547119140624, 0.2109375) (0.0001246834716796875, 0.212890625) (0.0001230737762451172, 0.21484375) (0.00012153018188476561, 0.216796875) (0.00012011798095703125, 0.21875) (0.00011890380859374999, 0.220703125) (0.00011793755340576172, 0.22265625) (0.00011726166534423828, 0.224609375) (0.00011691311645507812, 0.2265625) (0.00011691329956054687, 0.228515625) (0.00011728344726562499, 0.23046875) (0.00011804225158691405, 0.232421875) (0.00011917655944824218, 0.234375) (0.00012065728759765624, 0.236328125) (0.0001224361572265625, 0.23828125) (0.0001244266815185547, 0.240234375) (0.00012654640197753907, 0.2421875) (0.00012870338439941405, 0.244140625) (0.0001307669219970703, 0.24609375) (0.00013260116577148436, 0.248046875) (0.00013405807495117187, 0.25) (0.00013496971130371092, 0.251953125) (0.00013518649291992187, 0.25390625) (0.00013457617187499998, 0.255859375) (0.00013300442504882813, 0.2578125) (0.00013036985778808592, 0.259765625) (0.000126565673828125, 0.26171875) (0.00012145951080322265, 0.263671875) (0.00011502075958251953, 0.265625) (0.00010730826568603515, 0.267578125) (9.847682189941406e-05, 0.26953125) (8.882552337646484e-05, 0.271484375) (7.86426773071289e-05, 0.2734375) (6.817528533935546e-05, 0.275390625) (5.7764434814453124e-05, 0.27734375) (4.781755447387695e-05, 0.279296875) (3.8638744354248044e-05, 0.28125) (3.04350471496582e-05, 0.283203125) (2.3148948669433593e-05, 0.28515625) (1.6392213821411133e-05, 0.287109375) (9.81389045715332e-06, 0.2890625) (3.1086680889129637e-06, 0.291015625) (-4.004801750183106e-06, 0.29296875) (-1.1645092010498046e-05, 0.294921875) (-1.9915039062499998e-05, 0.296875) (-2.8824378967285155e-05, 0.298828125) (-3.7793876647949215e-05, 0.30078125) (-4.578135681152344e-05, 0.302734375) (-5.090978240966797e-05, 0.3046875) (-5.0288742065429683e-05, 0.306640625) (-4.171369171142578e-05, 0.30859375) (-2.42359619140625e-05, 0.310546875) (9.045829772949218e-07, 0.3125) (2.9798580169677733e-05, 0.314453125) (5.91136245727539e-05, 0.31640625) (8.919024658203125e-05, 0.318359375) (0.00012485247802734373, 0.3203125) (0.00017401473999023438, 0.322265625) (0.00024365228271484374, 0.32421875) (0.0003326378479003906, 0.326171875) (0.0004295191650390625, 0.328125) (0.00051768310546875, 0.330078125) (0.0005786871948242188, 0.33203125) (0.0006002667846679687, 0.333984375) (0.0005828616943359374, 0.3359375) (0.000532724365234375, 0.337890625) (0.00046005325317382813, 0.33984375) (0.000377902099609375, 0.341796875) (0.0002936514892578125, 0.34375) (0.0002142582092285156, 0.345703125) (0.00014819924926757813, 0.34765625) (9.73368682861328e-05, 0.349609375) (6.22133445739746e-05, 0.3515625) (4.028412628173828e-05, 0.353515625) (2.2912378311157225e-05, 0.35546875) (5.883769035339355e-06, 0.357421875) (-1.1870279312133789e-05, 0.359375) (-2.9971664428710935e-05, 0.361328125) (-4.453218841552734e-05, 0.36328125) (-5.4509643554687496e-05, 0.365234375) (-6.180729293823241e-05, 0.3671875) (-6.850177001953125e-05, 0.369140625) (-7.70347900390625e-05, 0.37109375) (-8.826168823242187e-05, 0.373046875) (-0.00010150663757324218, 0.375) (-0.00011599165344238281, 0.376953125) (-0.00013086050415039063, 0.37890625) (-0.00014535464477539062, 0.380859375) (-0.00015878549194335936, 0.3828125) (-0.00017037844848632813, 0.384765625) (-0.00017970916748046874, 0.38671875) (-0.00018675164794921875, 0.388671875) (-0.00019168988037109375, 0.390625) (-0.00019487686157226562, 0.392578125) (-0.00019666587829589844, 0.39453125) (-0.00019737789916992186, 0.396484375) (-0.00019740682983398437, 0.3984375) (-0.0001971773223876953, 0.400390625) (-0.0001969695587158203, 0.40234375) (-0.00019694570922851562, 0.404296875) (-0.00019720252990722655, 0.40625) (-0.00019775401306152342, 0.408203125) (-0.0001986207275390625, 0.41015625) (-0.00019982402038574217, 0.412109375) (-0.0002013262023925781, 0.4140625) (-0.00020306329345703123, 0.416015625) (-0.00020498564147949217, 0.41796875) (-0.00020705137634277344, 0.419921875) (-0.00020922598266601562, 0.421875) (-0.00021148492431640625, 0.423828125) (-0.00021378758239746094, 0.42578125) (-0.00021608644104003906, 0.427734375) (-0.00021835206604003905, 0.4296875) (-0.00022056491088867186, 0.431640625) (-0.00022269801330566404, 0.43359375) (-0.00022470227050781248, 0.435546875) (-0.00022650781249999998, 0.4375) (-0.00022803988647460935, 0.439453125) (-0.00022923423767089843, 0.44140625) (-0.00023005772399902342, 0.443359375) (-0.0002304993896484375, 0.4453125) (-0.00023055751037597656, 0.447265625) (-0.00023024243164062499, 0.44921875) (-0.0002295697326660156, 0.451171875) (-0.00022856454467773437, 0.453125) (-0.00022726176452636719, 0.455078125) (-0.00022569078063964843, 0.45703125) (-0.00022387139892578124, 0.458984375) (-0.000221810546875, 0.4609375) (-0.00021950219726562498, 0.462890625) (-0.00021694882202148437, 0.46484375) (-0.00021417640686035157, 0.466796875) (-0.0002112245635986328, 0.46875) (-0.00020814303588867188, 0.470703125) (-0.00020498683166503905, 0.47265625) (-0.00020179388427734373, 0.474609375) (-0.00019859263610839842, 0.4765625) (-0.00019541165161132812, 0.478515625) (-0.0001922678985595703, 0.48046875) (-0.0001891717834472656, 0.482421875) (-0.00018612754821777344, 0.484375) (-0.00018312911987304687, 0.486328125) (-0.00018017149353027342, 0.48828125) (-0.00017725808715820312, 0.490234375) (-0.00017439900207519532, 0.4921875) (-0.000171611083984375, 0.494140625) (-0.0001689086456298828, 0.49609375) (-0.00016629345703125, 0.498046875) (-0.00016376060485839844, 0.5) (-0.00016129876708984375, 0.501953125) (-0.00015888973999023437, 0.50390625) (-0.0001565197296142578, 0.505859375) (-0.00015417617797851562, 0.5078125) (-0.00015184310913085938, 0.509765625) (-0.00014950953674316406, 0.51171875) (-0.00014716827392578124, 0.513671875) (-0.00014481408691406248, 0.515625) (-0.00014244715881347656, 0.517578125) (-0.0001400691680908203, 0.51953125) (-0.0001376771240234375, 0.521484375) (-0.00013526531982421873, 0.5234375) (-0.00013282627868652343, 0.525390625) (-0.00013035107421875, 0.52734375) (-0.00012783328247070313, 0.529296875) (-0.00012526808166503906, 0.53125) (-0.00012265123748779296, 0.533203125) (-0.00011998055267333983, 0.53515625) (-0.00011725422668457031, 0.537109375) (-0.00011447115325927733, 0.5390625) (-0.00011163197326660156, 0.541015625) (-0.000108737060546875, 0.54296875) (-0.00010578569030761718, 0.544921875) (-0.00010277704620361328, 0.546875) (-9.970921325683593e-05, 0.548828125) (-9.657955932617187e-05, 0.55078125) (-9.33868408203125e-05, 0.552734375) (-9.0130615234375e-05, 0.5546875) (-8.68106460571289e-05, 0.556640625) (-8.342790985107422e-05, 0.55859375) (-7.998387145996094e-05, 0.560546875) (-7.64803466796875e-05, 0.5625) (-7.292012786865234e-05, 0.564453125) (-6.930667877197265e-05, 0.56640625) (-6.5643310546875e-05, 0.568359375) (-6.19334602355957e-05, 0.5703125) (-5.818075180053711e-05, 0.572265625) (-5.438877105712891e-05, 0.57421875) (-5.0561523437499995e-05, 0.576171875) (-4.670344543457031e-05, 0.578125) (-4.281916809082031e-05, 0.580078125) (-3.891365051269531e-05, 0.58203125) (-3.49921989440918e-05, 0.583984375) (-3.106038665771484e-05, 0.5859375) (-2.7124090194702147e-05, 0.587890625) (-2.318945503234863e-05, 0.58984375) (-1.9262733459472654e-05, 0.591796875) (-1.5350303649902342e-05, 0.59375) (-1.1458534240722656e-05, 0.595703125) (-7.593726634979248e-06, 0.59765625) (-3.762167692184448e-06, 0.599609375) (2.9901742935180664e-08, 0.6015625) (3.7763435840606686e-06, 0.603515625) (7.4710621833801264e-06, 0.60546875) (1.1107996940612793e-05, 0.607421875) (1.4681206703186035e-05, 0.609375) (1.8184810638427733e-05, 0.611328125) (2.1612953186035157e-05, 0.61328125) (2.4959976196289063e-05, 0.615234375) (2.8220355987548827e-05, 0.6171875) (3.13886604309082e-05, 0.619140625) (3.4459701538085934e-05, 0.62109375) (3.742853546142578e-05, 0.623046875) (4.02904052734375e-05, 0.625) (4.3040859222412106e-05, 0.626953125) (4.567569732666015e-05, 0.62890625) (4.819081878662109e-05, 0.630859375) (5.058231735229492e-05, 0.6328125) (5.284652328491211e-05, 0.634765625) (5.498001861572266e-05, 0.63671875) (5.6979675292968745e-05, 0.638671875) (5.8842750549316406e-05, 0.640625) (6.056679153442382e-05, 0.642578125) (6.214970397949219e-05, 0.64453125) (6.358982849121093e-05, 0.646484375) (6.488593292236328e-05, 0.6484375) (6.603719329833984e-05, 0.650390625) (6.704326629638672e-05, 0.65234375) (6.790412902832031e-05, 0.654296875) (6.862017822265624e-05, 0.65625) (6.91921615600586e-05, 0.658203125) (6.962126922607422e-05, 0.66015625) (6.990910339355469e-05, 0.662109375) (7.005775451660157e-05, 0.6640625) (7.006965637207031e-05, 0.666015625) (6.994766998291015e-05, 0.66796875) (6.9695068359375e-05, 0.669921875) (6.931555175781249e-05, 0.671875) (6.881323242187499e-05, 0.673828125) (6.819264221191406e-05, 0.67578125) (6.745867919921875e-05, 0.677734375) (6.661659240722656e-05, 0.6796875) (6.567204284667969e-05, 0.681640625) (6.463114166259765e-05, 0.68359375) (6.350037384033203e-05, 0.685546875) (6.22866439819336e-05, 0.6875) (6.0997238159179686e-05, 0.689453125) (5.963978576660156e-05, 0.69140625) (5.822227096557617e-05, 0.693359375) (5.6753017425537105e-05, 0.6953125) (5.524066925048828e-05, 0.697265625) (5.369409942626953e-05, 0.69921875) (5.212239837646484e-05, 0.701171875) (5.053479766845703e-05, 0.703125) (4.894072723388672e-05, 0.705078125) (4.7349777221679685e-05, 0.70703125) (4.577165985107422e-05, 0.708984375) (4.421620941162109e-05, 0.7109375) (4.2693267822265626e-05, 0.712890625) (4.1212726593017575e-05, 0.71484375) (3.978446197509765e-05, 0.716796875) (3.84183349609375e-05, 0.71875) (3.712409973144531e-05, 0.720703125) (3.591136932373047e-05, 0.72265625) (3.478948593139648e-05, 0.724609375) (3.3767517089843746e-05, 0.7265625) (3.285420227050781e-05, 0.728515625) (3.205792999267578e-05, 0.73046875) (3.138667869567871e-05, 0.732421875) (3.084791564941406e-05, 0.734375) (3.0448545455932616e-05, 0.736328125) (3.0194869995117186e-05, 0.73828125) (3.0092542648315428e-05, 0.740234375) (3.0146541595458984e-05, 0.7421875) (3.0361093521118163e-05, 0.744140625) (3.073961639404297e-05, 0.74609375) (3.1284671783447264e-05, 0.748046875) (3.199795150756836e-05, 0.75) (3.2880302429199214e-05, 0.751953125) (3.393172454833984e-05, 0.75390625) (3.515135955810547e-05, 0.755859375) (3.6537487030029295e-05, 0.7578125) (3.808750534057617e-05, 0.759765625) (3.979798126220703e-05, 0.76171875) (4.166465377807617e-05, 0.763671875) (4.368244934082031e-05, 0.765625) (4.58454475402832e-05, 0.767578125) (4.814686965942382e-05, 0.76953125) (5.057909774780273e-05, 0.771484375) (5.313365936279296e-05, 0.7734375) (5.580130767822265e-05, 0.775390625) (5.857204437255859e-05, 0.77734375) (6.143509674072265e-05, 0.779296875) (6.437903594970703e-05, 0.78125) (6.739178466796875e-05, 0.783203125) (7.046070098876953e-05, 0.78515625) (7.357271575927733e-05, 0.787109375) (7.671436309814453e-05, 0.7890625) (7.987188720703125e-05, 0.791015625) (8.303134155273438e-05, 0.79296875) (8.61785888671875e-05, 0.794921875) (8.929956817626953e-05, 0.796875) (9.238032531738281e-05, 0.798828125) (9.540709686279296e-05, 0.80078125) (9.836647033691406e-05, 0.802734375) (0.00010124539184570313, 0.8046875) (0.00010403131866455078, 0.806640625) (0.00010671231842041015, 0.80859375) (0.00010927710723876953, 0.810546875) (0.00011171508789062499, 0.8125) (0.00011401641082763671, 0.814453125) (0.00011617196655273437, 0.81640625) (0.00011817340850830078, 0.818359375) (0.00012001322937011718, 0.8203125) (0.00012168472290039061, 0.822265625) (0.00012318206787109376, 0.82421875) (0.0001245002670288086, 0.826171875) (0.00012563524627685546, 0.828125) (0.00012658385467529296, 0.830078125) (0.00012734391021728515, 0.83203125) (0.00012791427612304687, 0.833984375) (0.0001282947998046875, 0.8359375) (0.00012848638916015625, 0.837890625) (0.000128490966796875, 0.83984375) (0.0001283114776611328, 0.841796875) (0.00012795192718505858, 0.84375) (0.00012741726684570312, 0.845703125) (0.00012671339416503905, 0.84765625) (0.00012584709167480469, 0.849609375) (0.00012482592010498047, 0.8515625) (0.00012365821075439453, 0.853515625) (0.0001223529510498047, 0.85546875) (0.00012091969299316406, 0.857421875) (0.00011936845397949218, 0.859375) (0.00011770956420898436, 0.861328125) (0.00011595370483398437, 0.86328125) (0.00011411164855957031, 0.865234375) (0.00011219429016113281, 0.8671875) (0.0001102125015258789, 0.869140625) (0.00010817704772949218, 0.87109375) (0.00010609855651855468, 0.873046875) (0.00010398753356933594, 0.875) (0.000101854248046875, 0.876953125) (9.970867919921875e-05, 0.87890625) (9.756057739257812e-05, 0.880859375) (9.541932678222655e-05, 0.8828125) (9.329405212402343e-05, 0.884765625) (9.11935577392578e-05, 0.88671875) (8.912630462646484e-05, 0.888671875) (8.710040283203124e-05, 0.890625) (8.51235122680664e-05, 0.892578125) (8.320278930664062e-05, 0.89453125) (8.134497070312499e-05, 0.896484375) (7.955632019042968e-05, 0.8984375) (7.784255218505859e-05, 0.900390625) (7.620880126953125e-05, 0.90234375) (7.465958404541016e-05, 0.904296875) (7.319874572753906e-05, 0.90625) (7.182955932617188e-05, 0.908203125) (7.05548095703125e-05, 0.91015625) (6.9376708984375e-05, 0.912109375) (6.829690551757813e-05, 0.9140625) (6.731657409667969e-05, 0.916015625) (6.643641662597656e-05, 0.91796875) (6.565681457519531e-05, 0.919921875) (6.497797393798828e-05, 0.921875) (6.43997802734375e-05, 0.923828125) (6.392184448242187e-05, 0.92578125) (6.354357910156249e-05, 0.927734375) (6.326420593261719e-05, 0.9296875) (6.308290100097656e-05, 0.931640625) (6.299885559082032e-05, 0.93359375) (6.301106262207031e-05, 0.935546875) (6.311831283569336e-05, 0.9375) (6.331936645507812e-05, 0.939453125) (6.361296463012696e-05, 0.94140625) (6.399797058105469e-05, 0.943359375) (6.447335815429687e-05, 0.9453125) (6.503797912597655e-05, 0.947265625) (6.569053649902343e-05, 0.94921875) (6.642970275878907e-05, 0.951171875) (6.725409698486327e-05, 0.953125) (6.81623306274414e-05, 0.955078125) (6.915306091308593e-05, 0.95703125) (7.022466278076172e-05, 0.958984375) (7.137525939941406e-05, 0.9609375) (7.260289001464844e-05, 0.962890625) (7.3905517578125e-05, 0.96484375) (7.528123474121094e-05, 0.966796875) (7.67283477783203e-05, 0.96875) (7.82450942993164e-05, 0.970703125) (7.98294677734375e-05, 0.97265625) (8.147947692871093e-05, 0.974609375) (8.3193115234375e-05, 0.9765625) (8.496832275390625e-05, 0.978515625) (8.680311584472655e-05, 0.98046875) (8.869518280029296e-05, 0.982421875) (9.06416778564453e-05, 0.984375) (9.263961791992187e-05, 0.986328125) (9.468611145019531e-05, 0.98828125) (9.67780532836914e-05, 0.990234375) (9.891221618652343e-05, 0.9921875) (0.00010108543395996093, 0.994140625) (0.00010329423522949218, 0.99609375) (0.00010553553771972656, 0.998046875) (0.00010780699157714844, 1.0) (0.00011010585021972656, 1.001953125) (0.00011242899322509766, 1.00390625) (0.00011477346801757812, 1.005859375) (0.00011713578796386718, 1.0078125) (0.0001195125732421875, 1.009765625) (0.000121900634765625, 1.01171875) (0.00012429511260986326, 1.013671875) (0.00012669036865234375, 1.015625) (0.00012908152770996093, 1.017578125) (0.00013146400451660156, 1.01953125) (0.00013383486938476561, 1.021484375) (0.00013619314575195312, 1.0234375) (0.00013853741455078125, 1.025390625) (0.0001408666076660156, 1.02734375) (0.00014318151855468748, 1.029296875) (0.00014548283386230467, 1.03125) (0.00014777279663085938, 1.033203125) (0.0001500552978515625, 1.03515625) (0.00015233013916015624, 1.037109375) (0.00015459530639648438, 1.0390625) (0.00015684994506835937, 1.041015625) (0.00015909292602539062, 1.04296875) (0.0001613295135498047, 1.044921875) (0.00016356973266601563, 1.046875) (0.00016581874084472655, 1.048828125) (0.0001680779113769531, 1.05078125) (0.00017034774780273437, 1.052734375) (0.00017262586975097654, 1.0546875) (0.00017491111755371094, 1.056640625) (0.00017720321655273437, 1.05859375) (0.00017949053955078125, 1.060546875) (0.00018175453186035156, 1.0625) (0.00018397616577148438, 1.064453125) (0.00018613671875, 1.06640625) (0.00018823216247558592, 1.068359375) (0.000190268310546875, 1.0703125) (0.00019225132751464843, 1.072265625) (0.000194187255859375, 1.07421875) (0.0001960714874267578, 1.076171875) (0.00019789810180664063, 1.078125) (0.00019967149353027343, 1.080078125) (0.00020140605163574218, 1.08203125) (0.00020312834167480467, 1.083984375) (0.0002048639678955078, 1.0859375) (0.00020662905883789062, 1.087890625) (0.00020844320678710938, 1.08984375) (0.0002103388671875, 1.091796875) (0.00021235166931152344, 1.09375) (0.0002145536651611328, 1.095703125) (0.00021701132202148437, 1.09765625) (0.00021968609619140624, 1.099609375) (0.00022253610229492187, 1.1015625) (0.00022551138305664062, 1.103515625) (0.000228536865234375, 1.10546875) (0.00023166465759277342, 1.107421875) (0.00023496582031249999, 1.109375) (0.00023834658813476562, 1.111328125) (0.00024170507812499998, 1.11328125) (0.00024509341430664064, 1.115234375) (0.00024850843811035153, 1.1171875) (0.0002520281524658203, 1.119140625) (0.0002557721252441406, 1.12109375) (0.0002594580078125, 1.123046875) (0.0002627630615234375, 1.125) (0.0002656087036132812, 1.126953125) (0.00026787918090820313, 1.12890625) (0.00026937445068359376, 1.130859375) (0.00027000137329101563, 1.1328125) (0.00026949462890625, 1.134765625) (0.0002675693664550781, 1.13671875) (0.0002645195617675781, 1.138671875) (0.0002606868591308594, 1.140625) (0.0002562116088867187, 1.142578125) (0.0002513220520019531, 1.14453125) (0.00024622105407714844, 1.146484375) (0.00024106259155273437, 1.1484375) (0.00023620310974121093, 1.150390625) (0.00023200042724609373, 1.15234375) (0.00022830570983886717, 1.154296875) (0.00022487403869628905, 1.15625) (0.00022166664123535155, 1.158203125) (0.00021869703674316405, 1.16015625) (0.00021613150024414062, 1.162109375) (0.00021418809509277342, 1.1640625) (0.0002129353485107422, 1.166015625) (0.00021238656616210936, 1.16796875) (0.0002128883361816406, 1.169921875) (0.00021498001098632812, 1.171875) (0.00021885202026367186, 1.173828125) (0.0002243764953613281, 1.17578125) (0.00023111639404296873, 1.177734375) (0.0002383448486328125, 1.1796875) (0.0002454286193847656, 1.181640625) (0.00025188626098632814, 1.18359375) (0.0002569651489257812, 1.185546875) (0.0002596939086914062, 1.1875) (0.0002595392456054687, 1.189453125) (0.0002563258056640625, 1.19140625) (0.0002502325286865234, 1.193359375) (0.00024196255493164062, 1.1953125) (0.0002321063537597656, 1.197265625) (0.0002211076202392578, 1.19921875) (0.0002097756652832031, 1.201171875) (0.00019902516174316405, 1.203125) (0.0001894157257080078, 1.205078125) (0.00018138873291015625, 1.20703125) (0.0001751586456298828, 1.208984375) (0.00017046076965332031, 1.2109375) (0.00016716680908203125, 1.212890625) (0.0001650960998535156, 1.21484375) (0.00016351623535156248, 1.216796875) (0.00016178253173828124, 1.21875) (0.00015962022399902342, 1.220703125) (0.0001566609649658203, 1.22265625) (0.00015257110595703123, 1.224609375) (0.00014740350341796874, 1.2265625) (0.00014130184936523438, 1.228515625) (0.00013566702270507812, 1.23046875) (0.0001335265197753906, 1.232421875) (0.00013743406677246093, 1.234375) (0.00014855859374999998, 1.236328125) (0.00016517257690429687, 1.23828125) (0.00018399732971191406, 1.240234375) (0.00020319779968261718, 1.2421875) (0.00022382699584960937, 1.244140625) (0.0002526195373535156, 1.24609375) (0.00029691949462890623, 1.248046875) (0.00036116540527343747, 1.25) (0.0004466020812988281, 1.251953125) (0.0005446831665039063, 1.25390625) (0.0006429586181640625, 1.255859375) (0.0007288558349609375, 1.2578125) (0.0007866119384765625, 1.259765625) (0.0008078891601562499, 1.26171875) (0.00079047607421875, 1.263671875) (0.0007353377685546874, 1.265625) (0.0006554551391601563, 1.267578125) (0.0005660073242187499, 1.26953125) (0.0004806600952148437, 1.271484375) (0.0004143809814453125, 1.2734375) (0.0003705244750976562, 1.275390625) (0.00034523376464843747, 1.27734375) (0.00033278656005859375, 1.279296875) (0.00032218798828125, 1.28125) (0.00030816580200195313, 1.283203125) (0.00029133566284179685, 1.28515625) (0.00027327474975585934, 1.287109375) (0.00025846710205078125, 1.2890625) (0.00024866998291015623, 1.291015625) (0.00024185784912109375, 1.29296875) (0.00023563043212890624, 1.294921875) (0.0002274049072265625, 1.296875) (0.00021612692260742185, 1.298828125) (0.0002023732452392578, 1.30078125) (0.00018705064392089842, 1.302734375) (0.00017115911865234375, 1.3046875) (0.00015545968627929686, 1.306640625) (0.00014073651123046874, 1.30859375) (0.00012785594177246092, 1.310546875) (0.00011726034545898437, 1.3125) (0.00010907284545898437, 1.314453125) (0.00010317259216308593, 1.31640625) (9.920966339111327e-05, 1.318359375) (9.689210510253906e-05, 1.3203125) (9.595713806152344e-05, 1.322265625) (9.600708770751953e-05, 1.32421875) (9.663228607177734e-05, 1.326171875) (9.757025909423828e-05, 1.328125) (9.868215942382812e-05, 1.330078125) (9.994432830810546e-05, 1.33203125) (0.00010138649749755859, 1.333984375) (0.00010297349548339843, 1.3359375) (0.00010463006591796875, 1.337890625) (0.00010629806518554687, 1.33984375) (0.0001079542236328125, 1.341796875) (0.00010960215759277344, 1.34375) (0.00011125470733642578, 1.345703125) (0.00011291485595703124, 1.34765625) (0.00011456662750244141, 1.349609375) (0.00011619906616210936, 1.3515625) (0.00011782112121582031, 1.353515625) (0.00011945050048828125, 1.35546875) (0.00012109390258789062, 1.357421875) (0.00012272371673583985, 1.359375) (0.0001242651824951172, 1.361328125) (0.00012562837982177733, 1.36328125) (0.00012674818420410156, 1.365234375) (0.00012758954620361326, 1.3671875) (0.00012815069580078125, 1.369140625) (0.00012844711303710936, 1.37109375) (0.00012847854614257811, 1.373046875) (0.00012823107910156248, 1.375) (0.00012768466186523436, 1.376953125) (0.00012681869506835937, 1.37890625) (0.00012562354278564453, 1.380859375) (0.00012408749389648436, 1.3828125) (0.00012219059753417968, 1.384765625) (0.00011991497802734374, 1.38671875) (0.0001172564239501953, 1.388671875) (0.00011425209045410156, 1.390625) (0.00011099748229980469, 1.392578125) (0.00010761219787597656, 1.39453125) (0.0001042065200805664, 1.396484375) (0.00010087474060058593, 1.3984375) (9.767455291748046e-05, 1.400390625) (9.463872528076172e-05, 1.40234375) (9.180118560791016e-05, 1.404296875) (8.91878890991211e-05, 1.40625) (8.682015991210938e-05, 1.408203125) (8.471546936035156e-05, 1.41015625) (8.288207244873047e-05, 1.412109375) (8.13369140625e-05, 1.4140625) (8.010772705078124e-05, 1.416015625) (7.922637939453124e-05, 1.41796875) (7.872360229492187e-05, 1.419921875) (7.859827423095703e-05, 1.421875) (7.879795837402344e-05, 1.423828125) (7.924326324462891e-05, 1.42578125) (7.984539794921875e-05, 1.427734375) (8.051283264160156e-05, 1.4296875) (8.11817169189453e-05, 1.431640625) (8.180723571777344e-05, 1.43359375) (8.234662628173828e-05, 1.435546875) (8.277288055419922e-05, 1.4375) (8.306753540039062e-05, 1.439453125) (8.321802520751953e-05, 1.44140625) (8.322129821777343e-05, 1.443359375) (8.306704711914062e-05, 1.4453125) (8.2732421875e-05, 1.447265625) (8.218438720703125e-05, 1.44921875) (8.138100433349609e-05, 1.451171875) (8.029444885253905e-05, 1.453125) (7.892840576171874e-05, 1.455078125) (7.730513763427734e-05, 1.45703125) (7.546137237548827e-05, 1.458984375) (7.344439697265624e-05, 1.4609375) (7.128654479980468e-05, 1.462890625) (6.901199340820312e-05, 1.46484375) (6.664647674560546e-05, 1.466796875) (6.42033920288086e-05, 1.46875) (6.168885803222656e-05, 1.470703125) (5.91041259765625e-05, 1.47265625) (5.6440849304199216e-05, 1.474609375) (5.369225692749023e-05, 1.4765625) (5.08619270324707e-05, 1.478515625) (4.7961669921875e-05, 1.48046875) (4.5011428833007814e-05, 1.482421875) (4.2030174255371094e-05, 1.484375) (3.902488327026367e-05, 1.486328125) (3.5995792388916015e-05, 1.48828125) (3.2936805725097655e-05, 1.490234375) (2.9835304260253905e-05, 1.4921875) (2.6684038162231446e-05, 1.494140625) (2.347780990600586e-05, 1.49609375) (2.020887565612793e-05, 1.498046875) (1.687531280517578e-05, 1.5) (1.3480020523071288e-05, 1.501953125) (1.0028844833374023e-05, 1.50390625) (6.534247398376465e-06, 1.505859375) (3.010913610458374e-06, 1.5078125) (-5.310811996459961e-07, 1.509765625) (-4.084321022033691e-06, 1.51171875) (-7.643517017364501e-06, 1.513671875) (-1.1205259323120117e-05, 1.515625) (-1.4763830184936523e-05, 1.517578125) (-1.8312477111816404e-05, 1.51953125) (-2.1844545364379883e-05, 1.521484375) (-2.5352130889892577e-05, 1.5234375) (-2.88278751373291e-05, 1.525390625) (-3.226456832885742e-05, 1.52734375) (-3.565391159057617e-05, 1.529296875) (-3.8988822937011714e-05, 1.53125) (-4.2264266967773436e-05, 1.533203125) (-4.5476440429687495e-05, 1.53515625) (-4.862385177612304e-05, 1.537109375) (-5.1706787109374995e-05, 1.5390625) (-5.47250862121582e-05, 1.541015625) (-5.767893981933593e-05, 1.54296875) (-6.056939697265625e-05, 1.544921875) (-6.339738845825195e-05, 1.546875) (-6.616439056396484e-05, 1.548828125) (-6.887240600585937e-05, 1.55078125) (-7.152309417724609e-05, 1.552734375) (-7.411834716796874e-05, 1.5546875) (-7.666094970703125e-05, 1.556640625) (-7.9154296875e-05, 1.55859375) (-8.160243225097656e-05, 1.560546875) (-8.401011657714844e-05, 1.5625) (-8.638231658935547e-05, 1.564453125) (-8.872423553466797e-05, 1.56640625) (-9.104147338867187e-05, 1.568359375) (-9.333975219726562e-05, 1.5703125) (-9.562484741210937e-05, 1.572265625) (-9.79024658203125e-05, 1.57421875) (-0.00010017807006835937, 1.576171875) (-0.00010245680999755859, 1.578125) (-0.00010474356842041016, 1.580078125) (-0.00010704281616210937, 1.58203125) (-0.0001093587188720703, 1.583984375) (-0.00011169503021240234, 1.5859375) (-0.00011405501556396484, 1.587890625) (-0.00011644145202636719, 1.58984375) (-0.00011885657501220703, 1.591796875) (-0.00012130199432373046, 1.59375) (-0.0001237786636352539, 1.595703125) (-0.00012628693389892578, 1.59765625) (-0.00012882640075683594, 1.599609375) (-0.00013139604187011717, 1.6015625) (-0.00013399420166015626, 1.603515625) (-0.00013661871337890624, 1.60546875) (-0.00013926678466796873, 1.607421875) (-0.00014193528747558594, 1.609375) (-0.0001446207275390625, 1.611328125) (-0.00014731930541992186, 1.61328125) (-0.00015002694702148436, 1.615234375) (-0.00015273930358886717, 1.6171875) (-0.00015545162963867188, 1.619140625) (-0.00015815882873535154, 1.62109375) (-0.00016085549926757813, 1.623046875) (-0.00016353598022460938, 1.625) (-0.00016619430541992187, 1.626953125) (-0.00016882440185546875, 1.62890625) (-0.0001714199981689453, 1.630859375) (-0.00017397476196289062, 1.6328125) (-0.000176482421875, 1.634765625) (-0.00017893667602539062, 1.63671875) (-0.0001813314971923828, 1.638671875) (-0.00018366098022460937, 1.640625) (-0.00018591937255859375, 1.642578125) (-0.00018810128784179687, 1.64453125) (-0.0001902016143798828, 1.646484375) (-0.00019221566772460936, 1.6484375) (-0.00019413917541503904, 1.650390625) (-0.00019596850585937498, 1.65234375) (-0.00019770042419433592, 1.654296875) (-0.00019933236694335936, 1.65625) (-0.00020086235046386718, 1.658203125) (-0.00020228884887695312, 1.66015625) (-0.00020361093139648436, 1.662109375) (-0.00020482817077636717, 1.6640625) (-0.00020594061279296874, 1.666015625) (-0.00020694862365722654, 1.66796875) (-0.00020785301208496094, 1.669921875) (-0.00020865484619140624, 1.671875) (-0.00020935551452636717, 1.673828125) (-0.00020995677185058593, 1.67578125) (-0.00021046044921875, 1.677734375) (-0.00021086874389648436, 1.6796875) (-0.00021118391418457032, 1.681640625) (-0.00021140856933593748, 1.68359375) (-0.00021154522705078125, 1.685546875) (-0.00021159661865234375, 1.6875) (-0.00021156541442871092, 1.689453125) (-0.0002114542999267578, 1.69140625) (-0.00021126602172851563, 1.693359375) (-0.00021100318908691404, 1.6953125) (-0.00021066838073730468, 1.697265625) (-0.00021026414489746094, 1.69921875) (-0.00020979290771484373, 1.701171875) (-0.0002092569580078125, 1.703125) (-0.0002086584777832031, 1.705078125) (-0.00020799938964843748, 1.70703125) (-0.0002072813720703125, 1.708984375) (-0.00020650579833984375, 1.7109375) (-0.0002056736602783203, 1.712890625) (-0.0002047855224609375, 1.71484375) (-0.000203841552734375, 1.716796875) (-0.00020284149169921874, 1.71875) (-0.00020178471374511717, 1.720703125) (-0.0002006701965332031, 1.72265625) (-0.0001994966125488281, 1.724609375) (-0.00019826232910156248, 1.7265625) (-0.00019696551513671875, 1.728515625) (-0.00019560409545898438, 1.73046875) (-0.0001941758575439453, 1.732421875) (-0.00019267843627929687, 1.734375) (-0.00019110931396484375, 1.736328125) (-0.00018946591186523438, 1.73828125) (-0.00018774566650390625, 1.740234375) (-0.00018594596862792968, 1.7421875) (-0.00018406436157226562, 1.744140625) (-0.0001820984649658203, 1.74609375) (-0.0001800461730957031, 1.748046875) (-0.0001779055938720703, 1.75) (-0.00017567521667480467, 1.751953125) (-0.0001733538360595703, 1.75390625) (-0.00017094052124023436, 1.755859375) (-0.00016843476867675782, 1.7578125) (-0.00016583639526367188, 1.759765625) (-0.00016314552307128907, 1.76171875) (-0.00016036264038085936, 1.763671875) (-0.0001574886016845703, 1.765625) (-0.0001545246124267578, 1.767578125) (-0.00015147238159179686, 1.76953125) (-0.00014833401489257813, 1.771484375) (-0.00014511215209960936, 1.7734375) (-0.00014181002807617187, 1.775390625) (-0.00013843133544921875, 1.77734375) (-0.00013498037719726562, 1.779296875) (-0.0001314619598388672, 1.78125) (-0.00012788131713867187, 1.783203125) (-0.0001242441635131836, 1.78515625) (-0.00012055659484863281, 1.787109375) (-0.0001168250503540039, 1.7890625) (-0.00011305625915527344, 1.791015625) (-0.00010925721740722655, 1.79296875) (-0.00010543516540527343, 1.794921875) (-0.00010159755706787109, 1.796875) (-9.775199127197265e-05, 1.798828125) (-9.39062042236328e-05, 1.80078125) (-9.006793975830078e-05, 1.802734375) (-8.624494934082031e-05, 1.8046875) (-8.244480895996093e-05, 1.806640625) (-7.867495727539062e-05, 1.80859375) (-7.49425048828125e-05, 1.810546875) (-7.125425720214843e-05, 1.8125) (-6.761662292480469e-05, 1.814453125) (-6.403561401367188e-05, 1.81640625) (-6.051679229736328e-05, 1.818359375) (-5.706532287597656e-05, 1.8203125) (-5.3685977935791013e-05, 1.822265625) (-5.038311004638672e-05, 1.82421875) (-4.716067886352539e-05, 1.826171875) (-4.4022201538085936e-05, 1.828125) (-4.097076034545898e-05, 1.830078125) (-3.800896835327148e-05, 1.83203125) (-3.513893508911133e-05, 1.833984375) (-3.236225891113281e-05, 1.8359375) (-2.967999839782715e-05, 1.837890625) (-2.709269332885742e-05, 1.83984375) (-2.460037612915039e-05, 1.841796875) (-2.220260429382324e-05, 1.84375) (-1.9898483276367185e-05, 1.845703125) (-1.768673515319824e-05, 1.84765625) (-1.5565718650817872e-05, 1.849609375) (-1.3533441543579102e-05, 1.8515625) (-1.158758544921875e-05, 1.853515625) (-9.7255277633667e-06, 1.85546875) (-7.944384098052979e-06, 1.857421875) (-6.241072654724121e-06, 1.859375) (-4.612319469451904e-06, 1.861328125) (-3.054694890975952e-06, 1.86328125) (-1.5646815299987792e-06, 1.865234375) (-1.3875412940979003e-07, 1.8671875) (1.2265175580978393e-06, 1.869140625) (2.5344128608703614e-06, 1.87109375) (3.7880640029907226e-06, 1.873046875) (4.9903907775878904e-06, 1.875) (6.144057273864746e-06, 1.876953125) (7.25143814086914e-06, 1.87890625) (8.314584732055663e-06, 1.880859375) (9.335260391235351e-06, 1.8828125) (1.031499195098877e-05, 1.884765625) (1.125507640838623e-05, 1.88671875) (1.215659236907959e-05, 1.888671875) (1.3020439147949219e-05, 1.890625) (1.3847304344177245e-05, 1.892578125) (1.4637655258178711e-05, 1.89453125) (1.5391775131225585e-05, 1.896484375) (1.610980987548828e-05, 1.8984375) (1.6791807174682615e-05, 1.900390625) (1.7437694549560547e-05, 1.90234375) (1.8047246932983398e-05, 1.904296875) (1.8620048522949217e-05, 1.90625) (1.9155570983886717e-05, 1.908203125) (1.9653295516967772e-05, 1.91015625) (2.0112720489501952e-05, 1.912109375) (2.0533260345458982e-05, 1.9140625) (2.09141788482666e-05, 1.916015625) (2.1254642486572266e-05, 1.91796875) (2.1553825378417968e-05, 1.919921875) (2.1811079025268553e-05, 1.921875) (2.2025897979736326e-05, 1.923828125) (2.2197837829589843e-05, 1.92578125) (2.2326528549194334e-05, 1.927734375) (2.241177940368652e-05, 1.9296875) (2.245370864868164e-05, 1.931640625) (2.2452770233154297e-05, 1.93359375) (2.2409616470336915e-05, 1.935546875) (2.232511520385742e-05, 1.9375) (2.220037078857422e-05, 1.939453125) (2.2036836624145508e-05, 1.94140625) (2.1836431503295896e-05, 1.943359375) (2.160144805908203e-05, 1.9453125) (2.133450889587402e-05, 1.947265625) (2.10384521484375e-05, 1.94921875) (2.0716236114501953e-05, 1.951171875) (2.0370887756347655e-05, 1.953125) (2.000552749633789e-05, 1.955078125) (1.9623363494873044e-05, 1.95703125) (1.922760009765625e-05, 1.958984375) (1.8821199417114256e-05, 1.9609375) (1.8406696319580076e-05, 1.962890625) (1.7986387252807617e-05, 1.96484375) (1.7562519073486327e-05, 1.966796875) (1.713738441467285e-05, 1.96875) (1.6713270187377928e-05, 1.970703125) (1.629202651977539e-05, 1.97265625) (1.58749885559082e-05, 1.974609375) (1.546353816986084e-05, 1.9765625) (1.5059284210205078e-05, 1.978515625) (1.4663925170898437e-05, 1.98046875) (1.427906322479248e-05, 1.982421875) (1.3905439376831054e-05, 1.984375) (1.3542862892150879e-05, 1.986328125) (1.319103717803955e-05, 1.98828125) (1.2849299430847167e-05, 1.990234375) (1.2516143798828124e-05, 1.9921875) (1.218925094604492e-05, 1.994140625) (1.1864948272705078e-05, 1.99609375) (1.153868293762207e-05, 1.998046875) (1.1206199645996093e-05, 2.0) (1.086318016052246e-05, 2.001953125) (1.0504751205444335e-05, 2.00390625) (1.0125856399536133e-05, 2.005859375) (9.72078800201416e-06, 2.0078125) (9.283369064331055e-06, 2.009765625) (8.807748794555663e-06, 2.01171875) (8.287240982055664e-06, 2.013671875) (7.714597702026367e-06, 2.015625) (7.082975387573242e-06, 2.017578125) (6.384411811828613e-06, 2.01953125) (5.610665798187255e-06, 2.021484375) (4.755691528320312e-06, 2.0234375) (3.814343452453613e-06, 2.025390625) (2.7841339111328123e-06, 2.02734375) (1.6662065982818602e-06, 2.029296875) (4.590923488140106e-07, 2.03125) (-8.405240774154663e-07, 2.033203125) (-2.2355768680572507e-06, 2.03515625) (-3.732832908630371e-06, 2.037109375) (-5.342300415039063e-06, 2.0390625) (-7.0767564773559564e-06, 2.041015625) (-8.954379081726073e-06, 2.04296875) (-1.0991957664489746e-05, 2.044921875) (-1.3200004577636719e-05, 2.046875) (-1.55873908996582e-05, 2.048828125) (-1.8158332824707032e-05, 2.05078125) (-2.091195487976074e-05, 2.052734375) (-2.3846431732177733e-05, 2.0546875) (-2.695108413696289e-05, 2.056640625) (-3.021355056762695e-05, 2.05859375) (-3.363117218017578e-05, 2.060546875) (-3.719519424438476e-05, 2.0625) (-4.08896484375e-05, 2.064453125) (-4.4693206787109375e-05, 2.06640625) (-4.8562862396240236e-05, 2.068359375) (-5.244089508056641e-05, 2.0703125) (-5.626351928710937e-05, 2.072265625) (-5.995125198364257e-05, 2.07421875) (-6.342365264892578e-05, 2.076171875) (-6.661286163330078e-05, 2.078125) (-6.945133972167968e-05, 2.080078125) (-7.188304138183594e-05, 2.08203125) (-7.387081909179687e-05, 2.083984375) (-7.539413452148437e-05, 2.0859375) (-7.646868896484374e-05, 2.087890625) (-7.712461853027343e-05, 2.08984375) (-7.737535858154297e-05, 2.091796875) (-7.723782348632812e-05, 2.09375) (-7.673901367187499e-05, 2.095703125) (-7.593167877197266e-05, 2.09765625) (-7.492833709716797e-05, 2.099609375) (-7.38729248046875e-05, 2.1015625) (-7.291312408447265e-05, 2.103515625) (-7.221343994140624e-05, 2.10546875) (-7.192889404296875e-05, 2.107421875) (-7.22303466796875e-05, 2.109375) (-7.332389831542968e-05, 2.111328125) (-7.533949279785156e-05, 2.11328125) (-7.831805419921874e-05, 2.115234375) (-8.218759155273437e-05, 2.1171875) (-8.671105194091796e-05, 2.119140625) (-9.165920257568359e-05, 2.12109375) (-9.688665771484375e-05, 2.123046875) (-0.00010216400146484374, 2.125) (-0.00010721353149414061, 2.126953125) (-0.00011187600708007813, 2.12890625) (-0.00011601625823974608, 2.130859375) (-0.00011973554229736327, 2.1328125) (-0.00012351873779296873, 2.134765625) (-0.0001277420425415039, 2.13671875) (-0.0001326652374267578, 2.138671875) (-0.00013868505859375, 2.140625) (-0.00014599932861328124, 2.142578125) (-0.00015446649169921874, 2.14453125) (-0.00016398239135742186, 2.146484375) (-0.00017398988342285155, 2.1484375) (-0.00018307879638671874, 2.150390625) (-0.00019005314636230469, 2.15234375) (-0.00019288067626953124, 2.154296875) (-0.0001880948028564453, 2.15625) (-0.0001741077880859375, 2.158203125) (-0.00015040191650390625, 2.16015625) (-0.00011811332702636718, 2.162109375) (-8.293310546875e-05, 2.1640625) (-4.7280929565429684e-05, 2.166015625) (-9.135469436645507e-06, 2.16796875) (3.508566284179687e-05, 2.169921875) (9.508592224121093e-05, 2.171875) (0.00017512841796875, 2.173828125) (0.0002685291442871094, 2.17578125) (0.0003641152954101562, 2.177734375) (0.00044047872924804683, 2.1796875) (0.0004778900146484375, 2.181640625) (0.00046900781249999997, 2.18359375) (0.00041298031616210937, 2.185546875) (0.00032422586059570313, 2.1875) (0.0002245942687988281, 2.189453125) (0.00013109281921386718, 2.19140625) (5.945647811889648e-05, 2.193359375) (1.3055662155151366e-05, 2.1953125) (-1.4752422332763671e-05, 2.197265625) (-3.115591049194336e-05, 2.19921875) (-4.645028686523437e-05, 2.201171875) (-6.514572143554687e-05, 2.203125) (-8.541752624511718e-05, 2.205078125) (-0.00010493720245361328, 2.20703125) (-0.0001194544219970703, 2.208984375) (-0.00012760307312011717, 2.2109375) (-0.00013164288330078124, 2.212890625) (-0.00013425442504882813, 2.21484375) (-0.00013861456298828125, 2.216796875) (-0.00014629759216308594, 2.21875) (-0.00015706991577148436, 2.220703125) (-0.00017034091186523436, 2.22265625) (-0.00018522164916992187, 2.224609375) (-0.00020095767211914062, 2.2265625) (-0.00021691195678710936, 2.228515625) (-0.000232212646484375, 2.23046875) (-0.00024601492309570314, 2.232421875) (-0.0002578512268066406, 2.234375) (-0.0002676142578125, 2.236328125) (-0.00027545513916015624, 2.23828125) (-0.0002816495666503906, 2.240234375) (-0.0002864682006835937, 2.2421875) (-0.0002902054443359375, 2.244140625) (-0.00029321838378906247, 2.24609375) (-0.00029587927246093747, 2.248046875) (-0.0002984237365722656, 2.25) (-0.000300932373046875, 2.251953125) (-0.0003034041748046875, 2.25390625) (-0.0003057989501953125, 2.255859375) (-0.0003080958251953125, 2.2578125) (-0.00031030844116210936, 2.259765625) (-0.00031244577026367186, 2.26171875) (-0.00031447967529296873, 2.263671875) (-0.00031638787841796874, 2.265625) (-0.00031816192626953126, 2.267578125) (-0.0003197903137207031, 2.26953125) (-0.0003212815246582031, 2.271484375) (-0.000322632080078125, 2.2734375) (-0.00032380706787109374, 2.275390625) (-0.00032477221679687497, 2.27734375) (-0.00032549850463867185, 2.279296875) (-0.0003259605102539062, 2.28125) (-0.00032615097045898437, 2.283203125) (-0.0003260711059570312, 2.28515625) (-0.0003257084655761719, 2.287109375) (-0.0003250526733398437, 2.2890625) (-0.0003240943603515625, 2.291015625) (-0.00032281414794921873, 2.29296875) (-0.0003212119445800781, 2.294921875) (-0.00031930221557617186, 2.296875) (-0.0003171007080078125, 2.298828125) (-0.00031463385009765626, 2.30078125) (-0.0003119296569824219, 2.302734375) (-0.00030901409912109374, 2.3046875) (-0.000305921630859375, 2.306640625) (-0.000302691162109375, 2.30859375) (-0.0002993566589355469, 2.310546875) (-0.00029594915771484373, 2.3125) (-0.0002924942932128906, 2.314453125) (-0.0002890108032226562, 2.31640625) (-0.00028552276611328123, 2.318359375) (-0.0002820562744140625, 2.3203125) (-0.0002786382141113281, 2.322265625) (-0.000275300048828125, 2.32421875) (-0.0002720645141601562, 2.326171875) (-0.00026894622802734375, 2.328125) (-0.0002659559326171875, 2.330078125) (-0.0002630977783203125, 2.33203125) (-0.0002603741760253906, 2.333984375) (-0.00025778771972656246, 2.3359375) (-0.00025533758544921874, 2.337890625) (-0.00025302035522460934, 2.33984375) (-0.0002508308715820312, 2.341796875) (-0.000248760498046875, 2.34375) (-0.00024680120849609376, 2.345703125) (-0.0002449459838867187, 2.34765625) (-0.00024318048095703124, 2.349609375) (-0.00024148519897460935, 2.3515625) (-0.00023983233642578124, 2.353515625) (-0.000238184326171875, 2.35546875) (-0.0002365117950439453, 2.357421875) (-0.00023479339599609373, 2.359375) (-0.00023301239013671875, 2.361328125) (-0.00023116049194335937, 2.36328125) (-0.00022922869873046874, 2.365234375) (-0.00022720623779296875, 2.3671875) (-0.00022508679199218748, 2.369140625) (-0.00022286590576171874, 2.37109375) (-0.00022053921508789062, 2.373046875) (-0.00021810665893554686, 2.375) (-0.00021556286621093749, 2.376953125) (-0.00021289683532714842, 2.37890625) (-0.00021011100769042967, 2.380859375) (-0.00020721586608886717, 2.3828125) (-0.0002042361297607422, 2.384765625) (-0.00020121511840820311, 2.38671875) (-0.00019817784118652344, 2.388671875) (-0.00019512977600097655, 2.390625) (-0.0001920689697265625, 2.392578125) (-0.00018897857666015625, 2.39453125) (-0.00018583592224121094, 2.396484375) (-0.00018261764526367186, 2.3984375) (-0.00017928488159179686, 2.400390625) (-0.00017578660583496093, 2.40234375) (-0.00017208113098144532, 2.404296875) (-0.00016813050842285157, 2.40625) (-0.00016390873718261719, 2.408203125) (-0.00015940591430664062, 2.41015625) (-0.00015459600830078124, 2.412109375) (-0.00014944276428222655, 2.4140625) (-0.00014389877319335938, 2.416015625) (-0.00013789840698242187, 2.41796875) (-0.00013140011596679687, 2.419921875) (-0.0001243906936645508, 2.421875) (-0.00011686571502685546, 2.423828125) (-0.00010883810424804687, 2.42578125) (-0.00010033837890624999, 2.427734375) (-9.140577697753905e-05, 2.4296875) (-8.210711669921875e-05, 2.431640625) (-7.253553771972656e-05, 2.43359375) (-6.276884460449219e-05, 2.435546875) (-5.2874019622802734e-05, 2.4375) (-4.2907627105712886e-05, 2.439453125) (-3.29081802368164e-05, 2.44140625) (-2.292865562438965e-05, 2.443359375) (-1.303402042388916e-05, 2.4453125) (-3.2932586669921874e-06, 2.447265625) (6.2139463424682615e-06, 2.44921875) (1.5421337127685547e-05, 2.451171875) (2.428137969970703e-05, 2.453125) (3.274905776977539e-05, 2.455078125) (4.078713989257812e-05, 2.45703125) (4.837608337402344e-05, 2.458984375) (5.550661468505859e-05, 2.4609375) (6.219252777099609e-05, 2.462890625) (6.847182464599609e-05, 2.46484375) (7.436782073974609e-05, 2.466796875) (7.989103698730468e-05, 2.46875) (8.504631042480469e-05, 2.470703125) (8.982584381103515e-05, 2.47265625) (9.422882843017578e-05, 2.474609375) (9.826248931884765e-05, 2.4765625) (0.000101931640625, 2.478515625) (0.00010524269104003905, 2.48046875) (0.00010820207977294921, 2.482421875) (0.0001108126983642578, 2.484375) (0.00011308089447021484, 2.486328125) (0.00011501558685302734, 2.48828125) (0.00011661755371093749, 2.490234375) (0.00011788285827636718, 2.4921875) (0.00011879981231689452, 2.494140625) (0.00011934719085693359, 2.49609375) (0.00011951354217529296, 2.498046875) (0.0001192970962524414, 2.5) (0.00011869993591308593, 2.501953125) (0.00011773133850097656, 2.50390625) (0.00011640226745605469, 2.505859375) (0.0001147236328125, 2.5078125) (0.00011271224212646483, 2.509765625) (0.00011038957214355468, 2.51171875) (0.000107775634765625, 2.513671875) (0.00010489013671874999, 2.515625) (0.0001017520751953125, 2.517578125) (9.837859344482422e-05, 2.51953125) (9.47901611328125e-05, 2.521484375) (9.101007843017578e-05, 2.5234375) (8.706282806396484e-05, 2.525390625) (8.297506713867187e-05, 2.52734375) (7.877213287353516e-05, 2.529296875) (7.447735595703125e-05, 2.53125) (7.011383056640624e-05, 2.533203125) (6.570372009277343e-05, 2.53515625) (6.126774597167969e-05, 2.537109375) (5.68256607055664e-05, 2.5390625) (5.239504241943359e-05, 2.541015625) (4.799102020263672e-05, 2.54296875) (4.362903213500977e-05, 2.544921875) (3.932475662231445e-05, 2.546875) (3.5093292236328125e-05, 2.548828125) (3.0949655532836914e-05, 2.55078125) (2.690785789489746e-05, 2.552734375) (2.2980525970458983e-05, 2.5546875) (1.917983055114746e-05, 2.556640625) (1.551729965209961e-05, 2.55859375) (1.2002899169921874e-05, 2.560546875) (8.645280838012696e-06, 2.5625) (5.4519009590148926e-06, 2.564453125) (2.4286022186279294e-06, 2.56640625) (-4.198662936687469e-07, 2.568359375) (-3.089668273925781e-06, 2.5703125) (-5.578321456909179e-06, 2.572265625) (-7.884346961975097e-06, 2.57421875) (-1.0007013320922852e-05, 2.576171875) (-1.194686508178711e-05, 2.578125) (-1.3705562591552734e-05, 2.580078125) (-1.5285512924194336e-05, 2.58203125) (-1.6690061569213867e-05, 2.583984375) (-1.792330551147461e-05, 2.5859375) (-1.8989824295043945e-05, 2.587890625) (-1.9895057678222656e-05, 2.58984375) (-2.064522171020508e-05, 2.591796875) (-2.1246747970581054e-05, 2.59375) (-2.170637512207031e-05, 2.595703125) (-2.2031185150146482e-05, 2.59765625) (-2.2228282928466796e-05, 2.599609375) (-2.23047981262207e-05, 2.6015625) (-2.2267787933349608e-05, 2.603515625) (-2.2123836517333983e-05, 2.60546875) (-2.1879215240478515e-05, 2.607421875) (-2.1540407180786132e-05, 2.609375) (-2.1113971710205077e-05, 2.611328125) (-2.0606552124023437e-05, 2.61328125) (-2.0025009155273435e-05, 2.615234375) (-1.9376329421997068e-05, 2.6171875) (-1.8667821884155273e-05, 2.619140625) (-1.7907451629638672e-05, 2.62109375) (-1.7103601455688475e-05, 2.623046875) (-1.626444625854492e-05, 2.625) (-1.5397982597351075e-05, 2.626953125) (-1.4511383056640624e-05, 2.62890625) (-1.3610870361328124e-05, 2.630859375) (-1.2702903747558594e-05, 2.6328125) (-1.179390525817871e-05, 2.634765625) (-1.0890214920043944e-05, 2.63671875) (-9.998529434204102e-06, 2.638671875) (-9.124706268310546e-06, 2.640625) (-8.273320198059082e-06, 2.642578125) (-7.450485229492187e-06, 2.64453125) (-6.664126396179199e-06, 2.646484375) (-5.92094898223877e-06, 2.6484375) (-5.22743034362793e-06, 2.650390625) (-4.587371826171874e-06, 2.65234375) (-4.000500202178955e-06, 2.654296875) (-3.470290899276733e-06, 2.65625) (-3.0053136348724363e-06, 2.658203125) (-2.615814208984375e-06, 2.66015625) (-2.3146982192993165e-06, 2.662109375) (-2.1167612075805663e-06, 2.6640625) (-2.036102533340454e-06, 2.666015625) (-2.091999053955078e-06, 2.66796875) (-2.310085535049438e-06, 2.669921875) (-2.713248252868652e-06, 2.671875) (-3.322851181030273e-06, 2.673828125) (-4.153820037841797e-06, 2.67578125) (-5.210826873779296e-06, 2.677734375) (-6.501996517181396e-06, 2.6796875) (-8.038847923278808e-06, 2.681640625) (-9.83558940887451e-06, 2.68359375) (-1.19126558303833e-05, 2.685546875) (-1.4279194831848144e-05, 2.6875) (-1.6925407409667967e-05, 2.689453125) (-1.9838165283203125e-05, 2.69140625) (-2.300120162963867e-05, 2.693359375) (-2.638767623901367e-05, 2.6953125) (-2.9970457077026367e-05, 2.697265625) (-3.370574188232422e-05, 2.69921875) (-3.752622604370117e-05, 2.701171875) (-4.1376949310302735e-05, 2.703125) (-4.521478271484375e-05, 2.705078125) (-4.900633239746093e-05, 2.70703125) (-5.273767852783203e-05, 2.708984375) (-5.6386322021484373e-05, 2.7109375) (-5.991228866577148e-05, 2.712890625) (-6.327482986450195e-05, 2.71484375) (-6.642694854736327e-05, 2.716796875) (-6.933048248291015e-05, 2.71875) (-7.1980712890625e-05, 2.720703125) (-7.437753295898437e-05, 2.72265625) (-7.652529144287109e-05, 2.724609375) (-7.846190643310546e-05, 2.7265625) (-8.022348022460937e-05, 2.728515625) (-8.185720825195312e-05, 2.73046875) (-8.344517517089843e-05, 2.732421875) (-8.503975677490234e-05, 2.734375) (-8.667131042480469e-05, 2.736328125) (-8.839335632324219e-05, 2.73828125) (-9.022457885742187e-05, 2.740234375) (-9.215007781982421e-05, 2.7421875) (-9.42261962890625e-05, 2.744140625) (-9.655496978759765e-05, 2.74609375) (-9.928427124023437e-05, 2.748046875) (-0.00010267262268066405, 2.75) (-0.00010691957092285155, 2.751953125) (-0.00011203733825683594, 2.75390625) (-0.00011799992370605469, 2.755859375) (-0.0001247679901123047, 2.7578125) (-0.00013217047119140624, 2.759765625) (-0.00013995184326171876, 2.76171875) (-0.00014767494201660156, 2.763671875) (-0.00015455111694335938, 2.765625) (-0.00015979974365234374, 2.767578125) (-0.00016303924560546874, 2.76953125) (-0.00016411972045898436, 2.771484375) (-0.0001630671691894531, 2.7734375) (-0.0001601454162597656, 2.775390625) (-0.00015569757080078123, 2.77734375) (-0.00015028210449218748, 2.779296875) (-0.00014498222351074218, 2.78125) (-0.00014120480346679686, 2.783203125) (-0.00014000970458984374, 2.78515625) (-0.00014204144287109375, 2.787109375) (-0.00014766297912597657, 2.7890625) (-0.0001559864044189453, 2.791015625) (-0.00016490138244628906, 2.79296875) (-0.00017222824096679685, 2.794921875) (-0.0001755259552001953, 2.796875) (-0.0001745244445800781, 2.798828125) (-0.00017199999999999998, 2.80078125) (-0.00016973588562011719, 2.802734375) (-0.0001675056457519531, 2.8046875) (-0.00015894784545898436, 2.806640625) (-0.00013232762145996092, 2.80859375) (-7.823284149169922e-05, 2.810546875) (8.640079498291016e-06, 2.8125) (0.00012156210327148437, 2.814453125) (0.00024366763305664062, 2.81640625) (0.000357375244140625, 2.818359375) (0.0004449929504394531, 2.8203125) (0.0005006281433105468, 2.822265625) (0.0005297401733398437, 2.82421875) (0.0005402958374023437, 2.826171875) (0.0005448451538085938, 2.828125) (0.0005490361328125, 2.830078125) (0.0005516431884765625, 2.83203125) (0.0005534191894531249, 2.833984375) (0.0005519970703125, 2.8359375) (0.0005487103271484375, 2.837890625) (0.0005483399047851562, 2.83984375) (0.0005499446411132812, 2.841796875) (0.000553410400390625, 2.84375) (0.0005576938476562499, 2.845703125) (0.0005593067016601563, 2.84765625) (0.000559267822265625, 2.849609375) (0.000558326171875, 2.8515625) (0.0005559142456054687, 2.853515625) (0.0005529505615234375, 2.85546875) (0.0005488129272460937, 2.857421875) (0.0005428693847656249, 2.859375) (0.0005357907714843749, 2.861328125) (0.0005279459228515625, 2.86328125) (0.0005198154907226563, 2.865234375) (0.0005121109619140625, 2.8671875) (0.0005052521972656249, 2.869140625) (0.0004994619750976562, 2.87109375) (0.0004949334716796875, 2.873046875) (0.0004917114868164062, 2.875) (0.0004896932373046874, 2.876953125) (0.0004887977294921875, 2.87890625) (0.0004889508666992187, 2.880859375) (0.0004900139770507812, 2.8828125) (0.0004918330688476562, 2.884765625) (0.00049426171875, 2.88671875) (0.0004971343994140625, 2.888671875) (0.0005003100891113281, 2.890625) (0.0005036798095703125, 2.892578125) (0.0005071256713867188, 2.89453125) (0.0005105158691406249, 2.896484375) (0.0005137205810546875, 2.8984375) (0.0005166226806640624, 2.900390625) (0.0005191201171875, 2.90234375) (0.0005211314697265624, 2.904296875) (0.0005225842895507812, 2.90625) (0.0005234049072265625, 2.908203125) (0.0005235460205078125, 2.91015625) (0.0005229942016601563, 2.912109375) (0.0005217625732421875, 2.9140625) (0.0005198875732421875, 2.916015625) (0.0005174173583984375, 2.91796875) (0.0005143996582031249, 2.919921875) (0.0005108893127441406, 2.921875) (0.0005069515380859375, 2.923828125) (0.0005026500549316406, 2.92578125) (0.0004980523681640625, 2.927734375) (0.00049322314453125, 2.9296875) (0.00048821051025390623, 2.931640625) (0.00048306185913085935, 2.93359375) (0.0004778250122070312, 2.935546875) (0.0004725466613769531, 2.9375) (0.0004672744140625, 2.939453125) (0.00046203466796875, 2.94140625) (0.00045682537841796873, 2.943359375) (0.00045163415527343747, 2.9453125) (0.0004464483947753906, 2.947265625) (0.0004412603759765625, 2.94921875) (0.0004360686645507812, 2.951171875) (0.0004308617248535156, 2.953125) (0.00042561566162109375, 2.955078125) (0.00042030853271484374, 2.95703125) (0.0004149246826171875, 2.958984375) (0.00040946209716796874, 2.9609375) (0.00040392889404296874, 2.962890625) (0.0003983305969238281, 2.96484375) (0.0003926693115234375, 2.966796875) (0.0003869566650390625, 2.96875) (0.00038122308349609375, 2.970703125) (0.00037552597045898437, 2.97265625) (0.00036994842529296875, 2.974609375) (0.0003645674438476562, 2.9765625) (0.00035943792724609376, 2.978515625) (0.00035459661865234375, 2.98046875) (0.0003500694580078125, 2.982421875) (0.00034589019775390625, 2.984375) (0.00034209246826171874, 2.986328125) (0.00033869744873046874, 2.98828125) (0.0003357020874023437, 2.990234375) (0.00033307641601562496, 2.9921875) (0.00033078607177734374, 2.994140625) (0.00032879220581054683, 2.99609375) (0.000327049072265625, 2.998046875) (0.0003254797668457031, 3.0) (0.00032397079467773435, 3.001953125) (0.00032238262939453125, 3.00390625) (0.0003205447998046875, 3.005859375) (0.00031830624389648436, 3.0078125) (0.00031554486083984376, 3.009765625) (0.000312155517578125, 3.01171875) (0.000308056640625, 3.013671875) (0.00030317919921875, 3.015625) (0.0002974329223632812, 3.017578125) (0.0002907100830078125, 3.01953125) (0.0002830099792480469, 3.021484375) (0.0002744063110351562, 3.0234375) (0.00026503192138671876, 3.025390625) (0.0002551770782470703, 3.02734375) (0.00024513851928710935, 3.029296875) (0.00023519776916503904, 3.03125) (0.00022584283447265623, 3.033203125) (0.00021766981506347654, 3.03515625) (0.00021102044677734374, 3.037109375) (0.00020608578491210938, 3.0390625) (0.00020286282348632812, 3.041015625) (0.00020069757080078124, 3.04296875) (0.00019888912963867187, 3.044921875) (0.0001969816436767578, 3.046875) (0.0001939226837158203, 3.048828125) (0.000189245361328125, 3.05078125) (0.000183944091796875, 3.052734375) (0.00017869601440429687, 3.0546875) (0.00017447099304199217, 3.056640625) (0.00017198619079589842, 3.05859375) (0.00016926991271972656, 3.060546875) (0.0001654157257080078, 3.0625) (0.00016295423889160155, 3.064453125) (0.00016617088317871093, 3.06640625) (0.00018219174194335938, 3.068359375) (0.0002176583251953125, 3.0703125) (0.0002736314392089844, 3.072265625) (0.000348385498046875, 3.07421875) (0.00043875225830078125, 3.076171875) (0.0005382340087890624, 3.078125) (0.0006391260986328125, 3.080078125) (0.000731066162109375, 3.08203125) (0.0007992935180664063, 3.083984375) (0.0008314442138671875, 3.0859375) (0.0008226185302734375, 3.087890625) (0.0007749946899414062, 3.08984375) (0.0006983228759765625, 3.091796875) (0.000606455810546875, 3.09375) (0.0005100237426757812, 3.095703125) (0.0004178731994628906, 3.09765625) (0.0003389725952148437, 3.099609375) (0.0002781354064941406, 3.1015625) (0.00023780348205566405, 3.103515625) (0.00021707431030273437, 3.10546875) (0.00020823294067382812, 3.107421875) (0.00020322941589355468, 3.109375) (0.0001976218719482422, 3.111328125) (0.00018958644104003904, 3.11328125) (0.0001813206787109375, 3.115234375) (0.00017593707275390623, 3.1171875) (0.0001731473388671875, 3.119140625) (0.00017111968994140624, 3.12109375) (0.00016787658691406248, 3.123046875) (0.00016156576538085937, 3.125) (0.00015218858337402342, 3.126953125) (0.00014083949279785157, 3.12890625) (0.00012849917602539062, 3.130859375) (0.00011623091125488281, 3.1328125) (0.00010499996948242188, 3.134765625) (9.552774047851562e-05, 3.13671875) (8.816825866699218e-05, 3.138671875) (8.291639709472656e-05, 3.140625) (7.951648712158203e-05, 3.142578125) (7.752798461914062e-05, 3.14453125) (7.652524566650391e-05, 3.146484375) (7.612494659423827e-05, 3.1484375) (7.586380004882812e-05, 3.150390625) (7.528483581542968e-05, 3.15234375) (7.413687133789062e-05, 3.154296875) (7.231922912597656e-05, 3.15625) (6.983667755126953e-05, 3.158203125) (6.679733276367187e-05, 3.16015625) (6.327390670776367e-05, 3.162109375) (5.9310539245605464e-05, 3.1640625) (5.500105285644531e-05, 3.166015625) (5.044765472412109e-05, 3.16796875) (4.573753356933594e-05, 3.169921875) (4.095806884765625e-05, 3.171875) (3.616556549072265e-05, 3.173828125) (3.139924240112305e-05, 3.17578125) (2.6729579925537108e-05, 3.177734375) (2.2236446380615233e-05, 3.1796875) (1.8002267837524415e-05, 3.181640625) (1.4115028381347656e-05, 3.18359375) (1.062593936920166e-05, 3.185546875) (7.5570507049560545e-06, 3.1875) (4.9238567352294916e-06, 3.189453125) (2.723095893859863e-06, 3.19140625) (9.429987668991088e-07, 3.193359375) (-4.3176275491714476e-07, 3.1953125) (-1.4343152046203613e-06, 3.197265625) (-2.1080229282379148e-06, 3.19921875) (-2.494105577468872e-06, 3.201171875) (-2.6356868743896483e-06, 3.203125) (-2.5724787712097166e-06, 3.205078125) (-2.3397018909454346e-06, 3.20703125) (-1.980558156967163e-06, 3.208984375) (-1.5406068563461303e-06, 3.2109375) (-1.0655629634857177e-06, 3.212890625) (-6.028869152069091e-07, 3.21484375) (-1.8667280673980713e-07, 3.216796875) (1.6065159440040588e-07, 3.21875) (4.198371767997741e-07, 3.220703125) (5.782395005226135e-07, 3.22265625) (6.271387934684753e-07, 3.224609375) (5.591551661491394e-07, 3.2265625) (3.7367522716522213e-07, 3.228515625) (7.528045773506164e-08, 3.23046875) (-3.3451873064041134e-07, 3.232421875) (-8.554245233535767e-07, 3.234375) (-1.4872281551361083e-06, 3.236328125) (-2.231405973434448e-06, 3.23828125) (-3.086275577545166e-06, 3.240234375) (-4.0475168228149414e-06, 3.2421875) (-5.110682010650635e-06, 3.244140625) (-6.270257472991943e-06, 3.24609375) (-7.521142959594726e-06, 3.248046875) (-8.858998298645019e-06, 3.25) (-1.0278600692749023e-05, 3.251953125) (-1.177406120300293e-05, 3.25390625) (-1.33395938873291e-05, 3.255859375) (-1.4968904495239257e-05, 3.2578125) (-1.665584945678711e-05, 3.259765625) (-1.8394515991210937e-05, 3.26171875) (-2.0177085876464844e-05, 3.263671875) (-2.1994220733642576e-05, 3.265625) (-2.3835901260375976e-05, 3.267578125) (-2.5691261291503904e-05, 3.26953125) (-2.7549365997314453e-05, 3.271484375) (-2.9399494171142576e-05, 3.2734375) (-3.123050308227539e-05, 3.275390625) (-3.3031044006347654e-05, 3.27734375) (-3.479045867919922e-05, 3.279296875) (-3.64986686706543e-05, 3.28125) (-3.814613342285156e-05, 3.283203125) (-3.972402191162109e-05, 3.28515625) (-4.122389984130859e-05, 3.287109375) (-4.263772964477539e-05, 3.2890625) (-4.3958217620849606e-05, 3.291015625) (-4.517882537841797e-05, 3.29296875) (-4.629368591308594e-05, 3.294921875) (-4.729769897460937e-05, 3.296875) (-4.8186676025390624e-05, 3.298828125) (-4.895722198486328e-05, 3.30078125) (-4.960689544677734e-05, 3.302734375) (-5.013428497314453e-05, 3.3046875) (-5.0538909912109373e-05, 3.306640625) (-5.082132339477539e-05, 3.30859375) (-5.09831428527832e-05, 3.310546875) (-5.102706909179687e-05, 3.3125) (-5.095684814453125e-05, 3.314453125) (-5.077736282348633e-05, 3.31640625) (-5.0494544982910154e-05, 3.318359375) (-5.011537170410156e-05, 3.3203125) (-4.964788818359375e-05, 3.322265625) (-4.9101097106933595e-05, 3.32421875) (-4.848500823974609e-05, 3.326171875) (-4.7810585021972656e-05, 3.328125) (-4.708958053588867e-05, 3.330078125) (-4.6334472656249996e-05, 3.33203125) (-4.555846405029297e-05, 3.333984375) (-4.477533340454101e-05, 3.3359375) (-4.3999427795410156e-05, 3.337890625) (-4.324554061889648e-05, 3.33984375) (-4.2528663635253904e-05, 3.341796875) (-4.186391067504883e-05, 3.34375) (-4.126652908325195e-05, 3.345703125) (-4.075178527832031e-05, 3.34765625) (-4.033487701416016e-05, 3.349609375) (-4.003089904785156e-05, 3.3515625) (-3.9854644775390626e-05, 3.353515625) (-3.982052230834961e-05, 3.35546875) (-3.9942558288574216e-05, 3.357421875) (-4.0234272003173824e-05, 3.359375) (-4.070857238769531e-05, 3.361328125) (-4.13776626586914e-05, 3.36328125) (-4.225289535522461e-05, 3.365234375) (-4.334469223022461e-05, 3.3671875) (-4.4662483215332026e-05, 3.369140625) (-4.6214645385742185e-05, 3.37109375) (-4.800841522216797e-05, 3.373046875) (-5.004981994628906e-05, 3.375) (-5.2343597412109376e-05, 3.376953125) (-5.4893138885498044e-05, 3.37890625) (-5.770046615600586e-05, 3.380859375) (-6.0766197204589844e-05, 3.3828125) (-6.408953857421875e-05, 3.384765625) (-6.766826629638672e-05, 3.38671875) (-7.149870300292969e-05, 3.388671875) (-7.557574462890624e-05, 3.390625) (-7.989286804199218e-05, 3.392578125) (-8.44422149658203e-05, 3.39453125) (-8.9214599609375e-05, 3.396484375) (-9.419956970214844e-05, 3.3984375) (-9.938539123535155e-05, 3.400390625) (-0.00010475914764404296, 3.40234375) (-0.00011030681610107421, 3.404296875) (-0.00011601335906982421, 3.40625) (-0.0001218627471923828, 3.408203125) (-0.0001278380584716797, 3.41015625) (-0.000133921630859375, 3.412109375) (-0.00014009503173828124, 3.4140625) (-0.00014633924865722656, 3.416015625) (-0.00015263490295410156, 3.41796875) (-0.00015896215820312498, 3.419921875) (-0.0001653010559082031, 3.421875) (-0.0001716313781738281, 3.423828125) (-0.00017793299865722655, 3.42578125) (-0.0001841858215332031, 3.427734375) (-0.00019037010192871092, 3.4296875) (-0.00019646633911132811, 3.431640625) (-0.0002024555206298828, 3.43359375) (-0.00020831915283203123, 3.435546875) (-0.0002140394592285156, 3.4375) (-0.00021959934997558593, 3.439453125) (-0.00022498258972167967, 3.44140625) (-0.00023017388916015625, 3.443359375) (-0.00023515893554687498, 3.4453125) (-0.00023992446899414062, 3.447265625) (-0.0002444582061767578, 3.44921875) (-0.0002487490997314453, 3.451171875) (-0.0002527872009277344, 3.453125) (-0.0002565637817382812, 3.455078125) (-0.00026007122802734376, 3.45703125) (-0.0002633032531738281, 3.458984375) (-0.0002662547607421875, 3.4609375) (-0.0002689219360351562, 3.462890625) (-0.0002713022155761719, 3.46484375) (-0.000273394287109375, 3.466796875) (-0.0002751981811523437, 3.46875) (-0.00027671511840820313, 3.470703125) (-0.0002779473876953125, 3.47265625) (-0.00027889862060546873, 3.474609375) (-0.00027957342529296873, 3.4765625) (-0.0002799775390625, 3.478515625) (-0.00028011758422851564, 3.48046875) (-0.00028000128173828124, 3.482421875) (-0.0002796370544433594, 3.484375) (-0.0002790342407226562, 3.486328125) (-0.00027820281982421873, 3.48828125) (-0.00027715350341796875, 3.490234375) (-0.00027589764404296874, 3.4921875) (-0.00027444702148437497, 3.494140625) (-0.00027281381225585937, 3.49609375) (-0.00027101055908203124, 3.498046875) (-0.00026905014038085934, 3.5) (-0.00026694549560546876, 3.501953125) (-0.0002647098388671875, 3.50390625) (-0.00026235626220703125, 3.505859375) (-0.0002598979797363281, 3.5078125) (-0.00025734808349609374, 3.509765625) (-0.00025471957397460936, 3.51171875) (-0.00025202537536621095, 3.513671875) (-0.0002492782745361328, 3.515625) (-0.0002464906921386719, 3.517578125) (-0.00024367478942871092, 3.51953125) (-0.00024084245300292966, 3.521484375) (-0.00023800511169433592, 3.5234375) (-0.00023517376708984375, 3.525390625) (-0.00023235902404785156, 3.52734375) (-0.00022957086181640623, 3.529296875) (-0.00022681877136230467, 3.53125) (-0.00022411170959472655, 3.533203125) (-0.00022145806884765623, 3.53515625) (-0.00021886569213867187, 3.537109375) (-0.00021634179687499998, 3.5390625) (-0.00021389312744140624, 3.541015625) (-0.00021152569580078123, 3.54296875) (-0.00020924493408203124, 3.544921875) (-0.0002070557403564453, 3.546875) (-0.00020496234130859374, 3.548828125) (-0.0002029682922363281, 3.55078125) (-0.0002010765380859375, 3.552734375) (-0.0001992895050048828, 3.5546875) (-0.00019760891723632812, 3.556640625) (-0.00019603604125976561, 3.55859375) (-0.00019457150268554688, 3.560546875) (-0.00019321554565429686, 3.5625) (-0.00019196786499023436, 3.564453125) (-0.00019082760620117186, 3.56640625) (-0.00018979351806640624, 3.568359375) (-0.00018886390686035157, 3.5703125) (-0.00018803665161132811, 3.572265625) (-0.00018730926513671874, 3.57421875) (-0.00018667872619628905, 3.576171875) (-0.00018614175415039062, 3.578125) (-0.00018569468688964843, 3.580078125) (-0.00018533367919921874, 3.58203125) (-0.00018505453491210938, 3.583984375) (-0.00018485287475585935, 3.5859375) (-0.00018472409057617188, 3.587890625) (-0.00018466337585449217, 3.58984375) (-0.00018466577148437498, 3.591796875) (-0.0001847261962890625, 3.59375) (-0.00018483937072753906, 3.595703125) (-0.00018499987792968748, 3.59765625) (-0.0001852021789550781, 3.599609375) (-0.0001854405517578125, 3.6015625) (-0.0001857093048095703, 3.603515625) (-0.00018600262451171873, 3.60546875) (-0.00018631463623046873, 3.607421875) (-0.00018663958740234375, 3.609375) (-0.00018697161865234373, 3.611328125) (-0.00018730502319335937, 3.61328125) (-0.00018763424682617186, 3.615234375) (-0.00018795370483398437, 3.6171875) (-0.00018825807189941406, 3.619140625) (-0.00018854217529296874, 3.62109375) (-0.0001888010559082031, 3.623046875) (-0.00018903001403808593, 3.625) (-0.00018922454833984374, 3.626953125) (-0.0001893804931640625, 3.62890625) (-0.00018949389648437499, 3.630859375) (-0.00018956121826171874, 3.6328125) (-0.00018957911682128905, 3.634765625) (-0.00018954458618164062, 3.63671875) (-0.00018945489501953123, 3.638671875) (-0.00018930758666992187, 3.640625) (-0.00018910040283203123, 3.642578125) (-0.00018883139038085937, 3.64453125) (-0.00018849890136718748, 3.646484375) (-0.00018810148620605467, 3.6484375) (-0.00018763807678222655, 3.650390625) (-0.00018710781860351562, 3.65234375) (-0.00018651014709472656, 3.654296875) (-0.0001858447570800781, 3.65625) (-0.00018511181640625, 3.658203125) (-0.000184311767578125, 3.66015625) (-0.00018344535827636717, 3.662109375) (-0.00018251374816894531, 3.6640625) (-0.00018151840209960937, 3.666015625) (-0.00018046119689941404, 3.66796875) (-0.00017934461975097657, 3.669921875) (-0.00017817132568359375, 3.671875) (-0.00017694444274902343, 3.673828125) (-0.00017566744995117187, 3.67578125) (-0.00017434403991699218, 3.677734375) (-0.0001729783477783203, 3.6796875) (-0.0001715747833251953, 3.681640625) (-0.0001701376953125, 3.68359375) (-0.0001686714630126953, 3.685546875) (-0.00016718035888671875, 3.6875) (-0.00016566862487792967, 3.689453125) (-0.00016414047241210936, 3.69140625) (-0.0001626000061035156, 3.693359375) (-0.00016105120849609374, 3.6953125) (-0.000159497802734375, 3.697265625) (-0.00015794366455078125, 3.69921875) (-0.00015639254760742188, 3.701171875) (-0.00015484823608398436, 3.703125) (-0.00015331451416015625, 3.705078125) (-0.00015179498291015625, 3.70703125) (-0.0001502930145263672, 3.708984375) (-0.00014881187438964844, 3.7109375) (-0.00014735458374023436, 3.712890625) (-0.00014592404174804688, 3.71484375) (-0.00014452308654785157, 3.716796875) (-0.000143154296875, 3.71875) (-0.0001418197021484375, 3.720703125) (-0.00014052133178710938, 3.72265625) (-0.00013926080322265624, 3.724609375) (-0.00013803952026367186, 3.7265625) (-0.00013685858154296874, 3.728515625) (-0.00013571829223632813, 3.73046875) (-0.00013461795043945312, 3.732421875) (-0.00013355644226074217, 3.734375) (-0.00013253218078613282, 3.736328125) (-0.00013154269409179688, 3.73828125) (-0.0001305848388671875, 3.740234375) (-0.000129654541015625, 3.7421875) (-0.00012874679565429687, 3.744140625) (-0.00012785699462890623, 3.74609375) (-0.0001269808578491211, 3.748046875) (-0.00012611376953125, 3.75) (-0.00012525113677978514, 3.751953125) (-0.00012438876342773438, 3.75390625) (-0.00012352244567871094, 3.755859375) (-0.00012264886474609374, 3.7578125) (-0.00012176563262939452, 3.759765625) (-0.00012086912536621093, 3.76171875) (-0.00011995472717285155, 3.763671875) (-0.00011901747894287108, 3.765625) (-0.0001180514907836914, 3.767578125) (-0.00011705087280273437, 3.76953125) (-0.00011601013946533202, 3.771484375) (-0.00011492280578613281, 3.7734375) (-0.00011378178405761719, 3.775390625) (-0.00011258090209960936, 3.77734375) (-0.0001113141860961914, 3.779296875) (-0.00010997759246826171, 3.78125) (-0.00010856978607177734, 3.783203125) (-0.00010708759307861328, 3.78515625) (-0.00010552684020996094, 3.787109375) (-0.00010388235473632811, 3.7890625) (-0.00010214684295654297, 3.791015625) (-0.00010031704711914062, 3.79296875) (-9.839505004882811e-05, 3.794921875) (-9.638288116455078e-05, 3.796875) (-9.428343200683594e-05, 3.798828125) (-9.210516357421875e-05, 3.80078125) (-8.985907745361327e-05, 3.802734375) (-8.756383514404297e-05, 3.8046875) (-8.524696350097656e-05, 3.806640625) (-8.292830657958984e-05, 3.80859375) (-8.062088012695313e-05, 3.810546875) (-7.833337402343749e-05, 3.8125) (-7.606625366210937e-05, 3.814453125) (-7.382119750976562e-05, 3.81640625) (-7.160295104980469e-05, 3.818359375) (-6.941331481933593e-05, 3.8203125) (-6.725401306152344e-05, 3.822265625) (-6.512726593017578e-05, 3.82421875) (-6.30308609008789e-05, 3.826171875) (-6.096804046630859e-05, 3.828125) (-5.894908142089843e-05, 3.830078125) (-5.697266387939453e-05, 3.83203125) (-5.5030670166015625e-05, 3.833984375) (-5.310210037231445e-05, 3.8359375) (-5.114756393432617e-05, 3.837890625) (-4.914479827880859e-05, 3.83984375) (-4.709235382080078e-05, 3.841796875) (-4.499710083007812e-05, 3.84375) (-4.2880771636962886e-05, 3.845703125) (-4.077278900146484e-05, 3.84765625) (-3.870304107666015e-05, 3.849609375) (-3.6716186523437495e-05, 3.8515625) (-3.4870597839355464e-05, 3.853515625) (-3.3216197967529294e-05, 3.85546875) (-3.17990608215332e-05, 3.857421875) (-3.065460395812988e-05, 3.859375) (-2.9800432205200194e-05, 3.861328125) (-2.9266204833984373e-05, 3.86328125) (-2.9093267440795896e-05, 3.865234375) (-2.9335170745849608e-05, 3.8671875) (-3.0067413330078123e-05, 3.869140625) (-3.134979629516602e-05, 3.87109375) (-3.321374130249023e-05, 3.873046875) (-3.5679565429687496e-05, 3.875) (-3.8750980377197264e-05, 3.876953125) (-4.2411754608154295e-05, 3.87890625) (-4.6634647369384764e-05, 3.880859375) (-5.136404800415039e-05, 3.8828125) (-5.6508605957031245e-05, 3.884765625) (-6.197996139526368e-05, 3.88671875) (-6.769875335693359e-05, 3.888671875) (-7.359323120117187e-05, 3.890625) (-7.96125717163086e-05, 3.892578125) (-8.569986724853515e-05, 3.89453125) (-9.17821044921875e-05, 3.896484375) (-9.777772521972655e-05, 3.8984375) (-0.00010358605194091796, 3.900390625) (-0.00010910725402832031, 3.90234375) (-0.00011426223754882811, 3.904296875) (-0.00011898064422607421, 3.90625) (-0.00012320675659179686, 3.908203125) (-0.00012691506958007812, 3.91015625) (-0.00013010038757324218, 3.912109375) (-0.0001327921447753906, 3.9140625) (-0.00013506893920898436, 3.916015625) (-0.000137013427734375, 3.91796875) (-0.00013870654296874998, 3.919921875) (-0.00014024200439453124, 3.921875) (-0.00014169549560546875, 3.923828125) (-0.00014313700866699217, 3.92578125) (-0.00014464535522460938, 3.927734375) (-0.00014627450561523436, 3.9296875) (-0.0001481036376953125, 3.931640625) (-0.00015027748107910156, 3.93359375) (-0.00015290625, 3.935546875) (-0.0001560279541015625, 3.9375) (-0.00015958444213867186, 3.939453125) (-0.00016338107299804686, 3.94140625) (-0.0001671986846923828, 3.943359375) (-0.00017087028503417969, 3.9453125) (-0.00017413604736328124, 3.947265625) (-0.00017659582519531248, 3.94921875) (-0.000177909912109375, 3.951171875) (-0.00017790536499023436, 3.953125) (-0.00017677342224121093, 3.955078125) (-0.00017505880737304688, 3.95703125) (-0.00017327301025390625, 3.958984375) (-0.00017192514038085938, 3.9609375) (-0.00017156933593749998, 3.962890625) (-0.00017277694702148437, 3.96484375) (-0.00017615170288085938, 3.966796875) (-0.00018093626403808594, 3.96875) (-0.0001848395080566406, 3.970703125) (-0.0001859141387939453, 3.97265625) (-0.0001820632781982422, 3.974609375) (-0.00017375610351562498, 3.9765625) (-0.00016439971923828123, 3.978515625) (-0.00015354882812499999, 3.98046875) (-0.00013952256774902344, 3.982421875) (-0.00011816105651855468, 3.984375) (-8.02979736328125e-05, 3.986328125) (-2.3301208496093748e-05, 3.98828125) (5.2308387756347655e-05, 3.990234375) (0.00014531370544433592, 3.9921875) (0.0002457631225585937, 3.994140625) (0.0003444853210449219, 3.99609375) (0.0004320936584472656, 3.998046875) (0.0004930947875976563, 4.0) (0.0005186150512695312, 4.001953125) (0.0005058357543945313, 4.00390625) (0.0004556318969726562, 4.005859375) (0.00038065802001953125, 4.0078125) (0.00029633197021484373, 4.009765625) (0.00021416949462890625, 4.01171875) (0.00014684288024902344, 4.013671875) (0.00010143354797363281, 4.015625) (7.699379730224609e-05, 4.017578125) (7.21922378540039e-05, 4.01953125) (8.017445373535156e-05, 4.021484375) (8.922190856933593e-05, 4.0234375) (9.449417877197266e-05, 4.025390625) (9.256794738769531e-05, 4.02734375) (8.250077819824219e-05, 4.029296875) (7.123317718505859e-05, 4.03125) (6.125727081298827e-05, 4.033203125) (5.283193969726562e-05, 4.03515625) (4.736065292358398e-05, 4.037109375) (4.1129154205322264e-05, 4.0390625) (3.220582580566406e-05, 4.041015625) (2.1445274353027342e-05, 4.04296875) (8.634224891662597e-06, 4.044921875) (-4.4918870925903315e-06, 4.046875) (-1.597447109222412e-05, 4.048828125) (-2.5537452697753906e-05, 4.05078125) (-3.293812179565429e-05, 4.052734375) (-3.8167736053466796e-05, 4.0546875) (-4.168330383300781e-05, 4.056640625) (-4.3745231628417966e-05, 4.05859375) (-4.450650024414062e-05, 4.060546875) (-4.434540557861328e-05, 4.0625) (-4.371773529052734e-05, 4.064453125) (-4.2877929687499995e-05, 4.06640625) (-4.199565887451172e-05, 4.068359375) (-4.121290588378906e-05, 4.0703125) (-4.053058624267578e-05, 4.072265625) (-3.998889923095703e-05, 4.07421875) (-3.969740295410156e-05, 4.076171875) (-3.966930389404297e-05, 4.078125) (-3.9889331817626954e-05, 4.080078125) (-4.036279678344726e-05, 4.08203125) (-4.1058692932128905e-05, 4.083984375) (-4.195633316040039e-05, 4.0859375) (-4.305662536621093e-05, 4.087890625) (-4.4322593688964845e-05, 4.08984375) (-4.570714569091797e-05, 4.091796875) (-4.716760635375976e-05, 4.09375) (-4.8640747070312495e-05, 4.095703125) (-5.007450866699218e-05, 4.09765625) (-5.143092346191406e-05, 4.099609375) (-5.265829086303711e-05, 4.1015625) (-5.370858001708984e-05, 4.103515625) (-5.4531768798828124e-05, 4.10546875) (-5.506481552124023e-05, 4.107421875) (-5.526902389526367e-05, 4.109375) (-5.513046264648437e-05, 4.111328125) (-5.464474868774414e-05, 4.11328125) (-5.382569885253906e-05, 4.115234375) (-5.26930923461914e-05, 4.1171875) (-5.1265716552734375e-05, 4.119140625) (-4.9574649810791015e-05, 4.12109375) (-4.765877532958984e-05, 4.123046875) (-4.5553878784179685e-05, 4.125) (-4.3296852111816403e-05, 4.126953125) (-4.091924667358398e-05, 4.12890625) (-3.8444732666015625e-05, 4.130859375) (-3.590235900878906e-05, 4.1328125) (-3.332307434082031e-05, 4.134765625) (-3.073861694335937e-05, 4.13671875) (-2.818514823913574e-05, 4.138671875) (-2.56896858215332e-05, 4.140625) (-2.3268966674804685e-05, 4.142578125) (-2.093675422668457e-05, 4.14453125) (-1.8701793670654296e-05, 4.146484375) (-1.6569271087646485e-05, 4.1484375) (-1.4543575286865233e-05, 4.150390625) (-1.2623670578002929e-05, 4.15234375) (-1.0802780151367188e-05, 4.154296875) (-9.07631492614746e-06, 4.15625) (-7.441500663757324e-06, 4.158203125) (-5.896248817443848e-06, 4.16015625) (-4.440472602844238e-06, 4.162109375) (-3.07174015045166e-06, 4.1640625) (-1.7850949764251708e-06, 4.166015625) (-5.751742124557495e-07, 4.16796875) (5.640892982482909e-07, 4.169921875) (1.6384257078170777e-06, 4.171875) (2.653099536895752e-06, 4.173828125) (3.6140053272247314e-06, 4.17578125) (4.527530193328857e-06, 4.177734375) (5.39967679977417e-06, 4.1796875) (6.23624849319458e-06, 4.181640625) (7.042412757873535e-06, 4.18359375) (7.822615623474121e-06, 4.185546875) (8.582368850708008e-06, 4.1875) (9.328048706054687e-06, 4.189453125) (1.0066195487976074e-05, 4.19140625) (1.0803620338439941e-05, 4.193359375) (1.154682731628418e-05, 4.1953125) (1.2301864624023438e-05, 4.197265625) (1.3074790954589843e-05, 4.19921875) (1.3871635437011718e-05, 4.201171875) (1.4697648048400878e-05, 4.203125) (1.5557218551635743e-05, 4.205078125) (1.6454040527343748e-05, 4.20703125) (1.7391086578369138e-05, 4.208984375) (1.8370868682861326e-05, 4.2109375) (1.939552307128906e-05, 4.212890625) (2.0466636657714843e-05, 4.21484375) (2.1585098266601562e-05, 4.216796875) (2.275132942199707e-05, 4.21875) (2.396542930603027e-05, 4.220703125) (2.522706985473633e-05, 4.22265625) (2.6535541534423826e-05, 4.224609375) (2.788970947265625e-05, 4.2265625) (2.9287906646728515e-05, 4.228515625) (3.072800827026367e-05, 4.23046875) (3.2207546234130856e-05, 4.232421875) (3.372365188598633e-05, 4.234375) (3.527302551269531e-05, 4.236328125) (3.6852039337158204e-05, 4.23828125) (3.845671081542969e-05, 4.240234375) (4.008279418945312e-05, 4.2421875) (4.172584533691406e-05, 4.244140625) (4.338125228881836e-05, 4.24609375) (4.504423141479492e-05, 4.248046875) (4.6709842681884765e-05, 4.25) (4.837296295166015e-05, 4.251953125) (5.0028369903564454e-05, 4.25390625) (5.1670768737792964e-05, 4.255859375) (5.329479217529297e-05, 4.2578125) (5.489505386352539e-05, 4.259765625) (5.6466171264648437e-05, 4.26171875) (5.800274658203125e-05, 4.263671875) (5.949958038330078e-05, 4.265625) (6.095169067382812e-05, 4.267578125) (6.235426330566406e-05, 4.26953125) (6.370268630981445e-05, 4.271484375) (6.499256134033202e-05, 4.2734375) (6.621961212158203e-05, 4.275390625) (6.737977600097656e-05, 4.27734375) (6.846923065185547e-05, 4.279296875) (6.948433685302734e-05, 4.28125) (7.042166137695312e-05, 4.283203125) (7.127799987792968e-05, 4.28515625) (7.205043792724609e-05, 4.287109375) (7.273641967773437e-05, 4.2890625) (7.33337173461914e-05, 4.291015625) (7.384046936035155e-05, 4.29296875) (7.425521087646484e-05, 4.294921875) (7.457682800292969e-05, 4.296875) (7.480457305908202e-05, 4.298828125) (7.493804931640624e-05, 4.30078125) (7.49771728515625e-05, 4.302734375) (7.492221069335938e-05, 4.3046875) (7.477378845214843e-05, 4.306640625) (7.453282165527344e-05, 4.30859375) (7.420059967041016e-05, 4.310546875) (7.377873229980468e-05, 4.3125) (7.326920318603516e-05, 4.314453125) (7.267434692382813e-05, 4.31640625) (7.199684143066406e-05, 4.318359375) (7.123965454101563e-05, 4.3203125) (7.040609741210937e-05, 4.322265625) (6.949971008300781e-05, 4.32421875) (6.852435302734375e-05, 4.326171875) (6.748406982421875e-05, 4.328125) (6.638317871093749e-05, 4.330078125) (6.522624206542969e-05, 4.33203125) (6.40180435180664e-05, 4.333984375) (6.276358795166016e-05, 4.3359375) (6.146810913085937e-05, 4.337890625) (6.013703918457031e-05, 4.33984375) (5.877597427368164e-05, 4.341796875) (5.7390636444091796e-05, 4.34375) (5.5986801147460935e-05, 4.345703125) (5.457025146484375e-05, 4.34765625) (5.3146713256835934e-05, 4.349609375) (5.172181701660156e-05, 4.3515625) (5.030105972290039e-05, 4.353515625) (4.888979339599609e-05, 4.35546875) (4.7493167877197265e-05, 4.357421875) (4.611616897583008e-05, 4.359375) (4.476359558105469e-05, 4.361328125) (4.3440059661865235e-05, 4.36328125) (4.215000915527344e-05, 4.365234375) (4.0897666931152345e-05, 4.3671875) (3.9687038421630855e-05, 4.369140625) (3.852190017700195e-05, 4.37109375) (3.7405757904052735e-05, 4.373046875) (3.634188079833984e-05, 4.375) (3.5333248138427735e-05, 4.376953125) (3.438260269165039e-05, 4.37890625) (3.349242782592773e-05, 4.380859375) (3.266495513916016e-05, 4.3828125) (3.1902183532714844e-05, 4.384765625) (3.120590019226074e-05, 4.38671875) (3.0577632904052736e-05, 4.388671875) (3.0018672943115233e-05, 4.390625) (2.953001022338867e-05, 4.392578125) (2.9112331390380857e-05, 4.39453125) (2.87659797668457e-05, 4.396484375) (2.8490962982177733e-05, 4.3984375) (2.828693962097168e-05, 4.400390625) (2.8153236389160155e-05, 4.40234375) (2.80888614654541e-05, 4.404296875) (2.8092580795288085e-05, 4.40625) (2.816295051574707e-05, 4.408203125) (2.829836654663086e-05, 4.41015625) (2.849711799621582e-05, 4.412109375) (2.875741958618164e-05, 4.4140625) (2.9077438354492187e-05, 4.416015625) (2.945529556274414e-05, 4.41796875) (2.988908767700195e-05, 4.419921875) (3.0376861572265624e-05, 4.421875) (3.091664886474609e-05, 4.423828125) (3.150642776489258e-05, 4.42578125) (3.214417648315429e-05, 4.427734375) (3.282782745361328e-05, 4.4296875) (3.355533981323242e-05, 4.431640625) (3.432467269897461e-05, 4.43359375) (3.513378524780273e-05, 4.435546875) (3.5980636596679686e-05, 4.4375) (3.686317825317383e-05, 4.439453125) (3.777930068969726e-05, 4.44140625) (3.8726829528808594e-05, 4.443359375) (3.9703495025634764e-05, 4.4453125) (4.0706939697265625e-05, 4.447265625) (4.173469543457031e-05, 4.44921875) (4.278425598144531e-05, 4.451171875) (4.385304260253906e-05, 4.453125) (4.493851470947266e-05, 4.455078125) (4.603816986083984e-05, 4.45703125) (4.714963150024414e-05, 4.458984375) (4.827063369750976e-05, 4.4609375) (4.939906311035156e-05, 4.462890625) (5.05329360961914e-05, 4.46484375) (5.167037582397461e-05, 4.466796875) (5.280958938598633e-05, 4.46875) (5.39488525390625e-05, 4.470703125) (5.5086460113525386e-05, 4.47265625) (5.622071075439453e-05, 4.474609375) (5.734989547729492e-05, 4.4765625) (5.8472293853759764e-05, 4.478515625) (5.9586166381835936e-05, 4.48046875) (6.068978118896484e-05, 4.482421875) (6.178141021728516e-05, 4.484375) (6.285931015014648e-05, 4.486328125) (6.392173385620116e-05, 4.48828125) (6.496690368652344e-05, 4.490234375) (6.599302673339843e-05, 4.4921875) (6.699827575683593e-05, 4.494140625) (6.798078918457031e-05, 4.49609375) (6.893873596191406e-05, 4.498046875) (6.987028503417968e-05, 4.5) (7.077370452880859e-05, 4.501953125) (7.164736175537109e-05, 4.50390625) (7.248983764648438e-05, 4.505859375) (7.329986572265625e-05, 4.5078125) (7.407642364501952e-05, 4.509765625) (7.48186798095703e-05, 4.51171875) (7.552593231201171e-05, 4.513671875) (7.619765472412109e-05, 4.515625) (7.683338165283203e-05, 4.517578125) (7.743269348144531e-05, 4.51953125) (7.799517822265625e-05, 4.521484375) (7.852037048339844e-05, 4.5234375) (7.900775146484375e-05, 4.525390625) (7.945680236816406e-05, 4.52734375) (7.986692810058594e-05, 4.529296875) (8.023755645751953e-05, 4.53125) (8.056808471679687e-05, 4.533203125) (8.085794830322265e-05, 4.53515625) (8.110650634765625e-05, 4.537109375) (8.131314086914062e-05, 4.5390625) (8.147723388671874e-05, 4.541015625) (8.159809112548827e-05, 4.54296875) (8.167506408691406e-05, 4.544921875) (8.170744323730468e-05, 4.546875) (8.16945571899414e-05, 4.548828125) (8.163574981689453e-05, 4.55078125) (8.153045654296874e-05, 4.552734375) (8.1378173828125e-05, 4.5546875) (8.117848205566406e-05, 4.556640625) (8.093104553222656e-05, 4.55859375) (8.063552093505859e-05, 4.560546875) (8.029159545898437e-05, 4.5625) (7.989894104003906e-05, 4.564453125) (7.945712280273437e-05, 4.56640625) (7.896562194824219e-05, 4.568359375) (7.842375183105468e-05, 4.5703125) (7.783074188232421e-05, 4.572265625) (7.718572235107422e-05, 4.57421875) (7.648779296874999e-05, 4.576171875) (7.573603057861327e-05, 4.578125) (7.492953491210937e-05, 4.580078125) (7.406745147705078e-05, 4.58203125) (7.31490249633789e-05, 4.583984375) (7.217362976074219e-05, 4.5859375) (7.114077758789062e-05, 4.587890625) (7.00501708984375e-05, 4.58984375) (6.890165710449218e-05, 4.591796875) (6.769531249999999e-05, 4.59375) (6.643133544921875e-05, 4.595703125) (6.51102066040039e-05, 4.59765625) (6.373276138305664e-05, 4.599609375) (6.230011367797851e-05, 4.6015625) (6.081372833251953e-05, 4.603515625) (5.927534484863281e-05, 4.60546875) (5.7686943054199215e-05, 4.607421875) (5.605081558227539e-05, 4.609375) (5.4369602203369135e-05, 4.611328125) (5.264615631103515e-05, 4.61328125) (5.088349151611328e-05, 4.615234375) (4.9084850311279294e-05, 4.6171875) (4.725360107421875e-05, 4.619140625) (4.5393356323242184e-05, 4.62109375) (4.350799942016601e-05, 4.623046875) (4.160161209106445e-05, 4.625) (3.967842102050781e-05, 4.626953125) (3.774295425415039e-05, 4.62890625) (3.5799911499023436e-05, 4.630859375) (3.385414505004883e-05, 4.6328125) (3.191071891784668e-05, 4.634765625) (2.9974796295166014e-05, 4.63671875) (2.8051546096801758e-05, 4.638671875) (2.6146249771118163e-05, 4.640625) (2.4264251708984375e-05, 4.642578125) (2.2410911560058594e-05, 4.64453125) (2.0591733932495117e-05, 4.646484375) (1.8812259674072266e-05, 4.6484375) (1.707792091369629e-05, 4.650390625) (1.539403438568115e-05, 4.65234375) (1.3765755653381347e-05, 4.654296875) (1.2198061943054199e-05, 4.65625) (1.0695819854736328e-05, 4.658203125) (9.263564109802245e-06, 4.66015625) (7.905208587646484e-06, 4.662109375) (6.6242341995239256e-06, 4.6640625) (5.423688888549805e-06, 4.666015625) (4.306240081787109e-06, 4.66796875) (3.274400949478149e-06, 4.669921875) (2.3301949501037597e-06, 4.671875) (1.4749829769134521e-06, 4.673828125) (7.0975923538208e-07, 4.67578125) (3.5186797380447384e-08, 4.677734375) (-5.48587441444397e-07, 4.6796875) (-1.041792869567871e-06, 4.681640625) (-1.445127248764038e-06, 4.68359375) (-1.760011315345764e-06, 4.685546875) (-1.9881892204284667e-06, 4.6875) (-2.1315584182739256e-06, 4.689453125) (-2.192504405975342e-06, 4.69140625) (-2.17368221282959e-06, 4.693359375) (-2.0776288509368897e-06, 4.6953125) (-1.9070641994476317e-06, 4.697265625) (-1.6647002696990967e-06, 4.69921875) (-1.352961778640747e-06, 4.701171875) (-9.74715232849121e-07, 4.703125) (-5.333414673805236e-07, 4.705078125) (-3.2346069812774656e-08, 4.70703125) (5.241301655769348e-07, 4.708984375) (1.131096601486206e-06, 4.7109375) (1.7833437919616698e-06, 4.712890625) (2.4749062061309814e-06, 4.71484375) (3.1987900733947754e-06, 4.716796875) (3.9483048915863035e-06, 4.71875) (4.71672248840332e-06, 4.720703125) (5.497652053833007e-06, 4.72265625) (6.286374092102051e-06, 4.724609375) (7.078389167785644e-06, 4.7265625) (7.868781566619872e-06, 4.728515625) (8.652922630310059e-06, 4.73046875) (9.42598533630371e-06, 4.732421875) (1.0183237075805663e-05, 4.734375) (1.0921447753906249e-05, 4.736328125) (1.1636117935180664e-05, 4.73828125) (1.231993007659912e-05, 4.740234375) (1.2967132568359374e-05, 4.7421875) (1.3572908401489257e-05, 4.744140625) (1.4135220527648925e-05, 4.74609375) (1.4657402038574218e-05, 4.748046875) (1.5140239715576171e-05, 4.75) (1.5580063819885252e-05, 4.751953125) (1.5972510337829588e-05, 4.75390625) (1.6311176300048826e-05, 4.755859375) (1.6587156295776366e-05, 4.7578125) (1.6792556762695312e-05, 4.759765625) (1.6914756774902345e-05, 4.76171875) (1.693272018432617e-05, 4.763671875) (1.6827873229980468e-05, 4.765625) (1.6583000183105467e-05, 4.767578125) (1.6187030792236327e-05, 4.76953125) (1.564414691925049e-05, 4.771484375) (1.4959951400756836e-05, 4.7734375) (1.4138469696044922e-05, 4.775390625) (1.318076229095459e-05, 4.77734375) (1.20812349319458e-05, 4.779296875) (1.0844262123107909e-05, 4.78125) (9.490922927856444e-06, 4.783203125) (8.046650886535644e-06, 4.78515625) (6.535465240478516e-06, 4.787109375) (4.9870929718017574e-06, 4.7890625) (3.4328207969665527e-06, 4.791015625) (1.922353267669678e-06, 4.79296875) (5.372960567474365e-07, 4.794921875) (-6.448491811752319e-07, 4.796875) (-1.554359197616577e-06, 4.798828125) (-2.133998394012451e-06, 4.80078125) (-2.3570246696472167e-06, 4.802734375) (-2.2012817859649657e-06, 4.8046875) (-1.6417385339736938e-06, 4.806640625) (-6.537351608276367e-07, 4.80859375) (7.85296082496643e-07, 4.810546875) (2.675048828125e-06, 4.8125) (4.9845905303955075e-06, 4.814453125) (7.668080329895019e-06, 4.81640625) (1.0682283401489258e-05, 4.818359375) (1.3977925300598145e-05, 4.8203125) (1.7495122909545898e-05, 4.822265625) (2.113786697387695e-05, 4.82421875) (2.475864028930664e-05, 4.826171875) (2.8205484390258788e-05, 4.828125) (3.1330490112304684e-05, 4.830078125) (3.400535202026367e-05, 4.83203125) (3.613107681274414e-05, 4.833984375) (3.760810089111328e-05, 4.8359375) (3.835536193847656e-05, 4.837890625) (3.828262710571289e-05, 4.83984375) (3.7293521881103515e-05, 4.841796875) (3.5368148803710935e-05, 4.84375) (3.255585098266602e-05, 4.845703125) (2.8984455108642577e-05, 4.84765625) (2.4885494232177732e-05, 4.849609375) (2.051066207885742e-05, 4.8515625) (1.606500816345215e-05, 4.853515625) (1.1830379486083984e-05, 4.85546875) (8.181459426879883e-06, 4.857421875) (5.413219451904296e-06, 4.859375) (3.7394075393676755e-06, 4.861328125) (3.1176428794860836e-06, 4.86328125) (3.1531786918640135e-06, 4.865234375) (3.3453147411346435e-06, 4.8671875) (3.315980195999145e-06, 4.869140625) (2.851190328598022e-06, 4.87109375) (1.645065426826477e-06, 4.873046875) (-5.923272967338562e-07, 4.875) (-3.925216436386108e-06, 4.876953125) (-8.125261306762696e-06, 4.87890625) (-1.152147102355957e-05, 4.880859375) (-1.099473762512207e-05, 4.8828125) (-4.050627708435058e-06, 4.884765625) (1.1130080223083495e-05, 4.88671875) (3.362551498413086e-05, 4.888671875) (5.890528106689453e-05, 4.890625) (8.403736114501952e-05, 4.892578125) (0.00010823786163330077, 4.89453125) (0.00013571562194824219, 4.896484375) (0.000177183837890625, 4.8984375) (0.0002412799835205078, 4.900390625) (0.0003316912841796875, 4.90234375) (0.0004428726196289062, 4.904296875) (0.0005571035766601562, 4.90625) (0.0006531822509765624, 4.908203125) (0.0007118310546875, 4.91015625) (0.000721057373046875, 4.912109375) (0.0006819751586914062, 4.9140625) (0.0006055364990234374, 4.916015625) (0.0005082849731445312, 4.91796875) (0.0004092413330078125, 4.919921875) (0.0003237364196777344, 4.921875) (0.00026035394287109376, 4.923828125) (0.00022181842041015624, 4.92578125) (0.00020469056701660155, 4.927734375) (0.00020121185302734374, 4.9296875) (0.00020446786499023437, 4.931640625) (0.00020886456298828125, 4.93359375) (0.00020970019531249998, 4.935546875) (0.00020635255432128904, 4.9375) (0.00019862945556640624, 4.939453125) (0.00018604154968261718, 4.94140625) (0.00017141900634765625, 4.943359375) (0.0001558500213623047, 4.9453125) (0.00013976690673828124, 4.947265625) (0.00012464647674560546, 4.94921875) (0.0001090806884765625, 4.951171875) (9.252903747558593e-05, 4.953125) (7.59093017578125e-05, 4.955078125) (5.9520320892333985e-05, 4.95703125) (4.4750156402587886e-05, 4.958984375) (3.2589477539062495e-05, 4.9609375) (2.2889080047607422e-05, 4.962890625) (1.5531914710998535e-05, 4.96484375) (1.0150337219238281e-05, 4.966796875) (6.256817817687988e-06, 4.96875) (3.544994354248047e-06, 4.970703125) (1.6416376829147337e-06, 4.97265625) (2.017073333263397e-07, 4.974609375) (-9.563204050064087e-07, 4.9765625) (-1.925569772720337e-06, 4.978515625) (-2.730011463165283e-06, 4.98046875) (-3.3876447677612305e-06, 4.982421875) (-3.939793348312378e-06, 4.984375) (-4.434781551361084e-06, 4.986328125) (-4.903250694274902e-06, 4.98828125) (-5.3664436340332025e-06, 4.990234375) (-5.859825134277343e-06, 4.9921875) (-6.3974194526672364e-06, 4.994140625) (-7.001084327697754e-06, 4.99609375) (-7.695944309234618e-06, 4.998046875) (-8.471434593200683e-06, 5.0) (-9.319271087646483e-06, 5.001953125) (-1.0219511032104491e-05, 5.00390625) (-1.1125279426574707e-05, 5.005859375) (-1.2000107765197753e-05, 5.0078125) (-1.2815237998962401e-05, 5.009765625) (-1.3541959762573242e-05, 5.01171875) (-1.4170701026916504e-05, 5.013671875) (-1.4692594528198242e-05, 5.015625) (-1.5074645996093749e-05, 5.017578125) (-1.529981231689453e-05, 5.01953125) (-1.536346912384033e-05, 5.021484375) (-1.5256523132324219e-05, 5.0234375) (-1.5003427505493164e-05, 5.025390625) (-1.4615969657897948e-05, 5.02734375) (-1.4075288772583008e-05, 5.029296875) (-1.3383121490478516e-05, 5.03125) (-1.2546591758728028e-05, 5.033203125) (-1.1579429626464843e-05, 5.03515625) (-1.051876449584961e-05, 5.037109375) (-9.395933151245117e-06, 5.0390625) (-8.22583770751953e-06, 5.041015625) (-7.027095794677734e-06, 5.04296875) (-5.815632820129394e-06, 5.044921875) (-4.605599403381348e-06, 5.046875) (-3.4262058734893796e-06, 5.048828125) (-2.2934193611145017e-06, 5.05078125) (-1.209685206413269e-06, 5.052734375) (-1.80837482213974e-07, 5.0546875) (8.024048805236816e-07, 5.056640625) (1.7338888645172117e-06, 5.05859375) (2.582041263580322e-06, 5.060546875) (3.3283560276031493e-06, 5.0625) (3.9625902175903315e-06, 5.064453125) (4.478444576263427e-06, 5.06640625) (4.883735656738281e-06, 5.068359375) (5.183732986450195e-06, 5.0703125) (5.372325897216797e-06, 5.072265625) (5.4525589942932125e-06, 5.07421875) (5.435384273529052e-06, 5.076171875) (5.330372333526611e-06, 5.078125) (5.1533727645874025e-06, 5.080078125) (4.913150787353515e-06, 5.08203125) (4.609106063842773e-06, 5.083984375) (4.243771076202392e-06, 5.0859375) (3.81825566291809e-06, 5.087890625) (3.3423523902893065e-06, 5.08984375) (2.838151454925537e-06, 5.091796875) (2.323481559753418e-06, 5.09375) (1.8122673034667968e-06, 5.095703125) (1.318703293800354e-06, 5.09765625) (8.53412389755249e-07, 5.099609375) (4.286898672580719e-07, 5.1015625) (6.180968508124351e-08, 5.103515625) (-2.364007830619812e-07, 5.10546875) (-4.6173927187919617e-07, 5.107421875) (-6.087926626205444e-07, 5.109375) (-6.732521057128905e-07, 5.111328125) (-6.485800147056579e-07, 5.11328125) (-5.24297833442688e-07, 5.115234375) (-2.920274436473846e-07, 5.1171875) (5.44431209564209e-08, 5.119140625) (5.196799039840698e-07, 5.12109375) (1.1056853532791136e-06, 5.123046875) (1.8142595291137694e-06, 5.125) (2.647374391555786e-06, 5.126953125) (3.605192184448242e-06, 5.12890625) (4.686516284942627e-06, 5.130859375) (5.888974666595458e-06, 5.1328125) (7.208608150482178e-06, 5.134765625) (8.642488479614257e-06, 5.13671875) (1.0188878059387206e-05, 5.138671875) (1.1844744682312011e-05, 5.140625) (1.3606128692626952e-05, 5.142578125) (1.5468151092529298e-05, 5.14453125) (1.742452812194824e-05, 5.146484375) (1.946885871887207e-05, 5.1484375) (2.159473419189453e-05, 5.150390625) (2.3794418334960937e-05, 5.15234375) (2.6059020996093748e-05, 5.154296875) (2.8379295349121093e-05, 5.15625) (3.0745548248291015e-05, 5.158203125) (3.314803314208984e-05, 5.16015625) (3.5577171325683595e-05, 5.162109375) (3.8022972106933595e-05, 5.1640625) (4.047510910034179e-05, 5.166015625) (4.2923194885253906e-05, 5.16796875) (4.535682296752929e-05, 5.169921875) (4.7765510559082026e-05, 5.171875) (5.0138717651367186e-05, 5.173828125) (5.246578598022461e-05, 5.17578125) (5.473591232299804e-05, 5.177734375) (5.693836212158203e-05, 5.1796875) (5.906264495849609e-05, 5.181640625) (6.109856796264648e-05, 5.18359375) (6.303631210327149e-05, 5.185546875) (6.486650085449218e-05, 5.1875) (6.658020019531249e-05, 5.189453125) (6.816908264160156e-05, 5.19140625) (6.962542724609374e-05, 5.193359375) (7.0942138671875e-05, 5.1953125) (7.21126708984375e-05, 5.197265625) (7.313099670410156e-05, 5.19921875) (7.39915313720703e-05, 5.201171875) (7.468933868408203e-05, 5.203125) (7.522017669677734e-05, 5.205078125) (7.558038330078124e-05, 5.20703125) (7.576698303222656e-05, 5.208984375) (7.577775573730469e-05, 5.2109375) (7.561115264892577e-05, 5.212890625) (7.526653289794922e-05, 5.21484375) (7.474422454833984e-05, 5.216796875) (7.404523468017578e-05, 5.21875) (7.317126464843749e-05, 5.220703125) (7.212472534179687e-05, 5.22265625) (7.090856933593749e-05, 5.224609375) (6.952647399902343e-05, 5.2265625) (6.798279571533203e-05, 5.228515625) (6.628241729736328e-05, 5.23046875) (6.443083190917968e-05, 5.232421875) (6.243416976928711e-05, 5.234375) (6.02991943359375e-05, 5.236328125) (5.8033302307128906e-05, 5.23828125) (5.564446640014648e-05, 5.240234375) (5.314115905761719e-05, 5.2421875) (5.053219604492187e-05, 5.244140625) (4.7826683044433594e-05, 5.24609375) (4.5033939361572266e-05, 5.248046875) (4.216336059570312e-05, 5.25) (3.922438812255859e-05, 5.251953125) (3.6226425170898436e-05, 5.25390625) (3.317880249023437e-05, 5.255859375) (3.0090761184692383e-05, 5.2578125) (2.697145462036133e-05, 5.259765625) (2.38299446105957e-05, 5.26171875) (2.0675163269042967e-05, 5.263671875) (1.7515853881835936e-05, 5.265625) (1.4360546112060546e-05, 5.267578125) (1.1217498779296875e-05, 5.26953125) (8.094655036926268e-06, 5.271484375) (4.999586582183838e-06, 5.2734375) (1.939465045928955e-06, 5.275390625) (-1.0789830684661866e-06, 5.27734375) (-4.049475669860839e-06, 5.279296875) (-6.9661374092102045e-06, 5.28125) (-9.823502540588379e-06, 5.283203125) (-1.2616508483886718e-05, 5.28515625) (-1.5340495109558104e-05, 5.287109375) (-1.7991214752197265e-05, 5.2890625) (-2.0564865112304688e-05, 5.291015625) (-2.3058082580566404e-05, 5.29296875) (-2.5467987060546872e-05, 5.294921875) (-2.779220962524414e-05, 5.296875) (-3.0028884887695312e-05, 5.298828125) (-3.217665481567383e-05, 5.30078125) (-3.423460388183593e-05, 5.302734375) (-3.620223236083984e-05, 5.3046875) (-3.807936859130859e-05, 5.306640625) (-3.986612319946289e-05, 5.30859375) (-4.156281280517578e-05, 5.310546875) (-4.316991806030273e-05, 5.3125) (-4.4688018798828125e-05, 5.314453125) (-4.6117759704589844e-05, 5.31640625) (-4.745986938476562e-05, 5.318359375) (-4.871514129638672e-05, 5.3203125) (-4.988442993164062e-05, 5.322265625) (-5.096863174438476e-05, 5.32421875) (-5.196870422363281e-05, 5.326171875) (-5.2885604858398434e-05, 5.328125) (-5.372030639648437e-05, 5.330078125) (-5.447378540039062e-05, 5.33203125) (-5.514697647094726e-05, 5.333984375) (-5.574079895019531e-05, 5.3359375) (-5.625612640380859e-05, 5.337890625) (-5.6693798065185545e-05, 5.33984375) (-5.705467224121093e-05, 5.341796875) (-5.733963775634765e-05, 5.34375) (-5.7549606323242184e-05, 5.345703125) (-5.768556213378906e-05, 5.34765625) (-5.774856567382812e-05, 5.349609375) (-5.773971939086914e-05, 5.3515625) (-5.766017913818359e-05, 5.353515625) (-5.751115798950195e-05, 5.35546875) (-5.7293880462646484e-05, 5.357421875) (-5.7009635925292964e-05, 5.359375) (-5.665973663330078e-05, 5.361328125) (-5.624554824829101e-05, 5.36328125) (-5.5768547058105466e-05, 5.365234375) (-5.5230304718017574e-05, 5.3671875) (-5.4632579803466795e-05, 5.369140625) (-5.3977325439453125e-05, 5.37109375) (-5.326673126220703e-05, 5.373046875) (-5.250322723388672e-05, 5.375) (-5.168952941894531e-05, 5.376953125) (-5.082862854003906e-05, 5.37890625) (-4.992380142211914e-05, 5.380859375) (-4.8978618621826167e-05, 5.3828125) (-4.79969367980957e-05, 5.384765625) (-4.698288345336914e-05, 5.38671875) (-4.5940868377685545e-05, 5.388671875) (-4.487553405761719e-05, 5.390625) (-4.379179763793945e-05, 5.392578125) (-4.2694801330566404e-05, 5.39453125) (-4.1589881896972656e-05, 5.396484375) (-4.04825325012207e-05, 5.3984375) (-3.9378353118896484e-05, 5.400390625) (-3.828303146362305e-05, 5.40234375) (-3.720227813720703e-05, 5.404296875) (-3.6141796112060544e-05, 5.40625) (-3.510724258422852e-05, 5.408203125) (-3.4104171752929686e-05, 5.41015625) (-3.3137985229492185e-05, 5.412109375) (-3.221392822265625e-05, 5.4140625) (-3.13370475769043e-05, 5.416015625) (-3.051217269897461e-05, 5.41796875) (-2.9743854522705078e-05, 5.419921875) (-2.9036333084106444e-05, 5.421875) (-2.8393478393554687e-05, 5.423828125) (-2.7818778991699217e-05, 5.42578125) (-2.731531524658203e-05, 5.427734375) (-2.68857421875e-05, 5.4296875) (-2.653224182128906e-05, 5.431640625) (-2.6256507873535156e-05, 5.43359375) (-2.6059703826904296e-05, 5.435546875) (-2.5942497253417966e-05, 5.4375) (-2.59050235748291e-05, 5.439453125) (-2.59468994140625e-05, 5.44140625) (-2.6067197799682615e-05, 5.443359375) (-2.626441955566406e-05, 5.4453125) (-2.653650093078613e-05, 5.447265625) (-2.6880836486816405e-05, 5.44921875) (-2.7294303894042966e-05, 5.451171875) (-2.7773283004760743e-05, 5.453125) (-2.831370162963867e-05, 5.455078125) (-2.8911033630371093e-05, 5.45703125) (-2.9560356140136718e-05, 5.458984375) (-3.025642967224121e-05, 5.4609375) (-3.099375534057617e-05, 5.462890625) (-3.176662445068359e-05, 5.46484375) (-3.256914138793945e-05, 5.466796875) (-3.3395259857177735e-05, 5.46875) (-3.4238807678222656e-05, 5.470703125) (-3.509363555908203e-05, 5.47265625) (-3.595365905761719e-05, 5.474609375) (-3.6812911987304684e-05, 5.4765625) (-3.766559600830078e-05, 5.478515625) (-3.850616073608398e-05, 5.48046875) (-3.9329338073730464e-05, 5.482421875) (-4.013029479980469e-05, 5.484375) (-4.090470123291015e-05, 5.486328125) (-4.164871215820312e-05, 5.48828125) (-4.2358985900878904e-05, 5.490234375) (-4.3032665252685544e-05, 5.4921875) (-4.366739273071289e-05, 5.494140625) (-4.426137542724609e-05, 5.49609375) (-4.481340026855468e-05, 5.498046875) (-4.532280731201172e-05, 5.5) (-4.578952026367187e-05, 5.501953125) (-4.6213970184326166e-05, 5.50390625) (-4.659711456298828e-05, 5.505859375) (-4.694051361083984e-05, 5.5078125) (-4.72463150024414e-05, 5.509765625) (-4.7517181396484374e-05, 5.51171875) (-4.7756271362304685e-05, 5.513671875) (-4.796713256835937e-05, 5.515625) (-4.8153633117675776e-05, 5.517578125) (-4.8320045471191406e-05, 5.51953125) (-4.847103118896484e-05, 5.521484375) (-4.8611461639404295e-05, 5.5234375) (-4.8746391296386715e-05, 5.525390625) (-4.888101196289062e-05, 5.52734375) (-4.902058792114258e-05, 5.529296875) (-4.9170551300048824e-05, 5.53125) (-4.933643341064453e-05, 5.533203125) (-4.952365112304687e-05, 5.53515625) (-4.9737380981445314e-05, 5.537109375) (-4.9982574462890624e-05, 5.5390625) (-5.026385116577148e-05, 5.541015625) (-5.058546447753906e-05, 5.54296875) (-5.095127487182617e-05, 5.544921875) (-5.1364418029785156e-05, 5.546875) (-5.1827266693115234e-05, 5.548828125) (-5.234157562255859e-05, 5.55078125) (-5.290840148925781e-05, 5.552734375) (-5.352820968627929e-05, 5.5546875) (-5.420094299316406e-05, 5.556640625) (-5.4925758361816405e-05, 5.55859375) (-5.57010612487793e-05, 5.560546875) (-5.652455139160156e-05, 5.5625) (-5.73931770324707e-05, 5.564453125) (-5.830329895019531e-05, 5.56640625) (-5.925079345703125e-05, 5.568359375) (-6.023081588745117e-05, 5.5703125) (-6.123783874511718e-05, 5.572265625) (-6.226585388183594e-05, 5.57421875) (-6.330838012695312e-05, 5.576171875) (-6.43587188720703e-05, 5.578125) (-6.541010284423828e-05, 5.580078125) (-6.645530700683593e-05, 5.58203125) (-6.748666381835937e-05, 5.583984375) (-6.849647521972656e-05, 5.5859375) (-6.947697448730469e-05, 5.587890625) (-7.042029571533203e-05, 5.58984375) (-7.131871032714843e-05, 5.591796875) (-7.216419982910156e-05, 5.59375) (-7.294859313964843e-05, 5.595703125) (-7.366410827636718e-05, 5.59765625) (-7.430358123779296e-05, 5.599609375) (-7.48600082397461e-05, 5.6015625) (-7.532676696777343e-05, 5.603515625) (-7.569783020019531e-05, 5.60546875) (-7.596753692626953e-05, 5.607421875) (-7.613162231445312e-05, 5.609375) (-7.618744659423828e-05, 5.611328125) (-7.613294219970703e-05, 5.61328125) (-7.596672058105469e-05, 5.615234375) (-7.568852233886718e-05, 5.6171875) (-7.529881286621093e-05, 5.619140625) (-7.479940032958984e-05, 5.62109375) (-7.419390106201172e-05, 5.623046875) (-7.348619842529297e-05, 5.625) (-7.268061828613281e-05, 5.626953125) (-7.178294372558593e-05, 5.62890625) (-7.079963684082031e-05, 5.630859375) (-6.973895263671875e-05, 5.6328125) (-6.86114730834961e-05, 5.634765625) (-6.742771911621093e-05, 5.63671875) (-6.619827270507812e-05, 5.638671875) (-6.493416595458984e-05, 5.640625) (-6.364530181884766e-05, 5.642578125) (-6.234278106689453e-05, 5.64453125) (-6.104029083251952e-05, 5.646484375) (-5.974847412109375e-05, 5.6484375) (-5.84761962890625e-05, 5.650390625) (-5.723300170898437e-05, 5.65234375) (-5.602638244628906e-05, 5.654296875) (-5.486902618408203e-05, 5.65625) (-5.3780117034912106e-05, 5.658203125) (-5.277506256103515e-05, 5.66015625) (-5.1866279602050776e-05, 5.662109375) (-5.1066101074218746e-05, 5.6640625) (-5.0382934570312496e-05, 5.666015625) (-4.982712173461914e-05, 5.66796875) (-4.9413158416748045e-05, 5.669921875) (-4.914795684814453e-05, 5.671875) (-4.903507614135742e-05, 5.673828125) (-4.907778930664062e-05, 5.67578125) (-4.927364730834961e-05, 5.677734375) (-4.962818145751953e-05, 5.6796875) (-5.015262985229492e-05, 5.681640625) (-5.085036849975586e-05, 5.68359375) (-5.172317886352539e-05, 5.685546875) (-5.275788116455078e-05, 5.6875) (-5.391926574707031e-05, 5.689453125) (-5.517744445800781e-05, 5.69140625) (-5.6506988525390624e-05, 5.693359375) (-5.7873748779296874e-05, 5.6953125) (-5.924726104736328e-05, 5.697265625) (-6.0589950561523434e-05, 5.69921875) (-6.185201263427734e-05, 5.701171875) (-6.30036506652832e-05, 5.703125) (-6.402642822265624e-05, 5.705078125) (-6.489851379394531e-05, 5.70703125) (-6.560546112060546e-05, 5.708984375) (-6.612059020996094e-05, 5.7109375) (-6.641217803955078e-05, 5.712890625) (-6.647311401367187e-05, 5.71484375) (-6.630609893798828e-05, 5.716796875) (-6.593955993652344e-05, 5.71875) (-6.543830871582032e-05, 5.720703125) (-6.4852783203125e-05, 5.72265625) (-6.423579406738281e-05, 5.724609375) (-6.366827392578124e-05, 5.7265625) (-6.322773742675781e-05, 5.728515625) (-6.301065063476562e-05, 5.73046875) (-6.313164520263672e-05, 5.732421875) (-6.365781402587891e-05, 5.734375) (-6.46502456665039e-05, 5.736328125) (-6.621031951904297e-05, 5.73828125) (-6.840368652343749e-05, 5.740234375) (-7.124485015869141e-05, 5.7421875) (-7.4660888671875e-05, 5.744140625) (-7.843276977539062e-05, 5.74609375) (-8.228105163574218e-05, 5.748046875) (-8.594109344482422e-05, 5.75) (-8.911354064941406e-05, 5.751953125) (-9.14328384399414e-05, 5.75390625) (-9.258411407470703e-05, 5.755859375) (-9.243442535400391e-05, 5.7578125) (-9.119439697265625e-05, 5.759765625) (-8.940657043457031e-05, 5.76171875) (-8.779252624511719e-05, 5.763671875) (-8.704014587402344e-05, 5.765625) (-8.760974884033202e-05, 5.767578125) (-9.000186920166016e-05, 5.76953125) (-9.475233459472656e-05, 5.771484375) (-0.00010177067565917968, 5.7734375) (-0.00011010090637207031, 5.775390625) (-0.00011833306884765625, 5.77734375) (-0.0001237651138305664, 5.779296875) (-0.00012354723358154297, 5.78125) (-0.00011646877288818359, 5.783203125) (-0.00010041678619384765, 5.78515625) (-7.4499267578125e-05, 5.787109375) (-4.032371520996094e-05, 5.7890625) (2.0391128063201905e-06, 5.791015625) (5.152372741699218e-05, 5.79296875) (0.00010700799560546874, 5.794921875) (0.00017177120971679686, 5.796875) (0.00024815618896484375, 5.798828125) (0.0003334743041992187, 5.80078125) (0.0004215592041015625, 5.802734375) (0.0004985778503417968, 5.8046875) (0.0005462026977539063, 5.806640625) (0.0005547392578124999, 5.80859375) (0.0005216346435546875, 5.810546875) (0.00045224212646484375, 5.8125) (0.0003630359802246094, 5.814453125) (0.00026784799194335936, 5.81640625) (0.0001778760986328125, 5.818359375) (0.0001047450180053711, 5.8203125) (5.184081649780273e-05, 5.822265625) (1.927777862548828e-05, 5.82421875) (4.843006610870361e-06, 5.826171875) (-4.066829681396484e-07, 5.828125) (-4.268886566162109e-06, 5.830078125) (-1.0384490966796875e-05, 5.83203125) (-2.041421127319336e-05, 5.833984375) (-3.1965053558349605e-05, 5.8359375) (-4.178023147583008e-05, 5.837890625) (-5.00729866027832e-05, 5.83984375) (-5.802767181396484e-05, 5.841796875) (-6.699331665039063e-05, 5.84375) (-7.855299377441405e-05, 5.845703125) (-9.242408752441406e-05, 5.84765625) (-0.00010732306671142577, 5.849609375) (-0.00012225863647460938, 5.8515625) (-0.00013605970764160155, 5.853515625) (-0.000147727783203125, 5.85546875) (-0.0001569296875, 5.857421875) (-0.00016358822631835936, 5.859375) (-0.00016779782104492188, 5.861328125) (-0.00016995872497558594, 5.86328125) (-0.00017050177001953125, 5.865234375) (-0.00016980924987792967, 5.8671875) (-0.00016835925292968748, 5.869140625) (-0.00016664280700683592, 5.87109375) (-0.00016498251342773437, 5.873046875) (-0.00016358717346191405, 5.875) (-0.0001625885314941406, 5.876953125) (-0.00016202027893066404, 5.87890625) (-0.0001619100646972656, 5.880859375) (-0.00016228536987304687, 5.8828125) (-0.00016312448120117188, 5.884765625) (-0.0001643746337890625, 5.88671875) (-0.00016598811340332031, 5.888671875) (-0.0001679204406738281, 5.890625) (-0.00017012382507324217, 5.892578125) (-0.00017255474853515625, 5.89453125) (-0.0001751552276611328, 5.896484375) (-0.0001778463439941406, 5.8984375) (-0.00018055070495605468, 5.900390625) (-0.00018319674682617187, 5.90234375) (-0.00018571092224121093, 5.904296875) (-0.00018802514648437498, 5.90625) (-0.00019007333374023436, 5.908203125) (-0.0001917882843017578, 5.91015625) (-0.00019312527465820313, 5.912109375) (-0.00019406626892089842, 5.9140625) (-0.0001946080322265625, 5.916015625) (-0.00019476327514648438, 5.91796875) (-0.00019455503845214843, 5.919921875) (-0.00019400994873046873, 5.921875) (-0.0001931650390625, 5.923828125) (-0.00019206632995605468, 5.92578125) (-0.00019075744628906249, 5.927734375) (-0.0001892811737060547, 5.9296875) (-0.00018767758178710937, 5.931640625) (-0.00018598115539550782, 5.93359375) (-0.00018422817993164062, 5.935546875) (-0.00018245539855957032, 5.9375) (-0.00018069781494140625, 5.939453125) (-0.00017898976135253904, 5.94140625) (-0.0001773563537597656, 5.943359375) (-0.00017581237792968748, 5.9453125) (-0.00017436769104003905, 5.947265625) (-0.00017302691650390625, 5.94921875) (-0.00017179046630859374, 5.951171875) (-0.00017065675354003906, 5.953125) (-0.00016961920166015624, 5.955078125) (-0.00016866673278808592, 5.95703125) (-0.00016779019165039062, 5.958984375) (-0.00016698213195800782, 5.9609375) (-0.00016623565673828125, 5.962890625) (-0.0001655452117919922, 5.96484375) (-0.00016490338134765624, 5.966796875) (-0.00016430082702636718, 5.96875) (-0.00016372821044921874, 5.970703125) (-0.00016317578125, 5.97265625) (-0.00016263435363769531, 5.974609375) (-0.00016209544372558594, 5.9765625) (-0.0001615499572753906, 5.978515625) (-0.00016098854064941406, 5.98046875) (-0.00016040223693847654, 5.982421875) (-0.00015978208923339842, 5.984375) (-0.00015911972045898437, 5.986328125) (-0.00015840721130371094, 5.98828125) (-0.00015763543701171874, 5.990234375) (-0.00015679449462890625, 5.9921875) (-0.0001558744201660156, 5.994140625) (-0.00015486505126953125, 5.99609375) (-0.00015375677490234375, 5.998046875) (-0.00015254054260253904, 6.0) (-0.00015120748901367186, 6.001953125) (-0.00014974909973144532, 6.00390625) (-0.00014815788269042967, 6.005859375) (-0.00014642739868164062, 6.0078125) (-0.00014455218505859374, 6.009765625) (-0.00014252783203124998, 6.01171875) (-0.00014035060119628906, 6.013671875) (-0.00013801768493652342, 6.015625) (-0.00013552716064453124, 6.017578125) (-0.00013287814331054687, 6.01953125) (-0.0001300706787109375, 6.021484375) (-0.0001271056671142578, 6.0234375) (-0.00012398475646972656, 6.025390625) (-0.00012071049499511718, 6.02734375) (-0.00011728625488281249, 6.029296875) (-0.00011371635437011719, 6.03125) (-0.0001100059356689453, 6.033203125) (-0.00010616104125976563, 6.03515625) (-0.0001021885986328125, 6.037109375) (-9.80964584350586e-05, 6.0390625) (-9.38935089111328e-05, 6.041015625) (-8.958949279785156e-05, 6.04296875) (-8.519506072998047e-05, 6.044921875) (-8.07216796875e-05, 6.046875) (-7.61816177368164e-05, 6.048828125) (-7.158783721923828e-05, 6.05078125) (-6.695401000976562e-05, 6.052734375) (-6.22944450378418e-05, 6.0546875) (-5.7623966217041015e-05, 6.056640625) (-5.295781707763672e-05, 6.05859375) (-4.831165695190429e-05, 6.060546875) (-4.370144271850586e-05, 6.0625) (-3.914335250854492e-05, 6.064453125) (-3.4653697967529295e-05, 6.06640625) (-3.0248676300048826e-05, 6.068359375) (-2.5944292068481445e-05, 6.0703125) (-2.1756313323974608e-05, 6.072265625) (-1.770016098022461e-05, 6.07421875) (-1.379088020324707e-05, 6.076171875) (-1.0043075561523437e-05, 6.078125) (-6.470824718475341e-06, 6.080078125) (-3.0876271724700925e-06, 6.08203125) (9.357738494873047e-08, 6.083984375) (3.0604543685913084e-06, 6.0859375) (5.80134105682373e-06, 6.087890625) (8.305298805236816e-06, 6.08984375) (1.0562204360961914e-05, 6.091796875) (1.2562819480895996e-05, 6.09375) (1.4298848152160644e-05, 6.095703125) (1.5763010025024415e-05, 6.09765625) (1.6949102401733397e-05, 6.099609375) (1.7852054595947264e-05, 6.1015625) (1.846798324584961e-05, 6.103515625) (1.8794219970703124e-05, 6.10546875) (1.8829345703125e-05, 6.107421875) (1.8573200225830077e-05, 6.109375) (1.8026901245117187e-05, 6.111328125) (1.7192836761474608e-05, 6.11328125) (1.607466506958008e-05, 6.115234375) (1.467730712890625e-05, 6.1171875) (1.3006899833679198e-05, 6.119140625) (1.1070769309997558e-05, 6.12109375) (8.877366065979004e-06, 6.123046875) (6.436189651489257e-06, 6.125) (3.7577056884765623e-06, 6.126953125) (8.53262186050415e-07, 6.12890625) (-2.26501989364624e-06, 6.130859375) (-5.584332466125488e-06, 6.1328125) (-9.091265678405762e-06, 6.134765625) (-1.2771903991699217e-05, 6.13671875) (-1.6611894607543946e-05, 6.138671875) (-2.0596502304077148e-05, 6.140625) (-2.4710693359375e-05, 6.142578125) (-2.8939186096191403e-05, 6.14453125) (-3.3266536712646484e-05, 6.146484375) (-3.767722320556641e-05, 6.1484375) (-4.2155700683593746e-05, 6.150390625) (-4.668649291992187e-05, 6.15234375) (-5.125428771972656e-05, 6.154296875) (-5.584402465820312e-05, 6.15625) (-6.044095230102539e-05, 6.158203125) (-6.503077697753906e-05, 6.16015625) (-6.959967041015624e-05, 6.162109375) (-7.413438415527343e-05, 6.1640625) (-7.862226867675781e-05, 6.166015625) (-8.305141448974609e-05, 6.16796875) (-8.741061401367188e-05, 6.169921875) (-9.168954467773438e-05, 6.171875) (-9.587869262695313e-05, 6.173828125) (-9.996945190429687e-05, 6.17578125) (-0.00010395413208007812, 6.177734375) (-0.00010782601928710937, 6.1796875) (-0.00011157928466796875, 6.181640625) (-0.00011520907592773437, 6.18359375) (-0.00011871142578124999, 6.185546875) (-0.00012208323669433594, 6.1875) (-0.0001253221740722656, 6.189453125) (-0.00012842669677734376, 6.19140625) (-0.0001313959503173828, 6.193359375) (-0.000134229736328125, 6.1953125) (-0.00013692843627929687, 6.197265625) (-0.00013949295043945312, 6.19921875) (-0.00014192462158203124, 6.201171875) (-0.000144225341796875, 6.203125) (-0.00014639730834960937, 6.205078125) (-0.00014844309997558594, 6.20703125) (-0.00015036561584472655, 6.208984375) (-0.00015216790771484376, 6.2109375) (-0.00015385330200195311, 6.212890625) (-0.00015542521667480467, 6.21484375) (-0.00015688726806640623, 6.216796875) (-0.0001582430419921875, 6.21875) (-0.0001594961700439453, 6.220703125) (-0.0001606501770019531, 6.22265625) (-0.00016170846557617187, 6.224609375) (-0.00016267434692382812, 6.2265625) (-0.0001635509033203125, 6.228515625) (-0.0001643409729003906, 6.23046875) (-0.0001650470275878906, 6.232421875) (-0.00016567124938964844, 6.234375) (-0.00016621548461914063, 6.236328125) (-0.00016668116760253906, 6.23828125) (-0.00016706939697265624, 6.240234375) (-0.00016738098144531248, 6.2421875) (-0.00016761622619628906, 6.244140625) (-0.0001677749786376953, 6.24609375) (-0.00016785690307617187, 6.248046875) (-0.00016786134338378907, 6.25) (-0.000167787353515625, 6.251953125) (-0.0001676338195800781, 6.25390625) (-0.00016739932250976563, 6.255859375) (-0.00016708233642578123, 6.2578125) (-0.00016668133544921873, 6.259765625) (-0.0001661949462890625, 6.26171875) (-0.00016562185668945312, 6.263671875) (-0.0001649608154296875, 6.265625) (-0.00016421078491210938, 6.267578125) (-0.00016337094116210938, 6.26953125) (-0.00016244079589843748, 6.271484375) (-0.00016142033386230467, 6.2734375) (-0.00016030963134765626, 6.275390625) (-0.00015910903930664062, 6.27734375) (-0.00015781918334960935, 6.279296875) (-0.00015644093322753904, 6.28125) (-0.0001549756164550781, 6.283203125) (-0.00015342503356933593, 6.28515625) (-0.00015179129028320313, 6.287109375) (-0.0001500768585205078, 6.2890625) (-0.00014828472900390625, 6.291015625) (-0.00014641848754882813, 6.29296875) (-0.0001444822540283203, 6.294921875) (-0.0001424808349609375, 6.296875) (-0.00014041935729980468, 6.298828125) (-0.00013830335998535155, 6.30078125) (-0.00013613877868652344, 6.302734375) (-0.00013393183898925782, 6.3046875) (-0.000131689208984375, 6.306640625) (-0.0001294180908203125, 6.30859375) (-0.00012712580108642578, 6.310546875) (-0.00012481977844238282, 6.3125) (-0.0001225077362060547, 6.314453125) (-0.00012019752502441406, 6.31640625) (-0.00011789717102050781, 6.318359375) (-0.00011561488342285156, 6.3203125) (-0.00011335838317871094, 6.322265625) (-0.00011113477325439453, 6.32421875) (-0.00010895087432861327, 6.326171875) (-0.00010681309509277343, 6.328125) (-0.00010472703552246094, 6.330078125) (-0.00010269757843017578, 6.33203125) (-0.00010072850036621094, 6.333984375) (-9.882220458984375e-05, 6.3359375) (-9.698092651367186e-05, 6.337890625) (-9.520677185058594e-05, 6.33984375) (-9.35009765625e-05, 6.341796875) (-9.186406707763671e-05, 6.34375) (-9.029621124267578e-05, 6.345703125) (-8.879682922363281e-05, 6.34765625) (-8.736537170410155e-05, 6.349609375) (-8.600142669677734e-05, 6.3515625) (-8.470269775390625e-05, 6.353515625) 