(2.9543151855468747e-06, 0.0) (2.4025440216064453e-06, 0.001953125) (1.8753268718719482e-06, 0.00390625) (1.3802464008331299e-06, 0.005859375) (9.255972504615783e-07, 0.0078125) (5.198944807052612e-07, 0.009765625) (1.7078371345996856e-07, 0.01171875) (-1.1646956205368042e-07, 0.013671875) (-3.387917280197143e-07, 0.015625) (-4.923442900180817e-07, 0.017578125) (-5.723608732223511e-07, 0.01953125) (-5.722658038139343e-07, 0.021484375) (-4.835772216320038e-07, 0.0234375) (-3.0143964290618894e-07, 0.025390625) (-2.497139573097229e-08, 0.02734375) (3.4526488184928895e-07, 0.029296875) (8.074053525924682e-07, 0.03125) (1.3575520515441894e-06, 0.033203125) (1.988138198852539e-06, 0.03515625) (2.6848278045654294e-06, 0.037109375) (3.425506591796875e-06, 0.0390625) (4.188516616821289e-06, 0.041015625) (4.957790374755859e-06, 0.04296875) (5.724835872650146e-06, 0.044921875) (6.488102912902831e-06, 0.046875) (7.24431848526001e-06, 0.048828125) (7.990196228027344e-06, 0.05078125) (8.721776008605956e-06, 0.052734375) (9.434951782226563e-06, 0.0546875) (1.0135267257690429e-05, 0.056640625) (1.083059310913086e-05, 0.05859375) (1.1524656295776366e-05, 0.060546875) (1.2218458175659178e-05, 0.0625) (1.29138765335083e-05, 0.064453125) (1.3618370056152343e-05, 0.06640625) (1.435157299041748e-05, 0.068359375) (1.5148025512695312e-05, 0.0703125) (1.6037549972534178e-05, 0.072265625) (1.7038524627685545e-05, 0.07421875) (1.815660858154297e-05, 0.076171875) (1.9381298065185546e-05, 0.078125) (2.0700687408447264e-05, 0.080078125) (2.209664535522461e-05, 0.08203125) (2.3544790267944336e-05, 0.083984375) (2.5012332916259766e-05, 0.0859375) (2.644577407836914e-05, 0.087890625) (2.7788022994995115e-05, 0.08984375) (2.898770713806152e-05, 0.091796875) (3.0002918243408202e-05, 0.09375) (3.07979507446289e-05, 0.095703125) (3.13367805480957e-05, 0.09765625) (3.157496452331543e-05, 0.099609375) (3.145032501220703e-05, 0.1015625) (3.090801048278808e-05, 0.103515625) (2.9904186248779295e-05, 0.10546875) (2.8406457901000976e-05, 0.107421875) (2.640703010559082e-05, 0.109375) (2.390503692626953e-05, 0.111328125) (2.0909786224365234e-05, 0.11328125) (1.7441946029663086e-05, 0.115234375) (1.3541048049926757e-05, 0.1171875) (9.28076171875e-06, 0.119140625) (4.753950595855713e-06, 0.12109375) (6.311631202697754e-08, 0.123046875) (-4.703395843505859e-06, 0.125) (-9.473939895629883e-06, 0.126953125) (-1.4187490463256836e-05, 0.12890625) (-1.8785995483398436e-05, 0.130859375) (-2.3192670822143555e-05, 0.1328125) (-2.733405303955078e-05, 0.134765625) (-3.114341354370117e-05, 0.13671875) (-3.4561275482177736e-05, 0.138671875) (-3.755434799194336e-05, 0.140625) (-4.009635925292969e-05, 0.142578125) (-4.216354751586914e-05, 0.14453125) (-4.3739105224609376e-05, 0.146484375) (-4.4828216552734375e-05, 0.1484375) (-4.5477607727050777e-05, 0.150390625) (-4.577050399780273e-05, 0.15234375) (-4.5812992095947266e-05, 0.154296875) (-4.569838714599609e-05, 0.15625) (-4.549942779541015e-05, 0.158203125) (-4.52665786743164e-05, 0.16015625) (-4.5044853210449216e-05, 0.162109375) (-4.4892440795898436e-05, 0.1640625) (-4.484896087646484e-05, 0.166015625) (-4.4964958190917966e-05, 0.16796875) (-4.529405975341797e-05, 0.169921875) (-4.581896591186523e-05, 0.171875) (-4.6493480682373046e-05, 0.173828125) (-4.723739242553711e-05, 0.17578125) (-4.7896625518798823e-05, 0.177734375) (-4.8331298828125e-05, 0.1796875) (-4.840761947631836e-05, 0.181640625) (-4.788893127441406e-05, 0.18359375) (-4.655183410644531e-05, 0.185546875) (-4.433759307861328e-05, 0.1875) (-4.1282997131347654e-05, 0.189453125) (-3.765906524658203e-05, 0.19140625) (-3.3940162658691404e-05, 0.193359375) (-3.0475687026977537e-05, 0.1953125) (-2.762542915344238e-05, 0.197265625) (-2.5828012466430663e-05, 0.19921875) (-2.527113914489746e-05, 0.201171875) (-2.5871889114379882e-05, 0.203125) (-2.731605529785156e-05, 0.205078125) (-2.8791910171508788e-05, 0.20703125) (-2.927834320068359e-05, 0.208984375) (-2.7812414169311522e-05, 0.2109375) (-2.316306686401367e-05, 0.212890625) (-1.4059956550598144e-05, 0.21484375) (4.136366844177246e-07, 0.216796875) (2.0028533935546874e-05, 0.21875) (4.32620964050293e-05, 0.220703125) (6.839463806152344e-05, 0.22265625) (9.345083618164062e-05, 0.224609375) (0.00011860995483398437, 0.2265625) (0.00014620553588867187, 0.228515625) (0.00017575570678710938, 0.23046875) (0.00020545527648925782, 0.232421875) (0.00022967919921875, 0.234375) (0.00023743499755859374, 0.236328125) (0.0002222688751220703, 0.23828125) (0.00018133799743652343, 0.240234375) (0.0001168105239868164, 0.2421875) (4.046556854248047e-05, 0.244140625) (-3.60848388671875e-05, 0.24609375) (-0.00010219047546386718, 0.248046875) (-0.00014945608520507811, 0.25) (-0.00017782296752929687, 0.251953125) (-0.00019083236694335937, 0.25390625) (-0.00019448863220214842, 0.255859375) (-0.00019480230712890623, 0.2578125) (-0.00019351141357421873, 0.259765625) (-0.0001896165771484375, 0.26171875) (-0.00018048495483398436, 0.263671875) (-0.0001647817687988281, 0.265625) (-0.00014385348510742186, 0.267578125) (-0.00012026593780517578, 0.26953125) (-9.693264770507812e-05, 0.271484375) (-7.564876556396483e-05, 0.2734375) (-5.711335754394531e-05, 0.275390625) (-4.196747589111328e-05, 0.27734375) (-3.0650808334350586e-05, 0.279296875) (-2.3198783874511718e-05, 0.28125) (-1.9305908203125e-05, 0.283203125) (-1.8326101303100586e-05, 0.28515625) (-1.9630546569824217e-05, 0.287109375) (-2.2731307983398438e-05, 0.2890625) (-2.701638603210449e-05, 0.291015625) (-3.1545131683349606e-05, 0.29296875) (-3.529024124145508e-05, 0.294921875) (-3.7626068115234375e-05, 0.296875) (-3.83705825805664e-05, 0.298828125) (-3.7625244140625e-05, 0.30078125) (-3.5562789916992184e-05, 0.302734375) (-3.2317535400390623e-05, 0.3046875) (-2.810051345825195e-05, 0.306640625) (-2.3380050659179688e-05, 0.30859375) (-1.8767251968383788e-05, 0.310546875) (-1.4652776718139648e-05, 0.3125) (-1.1175578117370604e-05, 0.314453125) (-8.310612678527832e-06, 0.31640625) (-5.950535774230957e-06, 0.318359375) (-4.0307369232177735e-06, 0.3203125) (-2.5111777782440186e-06, 0.322265625) (-1.2617130279541016e-06, 0.32421875) (-7.747146487236022e-08, 0.326171875) (1.1681166887283326e-06, 0.328125) (2.520835876464844e-06, 0.330078125) (3.9710192680358886e-06, 0.33203125) (5.455562114715576e-06, 0.333984375) (6.937884330749511e-06, 0.3359375) (8.407386779785155e-06, 0.337890625) (9.833526611328125e-06, 0.33984375) (1.1171693801879882e-05, 0.341796875) (1.2383344650268555e-05, 0.34375) (1.344581413269043e-05, 0.345703125) (1.4355898857116699e-05, 0.34765625) (1.5124378204345703e-05, 0.349609375) (1.576095199584961e-05, 0.3515625) (1.6259601593017577e-05, 0.353515625) (1.6604520797729492e-05, 0.35546875) (1.6786033630371093e-05, 0.357421875) (1.6796323776245116e-05, 0.359375) (1.661947441101074e-05, 0.361328125) (1.6242053985595702e-05, 0.36328125) (1.5626365661621092e-05, 0.365234375) (1.4704797744750977e-05, 0.3671875) (1.3501678466796874e-05, 0.369140625) (1.2116530418395995e-05, 0.37109375) (1.064154052734375e-05, 0.373046875) (9.20789909362793e-06, 0.375) (7.847684383392334e-06, 0.376953125) (6.448925495147705e-06, 0.37890625) (5.019554615020752e-06, 0.380859375) (3.678079843521118e-06, 0.3828125) (2.3855438232421876e-06, 0.384765625) (1.0169959068298339e-06, 0.38671875) (-5.799275636672973e-07, 0.388671875) (-2.670858383178711e-06, 0.390625) (-5.192104816436767e-06, 0.392578125) (-7.684659957885742e-06, 0.39453125) (-9.880281448364257e-06, 0.396484375) (-1.1684568405151367e-05, 0.3984375) (-1.2895008087158202e-05, 0.400390625) (-1.3329394340515136e-05, 0.40234375) (-1.2715038299560546e-05, 0.404296875) (-1.0582515716552734e-05, 0.40625) (-6.923813343048096e-06, 0.408203125) (-2.2452995777130124e-06, 0.41015625) (3.1021885871887206e-06, 0.412109375) (8.889204025268554e-06, 0.4140625) (1.4877530097961425e-05, 0.416015625) (2.0961318969726562e-05, 0.41796875) (2.6903621673583983e-05, 0.419921875) (3.2241210937499996e-05, 0.421875) (3.6858306884765625e-05, 0.423828125) (4.099734497070312e-05, 0.42578125) (4.480844879150391e-05, 0.427734375) (4.842091369628906e-05, 0.4296875) (5.1916374206542966e-05, 0.431640625) (5.522660064697265e-05, 0.43359375) (5.83875732421875e-05, 0.435546875) (6.158135223388672e-05, 0.4375) (6.483961486816405e-05, 0.439453125) (6.806887817382812e-05, 0.44140625) (7.122016906738281e-05, 0.443359375) (7.421889495849609e-05, 0.4453125) (7.703292846679687e-05, 0.447265625) (7.971607971191407e-05, 0.44921875) (8.227253723144531e-05, 0.451171875) (8.466693115234374e-05, 0.453125) (8.690084838867187e-05, 0.455078125) (8.898751068115233e-05, 0.45703125) (9.093180084228515e-05, 0.458984375) (9.275083923339844e-05, 0.4609375) (9.444090270996094e-05, 0.462890625) (9.597451019287109e-05, 0.46484375) (9.733599090576172e-05, 0.466796875) (9.850646972656249e-05, 0.46875) (9.946264648437499e-05, 0.470703125) (0.00010018282318115234, 0.47265625) (0.00010063899993896484, 0.474609375) (0.000100808837890625, 0.4765625) (0.00010067942810058594, 0.478515625) (0.0001002415771484375, 0.48046875) (9.948988342285156e-05, 0.482421875) (9.842167663574219e-05, 0.484375) (9.70361328125e-05, 0.486328125) (9.533827972412109e-05, 0.48828125) (9.333899688720703e-05, 0.490234375) (9.104772949218749e-05, 0.4921875) (8.847393035888671e-05, 0.494140625) (8.562765502929687e-05, 0.49609375) (8.251895141601562e-05, 0.498046875) (7.916240692138672e-05, 0.5) (7.557451629638671e-05, 0.501953125) (7.1771728515625e-05, 0.50390625) (6.777198791503905e-05, 0.505859375) (6.359281921386719e-05, 0.5078125) (5.925212097167968e-05, 0.509765625) (5.476940536499023e-05, 0.51171875) (5.016426086425781e-05, 0.513671875) (4.545556640625e-05, 0.515625) (4.066207504272461e-05, 0.517578125) (3.5801445007324215e-05, 0.51953125) (3.089095497131348e-05, 0.521484375) (2.5949466705322265e-05, 0.5234375) (2.0996242523193358e-05, 0.525390625) (1.6050445556640625e-05, 0.52734375) (1.1131470680236816e-05, 0.529296875) (6.257885932922363e-06, 0.53125) (1.4478774070739746e-06, 0.533203125) (-3.280164003372192e-06, 0.53515625) (-7.908632278442383e-06, 0.537109375) (-1.2421220779418944e-05, 0.5390625) (-1.6802490234375e-05, 0.541015625) (-2.1038036346435546e-05, 0.54296875) (-2.511468505859375e-05, 0.544921875) (-2.9020080566406248e-05, 0.546875) (-3.2742786407470704e-05, 0.548828125) (-3.6272411346435546e-05, 0.55078125) (-3.9598876953124995e-05, 0.552734375) (-4.271267318725586e-05, 0.5546875) (-4.560642623901367e-05, 0.556640625) (-4.827503204345703e-05, 0.55859375) (-5.071538162231445e-05, 0.560546875) (-5.292574310302734e-05, 0.5625) (-5.4904869079589844e-05, 0.564453125) (-5.665200424194336e-05, 0.56640625) (-5.8168144226074215e-05, 0.568359375) (-5.945624542236328e-05, 0.5703125) (-6.0519386291503906e-05, 0.572265625) (-6.136055755615234e-05, 0.57421875) (-6.19813995361328e-05, 0.576171875) (-6.23827896118164e-05, 0.578125) (-6.256874847412109e-05, 0.580078125) (-6.254670333862304e-05, 0.58203125) (-6.23272705078125e-05, 0.583984375) (-6.192302703857422e-05, 0.5859375) (-6.134430694580078e-05, 0.587890625) (-6.059823608398437e-05, 0.58984375) (-5.969259643554687e-05, 0.591796875) (-5.863783264160156e-05, 0.59375) (-5.7443561553955075e-05, 0.595703125) (-5.611909484863281e-05, 0.59765625) (-5.466869735717773e-05, 0.599609375) (-5.309082794189453e-05, 0.6015625) (-5.139179229736328e-05, 0.603515625) (-4.958623123168945e-05, 0.60546875) (-4.769570159912109e-05, 0.607421875) (-4.574826431274414e-05, 0.609375) (-4.3767520904541015e-05, 0.611328125) (-4.177046203613281e-05, 0.61328125) (-3.9773284912109374e-05, 0.615234375) (-3.779296875e-05, 0.6171875) (-3.584590911865234e-05, 0.619140625) (-3.39525032043457e-05, 0.62109375) (-3.2131378173828124e-05, 0.623046875) (-3.0390432357788086e-05, 0.625) (-2.8736127853393553e-05, 0.626953125) (-2.716706085205078e-05, 0.62890625) (-2.5684017181396483e-05, 0.630859375) (-2.430674362182617e-05, 0.6328125) (-2.304949951171875e-05, 0.634765625) (-2.192265510559082e-05, 0.63671875) (-2.0909420013427734e-05, 0.638671875) (-1.9948984146118162e-05, 0.640625) (-1.9011354446411134e-05, 0.642578125) (-1.813154983520508e-05, 0.64453125) (-1.7393400192260743e-05, 0.646484375) (-1.6877735137939453e-05, 0.6484375) (-1.6591644287109376e-05, 0.650390625) (-1.641950988769531e-05, 0.65234375) (-1.624553298950195e-05, 0.654296875) (-1.6085609436035155e-05, 0.65625) (-1.591860580444336e-05, 0.658203125) (-1.5614467620849608e-05, 0.66015625) (-1.4885175704956055e-05, 0.662109375) (-1.3348888397216796e-05, 0.6640625) (-1.086971664428711e-05, 0.666015625) (-7.686953544616699e-06, 0.66796875) (-4.20252513885498e-06, 0.669921875) (-6.869503259658814e-07, 0.671875) (2.6417958736419676e-06, 0.673828125) (5.514231204986572e-06, 0.67578125) (7.458457469940185e-06, 0.677734375) (7.833409309387207e-06, 0.6796875) (6.320529460906982e-06, 0.681640625) (3.112818717956543e-06, 0.68359375) (-1.263848304748535e-06, 0.685546875) (-6.335499763488769e-06, 0.6875) (-1.1799641609191895e-05, 0.689453125) (-1.7412450790405274e-05, 0.69140625) (-2.283212661743164e-05, 0.693359375) (-2.7583202362060546e-05, 0.6953125) (-3.136033630371094e-05, 0.697265625) (-3.422047424316406e-05, 0.69921875) (-3.6511577606201174e-05, 0.701171875) (-3.8542640686035154e-05, 0.703125) (-4.044278335571289e-05, 0.705078125) (-4.223470687866211e-05, 0.70703125) (-4.389570999145508e-05, 0.708984375) (-4.547225189208984e-05, 0.7109375) (-4.7029071807861327e-05, 0.712890625) (-4.8507526397705076e-05, 0.71484375) (-4.97485237121582e-05, 0.716796875) (-5.0652770996093746e-05, 0.71875) (-5.1195976257324215e-05, 0.720703125) (-5.142464447021484e-05, 0.72265625) (-5.1455280303955077e-05, 0.724609375) (-5.1353092193603515e-05, 0.7265625) (-5.114199066162109e-05, 0.728515625) (-5.0867652893066406e-05, 0.73046875) (-5.057035446166992e-05, 0.732421875) (-5.028152847290039e-05, 0.734375) (-5.004465103149414e-05, 0.736328125) (-4.988767623901367e-05, 0.73828125) (-4.983591842651367e-05, 0.740234375) (-4.994684600830078e-05, 0.7421875) (-5.0263160705566404e-05, 0.744140625) (-5.081193923950195e-05, 0.74609375) (-5.161617660522461e-05, 0.748046875) (-5.266151428222656e-05, 0.75) (-5.3918617248535156e-05, 0.751953125) (-5.535020065307617e-05, 0.75390625) (-5.6892303466796875e-05, 0.755859375) (-5.848506164550781e-05, 0.7578125) (-6.0088302612304685e-05, 0.759765625) (-6.166849517822265e-05, 0.76171875) (-6.320846557617188e-05, 0.763671875) (-6.470307922363282e-05, 0.765625) (-6.613841247558594e-05, 0.767578125) (-6.750312042236328e-05, 0.76953125) (-6.878642272949219e-05, 0.771484375) (-6.996384429931641e-05, 0.7734375) (-7.101300048828124e-05, 0.775390625) (-7.191222381591796e-05, 0.77734375) (-7.263954162597657e-05, 0.779296875) (-7.318975830078125e-05, 0.78125) (-7.35679931640625e-05, 0.783203125) (-7.378668975830078e-05, 0.78515625) (-7.387232971191406e-05, 0.787109375) (-7.385165405273437e-05, 0.7890625) (-7.374905395507812e-05, 0.791015625) (-7.359262084960938e-05, 0.79296875) (-7.340327453613282e-05, 0.794921875) (-7.319410705566406e-05, 0.796875) (-7.297115325927734e-05, 0.798828125) (-7.272723388671875e-05, 0.80078125) (-7.24535140991211e-05, 0.802734375) (-7.21470718383789e-05, 0.8046875) (-7.180666351318359e-05, 0.806640625) (-7.143494415283203e-05, 0.80859375) (-7.102798461914062e-05, 0.810546875) (-7.056873321533203e-05, 0.8125) (-7.00435791015625e-05, 0.814453125) (-6.944213104248046e-05, 0.81640625) (-6.874768066406249e-05, 0.818359375) (-6.79423828125e-05, 0.8203125) (-6.69937286376953e-05, 0.822265625) (-6.585238647460937e-05, 0.82421875) (-6.448139190673828e-05, 0.826171875) (-6.285751724243164e-05, 0.828125) (-6.097268295288086e-05, 0.830078125) (-5.884089660644531e-05, 0.83203125) (-5.6477783203124996e-05, 0.833984375) (-5.389877319335937e-05, 0.8359375) (-5.113127517700195e-05, 0.837890625) (-4.8207916259765625e-05, 0.83984375) (-4.517301940917968e-05, 0.841796875) (-4.208490753173828e-05, 0.84375) (-3.8989475250244136e-05, 0.845703125) (-3.592177581787109e-05, 0.84765625) (-3.292652130126953e-05, 0.849609375) (-3.0052459716796873e-05, 0.8515625) (-2.7365545272827148e-05, 0.853515625) (-2.4953006744384764e-05, 0.85546875) (-2.2882080078124997e-05, 0.857421875) (-2.1199779510498046e-05, 0.859375) (-1.994491386413574e-05, 0.861328125) (-1.9136064529418946e-05, 0.86328125) (-1.878583526611328e-05, 0.865234375) (-1.8902389526367185e-05, 0.8671875) (-1.9471759796142578e-05, 0.869140625) (-2.046776008605957e-05, 0.87109375) (-2.1865453720092772e-05, 0.873046875) (-2.3636688232421874e-05, 0.875) (-2.5756141662597657e-05, 0.876953125) (-2.8206764221191406e-05, 0.87890625) (-3.0953048706054686e-05, 0.880859375) (-3.3945404052734373e-05, 0.8828125) (-3.713984680175781e-05, 0.884765625) (-4.048391723632812e-05, 0.88671875) (-4.393640518188476e-05, 0.888671875) (-4.74752311706543e-05, 0.890625) (-5.107115936279297e-05, 0.892578125) (-5.468847274780273e-05, 0.89453125) (-5.83222427368164e-05, 0.896484375) (-6.19958724975586e-05, 0.8984375) (-6.568893432617188e-05, 0.900390625) (-6.933969116210938e-05, 0.90234375) (-7.282728576660156e-05, 0.904296875) (-7.595553588867187e-05, 0.90625) (-7.858256530761718e-05, 0.908203125) (-8.06560287475586e-05, 0.91015625) (-8.208210754394531e-05, 0.912109375) (-8.272789764404297e-05, 0.9140625) (-8.260187530517578e-05, 0.916015625) (-8.182449340820312e-05, 0.91796875) (-8.066618347167968e-05, 0.919921875) (-7.960104370117187e-05, 0.921875) (-7.895020294189453e-05, 0.923828125) (-7.87780303955078e-05, 0.92578125) (-7.921450042724609e-05, 0.927734375) (-8.044163513183593e-05, 0.9296875) (-8.238816833496093e-05, 0.931640625) (-8.485809326171875e-05, 0.93359375) (-8.738588714599609e-05, 0.935546875) (-8.9080810546875e-05, 0.9375) (-8.924353027343749e-05, 0.939453125) (-8.754520416259765e-05, 0.94140625) (-8.35838623046875e-05, 0.943359375) (-7.67406768798828e-05, 0.9453125) (-6.654692077636719e-05, 0.947265625) (-5.2578918457031245e-05, 0.94921875) (-3.458524322509766e-05, 0.951171875) (-1.3898555755615234e-05, 0.953125) (7.248441219329833e-06, 0.955078125) (2.7531566619873045e-05, 0.95703125) (4.544197082519531e-05, 0.958984375) (6.173562622070312e-05, 0.9609375) (7.990265655517578e-05, 0.962890625) (9.97523193359375e-05, 0.96484375) (0.00011935733032226562, 0.966796875) (0.00013347850036621092, 0.96875) (0.00013133457946777342, 0.970703125) (0.00010787397766113281, 0.97265625) (6.173744583129882e-05, 0.974609375) (-5.284870147705078e-06, 0.9765625) (-8.196952819824218e-05, 0.978515625) (-0.0001587652587890625, 0.98046875) (-0.00022615057373046873, 0.982421875) (-0.00027248760986328126, 0.984375) (-0.00029549057006835936, 0.986328125) (-0.00029624588012695314, 0.98828125) (-0.0002795362548828125, 0.990234375) (-0.000256649658203125, 0.9921875) (-0.00023351542663574217, 0.994140625) (-0.00021243472290039062, 0.99609375) (-0.00019386460876464842, 0.998046875) (-0.00017389202880859373, 1.0) (-0.00015124662780761718, 1.001953125) (-0.0001273600387573242, 1.00390625) (-0.0001036439208984375, 1.005859375) (-8.269174194335937e-05, 1.0078125) (-6.608647155761719e-05, 1.009765625) (-5.346246337890625e-05, 1.01171875) (-4.412033843994141e-05, 1.013671875) (-3.728804779052734e-05, 1.015625) (-3.221907043457031e-05, 1.017578125) (-2.8560972213745115e-05, 1.01953125) (-2.6115943908691406e-05, 1.021484375) (-2.4343057632446288e-05, 1.0234375) (-2.2459609985351563e-05, 1.025390625) (-2.011041259765625e-05, 1.02734375) (-1.726053237915039e-05, 1.029296875) (-1.397520351409912e-05, 1.03125) (-1.0499101638793945e-05, 1.033203125) (-6.957147598266601e-06, 1.03515625) (-3.3391900062561035e-06, 1.037109375) (1.1650031805038452e-07, 1.0390625) (2.9719450473785398e-06, 1.041015625) (5.002266883850097e-06, 1.04296875) (6.1740989685058595e-06, 1.044921875) (6.578797340393066e-06, 1.046875) (6.431404113769531e-06, 1.048828125) (5.870119571685791e-06, 1.05078125) (4.949623107910156e-06, 1.052734375) (3.820171594619751e-06, 1.0546875) (2.734140872955322e-06, 1.056640625) (1.8748784065246582e-06, 1.05859375) (1.3485903739929198e-06, 1.060546875) (1.189836025238037e-06, 1.0625) (1.3408232927322387e-06, 1.064453125) (1.7566380500793456e-06, 1.06640625) (2.4212737083435057e-06, 1.068359375) (3.2882475852966308e-06, 1.0703125) (4.283823490142822e-06, 1.072265625) (5.336293220520019e-06, 1.07421875) (6.369908332824707e-06, 1.076171875) (7.322501182556152e-06, 1.078125) (8.170120239257812e-06, 1.080078125) (8.888605117797851e-06, 1.08203125) (9.448200225830077e-06, 1.083984375) (9.821487426757811e-06, 1.0859375) (9.970563888549804e-06, 1.087890625) (9.867812156677246e-06, 1.08984375) (9.496252059936524e-06, 1.091796875) (8.838951110839844e-06, 1.09375) (7.896250247955322e-06, 1.095703125) (6.683415412902832e-06, 1.09765625) (5.233049392700195e-06, 1.099609375) (3.6029911041259762e-06, 1.1015625) (1.851374864578247e-06, 1.103515625) (2.8607010841369628e-08, 1.10546875) (-1.8174662590026854e-06, 1.107421875) (-3.6486029624938965e-06, 1.109375) (-5.4287900924682615e-06, 1.111328125) (-7.116827964782715e-06, 1.11328125) (-8.678053855895996e-06, 1.115234375) (-1.0083499908447266e-05, 1.1171875) (-1.12996826171875e-05, 1.119140625) (-1.2298387527465819e-05, 1.12109375) (-1.3041790008544921e-05, 1.123046875) (-1.3477230072021484e-05, 1.125) (-1.3577276229858398e-05, 1.126953125) (-1.3335723876953124e-05, 1.12890625) (-1.276895809173584e-05, 1.130859375) (-1.1925066947937012e-05, 1.1328125) (-1.084087562561035e-05, 1.134765625) (-9.537981033325196e-06, 1.13671875) (-8.03936195373535e-06, 1.138671875) (-6.3624935150146485e-06, 1.140625) (-4.52779483795166e-06, 1.142578125) (-2.5636196136474608e-06, 1.14453125) (-4.884288311004639e-07, 1.146484375) (1.6894516944885254e-06, 1.1484375) (3.952345848083496e-06, 1.150390625) (6.279088973999023e-06, 1.15234375) (8.634135246276855e-06, 1.154296875) (1.0963157653808594e-05, 1.15625) (1.3233692169189452e-05, 1.158203125) (1.5432550430297852e-05, 1.16015625) (1.7561317443847657e-05, 1.162109375) (1.9643468856811524e-05, 1.1640625) (2.1691589355468748e-05, 1.166015625) (2.3704833984375e-05, 1.16796875) (2.568656539916992e-05, 1.169921875) (2.7639640808105466e-05, 1.171875) (2.956449508666992e-05, 1.173828125) (3.1462940216064453e-05, 1.17578125) (3.332664489746094e-05, 1.177734375) (3.513604736328125e-05, 1.1796875) (3.68806037902832e-05, 1.181640625) (3.855575180053711e-05, 1.18359375) (4.016426086425781e-05, 1.185546875) (4.171987533569336e-05, 1.1875) (4.3225414276123043e-05, 1.189453125) (4.467352294921875e-05, 1.19140625) (4.605252075195312e-05, 1.193359375) (4.73428726196289e-05, 1.1953125) (4.852920913696289e-05, 1.197265625) (4.960221862792969e-05, 1.19921875) (5.054954147338867e-05, 1.201171875) (5.135746002197265e-05, 1.203125) (5.201668548583984e-05, 1.205078125) (5.252046585083008e-05, 1.20703125) (5.286799621582031e-05, 1.208984375) (5.30655632019043e-05, 1.2109375) (5.311569595336914e-05, 1.212890625) (5.30177993774414e-05, 1.21484375) (5.277071380615234e-05, 1.216796875) (5.237086868286132e-05, 1.21875) (5.181755828857421e-05, 1.220703125) (5.111326217651367e-05, 1.22265625) (5.026055908203125e-05, 1.224609375) (4.9262939453125e-05, 1.2265625) (4.81245002746582e-05, 1.228515625) (4.684914398193359e-05, 1.23046875) (4.544232940673828e-05, 1.232421875) (4.391106033325195e-05, 1.234375) (4.2261051177978516e-05, 1.236328125) (4.04970703125e-05, 1.23828125) (3.8623126983642574e-05, 1.240234375) (3.664196395874023e-05, 1.2421875) (3.455751037597656e-05, 1.244140625) (3.237504959106445e-05, 1.24609375) (3.0099876403808593e-05, 1.248046875) (2.773763656616211e-05, 1.25) (2.5294546127319334e-05, 1.251953125) (2.2777139663696287e-05, 1.25390625) (2.019279861450195e-05, 1.255859375) (1.7549831390380857e-05, 1.2578125) (1.4856372833251952e-05, 1.259765625) (1.2120457649230956e-05, 1.26171875) (9.350370407104491e-06, 1.263671875) (6.554484367370605e-06, 1.265625) (3.741523027420044e-06, 1.267578125) (9.205917119979858e-07, 1.26953125) (-1.8991546630859374e-06, 1.271484375) (-4.708545207977295e-06, 1.2734375) (-7.498248100280761e-06, 1.275390625) (-1.0258879661560057e-05, 1.27734375) (-1.2981069564819335e-05, 1.279296875) (-1.5655459403991697e-05, 1.28125) (-1.8272851943969727e-05, 1.283203125) (-2.0824230194091794e-05, 1.28515625) (-2.330067443847656e-05, 1.287109375) (-2.5693395614624023e-05, 1.2890625) (-2.7993801116943356e-05, 1.291015625) (-3.019353103637695e-05, 1.29296875) (-3.228458023071289e-05, 1.294921875) (-3.4259391784667966e-05, 1.296875) (-3.611077880859375e-05, 1.298828125) (-3.7832050323486324e-05, 1.30078125) (-3.94170913696289e-05, 1.302734375) (-4.086044311523437e-05, 1.3046875) (-4.215736770629882e-05, 1.306640625) (-4.330390167236328e-05, 1.30859375) (-4.429673385620117e-05, 1.310546875) (-4.513321685791015e-05, 1.3125) (-4.5811561584472656e-05, 1.314453125) (-4.6330856323242186e-05, 1.31640625) (-4.6691059112548824e-05, 1.318359375) (-4.689311599731445e-05, 1.3203125) (-4.693875885009765e-05, 1.322265625) (-4.683052062988281e-05, 1.32421875) (-4.657186889648437e-05, 1.326171875) (-4.6167144775390624e-05, 1.328125) (-4.5621559143066404e-05, 1.330078125) (-4.494107437133789e-05, 1.33203125) (-4.413232040405273e-05, 1.333984375) (-4.320246887207031e-05, 1.3359375) (-4.2159259796142573e-05, 1.337890625) (-4.101093292236328e-05, 1.33984375) (-3.976613998413086e-05, 1.341796875) (-3.843390655517578e-05, 1.34375) (-3.7023525238037106e-05, 1.345703125) (-3.554453659057617e-05, 1.34765625) (-3.400667953491211e-05, 1.349609375) (-3.2419853210449214e-05, 1.3515625) (-3.07940502166748e-05, 1.353515625) (-2.9139266967773436e-05, 1.35546875) (-2.746536064147949e-05, 1.357421875) (-2.5781946182250974e-05, 1.359375) (-2.409832191467285e-05, 1.361328125) (-2.2423358917236327e-05, 1.36328125) (-2.076545715332031e-05, 1.365234375) (-1.9132476806640624e-05, 1.3671875) (-1.753165626525879e-05, 1.369140625) (-1.596958065032959e-05, 1.37109375) (-1.4452198028564453e-05, 1.373046875) (-1.2984794616699219e-05, 1.375) (-1.157194709777832e-05, 1.376953125) (-1.0217488288879395e-05, 1.37890625) (-8.924431800842284e-06, 1.380859375) (-7.694954872131347e-06, 1.3828125) (-6.530393600463867e-06, 1.384765625) (-5.431236267089843e-06, 1.38671875) (-4.397111415863037e-06, 1.388671875) (-3.4268336296081543e-06, 1.390625) (-2.5184397697448728e-06, 1.392578125) (-1.6692827939987181e-06, 1.39453125) (-8.761305809020995e-07, 1.396484375) (-1.352248340845108e-07, 1.3984375) (5.576374530792236e-07, 1.400390625) (1.2070473432540893e-06, 1.40234375) (1.817949652671814e-06, 1.404296875) (2.3955788612365723e-06, 1.40625) (2.9454052448272706e-06, 1.408203125) (3.473088979721069e-06, 1.41015625) (3.984394550323486e-06, 1.412109375) (4.485128402709961e-06, 1.4140625) (4.981116294860839e-06, 1.416015625) (5.4780874252319334e-06, 1.41796875) (5.981551647186279e-06, 1.419921875) (6.496726036071777e-06, 1.421875) (7.028430938720703e-06, 1.423828125) (7.581066131591797e-06, 1.42578125) (8.158635139465331e-06, 1.427734375) (8.764678001403809e-06, 1.4296875) (9.402177810668945e-06, 1.431640625) (1.0073561668395995e-05, 1.43359375) (1.0780688285827636e-05, 1.435546875) (1.1524821281433105e-05, 1.4375) (1.2306632041931152e-05, 1.439453125) (1.3126121520996094e-05, 1.44140625) (1.3982561111450195e-05, 1.443359375) (1.487453269958496e-05, 1.4453125) (1.579995250701904e-05, 1.447265625) (1.675610542297363e-05, 1.44921875) (1.7739694595336913e-05, 1.451171875) (1.874692916870117e-05, 1.453125) (1.977357292175293e-05, 1.455078125) (2.081510543823242e-05, 1.45703125) (2.186676025390625e-05, 1.458984375) (2.2923521041870115e-05, 1.4609375) (2.3980239868164062e-05, 1.462890625) (2.5031654357910154e-05, 1.46484375) (2.6072385787963865e-05, 1.466796875) (2.7097023010253904e-05, 1.46875) (2.8100162506103516e-05, 1.470703125) (2.907645797729492e-05, 1.47265625) (3.002083396911621e-05, 1.474609375) (3.092855834960937e-05, 1.4765625) (3.179512023925781e-05, 1.478515625) (3.261634826660156e-05, 1.48046875) (3.338854217529297e-05, 1.482421875) (3.410849380493164e-05, 1.484375) (3.477359771728515e-05, 1.486328125) (3.538175964355468e-05, 1.48828125) (3.593120574951172e-05, 1.490234375) (3.6420490264892574e-05, 1.4921875) (3.6848743438720704e-05, 1.494140625) (3.72156867980957e-05, 1.49609375) (3.752164077758789e-05, 1.498046875) (3.7767486572265626e-05, 1.5) (3.7954719543457026e-05, 1.501953125) (3.808550643920898e-05, 1.50390625) (3.816278839111328e-05, 1.505859375) (3.819016647338867e-05, 1.5078125) (3.8171791076660156e-05, 1.509765625) (3.811227416992187e-05, 1.51171875) (3.801665496826172e-05, 1.513671875) (3.789018249511719e-05, 1.515625) (3.773799896240234e-05, 1.517578125) (3.756504058837891e-05, 1.51953125) (3.737593841552734e-05, 1.521484375) (3.7175323486328127e-05, 1.5234375) (3.6967895507812496e-05, 1.525390625) (3.675829315185547e-05, 1.52734375) (3.65510368347168e-05, 1.529296875) (3.635104370117187e-05, 1.53125) (3.616348266601562e-05, 1.533203125) (3.599380874633789e-05, 1.53515625) (3.584800720214844e-05, 1.537109375) (3.573150634765625e-05, 1.5390625) (3.5649120330810546e-05, 1.541015625) (3.5605373382568356e-05, 1.54296875) (3.5603561401367185e-05, 1.544921875) (3.564572525024414e-05, 1.546875) (3.573373413085937e-05, 1.548828125) (3.5868896484375e-05, 1.55078125) (3.605244064331054e-05, 1.552734375) (3.6286781311035154e-05, 1.5546875) (3.657342529296875e-05, 1.556640625) (3.6913673400878906e-05, 1.55859375) (3.7310569763183594e-05, 1.560546875) (3.776554489135742e-05, 1.5625) (3.8278564453124996e-05, 1.564453125) (3.884786605834961e-05, 1.56640625) (3.94658088684082e-05, 1.568359375) (4.012294769287109e-05, 1.5703125) (4.081263732910156e-05, 1.572265625) (4.1528625488281246e-05, 1.57421875) (4.2266960144042965e-05, 1.576171875) (4.3028865814208986e-05, 1.578125) (4.3815475463867184e-05, 1.580078125) (4.4631385803222655e-05, 1.58203125) (4.5488170623779295e-05, 1.583984375) (4.6395481109619136e-05, 1.5859375) (4.7363769531249995e-05, 1.587890625) (4.840229034423828e-05, 1.58984375) (4.951082611083984e-05, 1.591796875) (5.068928909301757e-05, 1.59375) (5.1937934875488276e-05, 1.595703125) (5.325469207763672e-05, 1.59765625) (5.464756393432617e-05, 1.599609375) (5.6126945495605465e-05, 1.6015625) (5.7690025329589844e-05, 1.603515625) (5.9330780029296874e-05, 1.60546875) (6.103594207763671e-05, 1.607421875) (6.277433013916016e-05, 1.609375) (6.451687622070312e-05, 1.611328125) (6.622584533691406e-05, 1.61328125) (6.784318542480468e-05, 1.615234375) (6.931791687011718e-05, 1.6171875) (7.059318542480468e-05, 1.619140625) (7.160722351074219e-05, 1.62109375) (7.231878662109375e-05, 1.623046875) (7.268115234374999e-05, 1.625) (7.265259552001952e-05, 1.626953125) (7.2223388671875e-05, 1.62890625) (7.135488891601562e-05, 1.630859375) (6.999512481689453e-05, 1.6328125) (6.816995239257812e-05, 1.634765625) (6.593936157226562e-05, 1.63671875) (6.343002319335938e-05, 1.638671875) (6.0887477874755854e-05, 1.640625) (5.851505279541015e-05, 1.642578125) (5.647201538085937e-05, 1.64453125) (5.5000053405761715e-05, 1.646484375) (5.428499984741211e-05, 1.6484375) (5.4366359710693355e-05, 1.650390625) (5.522570037841797e-05, 1.65234375) (5.6580802917480465e-05, 1.654296875) (5.791996383666992e-05, 1.65625) (5.884072875976562e-05, 1.658203125) (5.893451690673828e-05, 1.66015625) (5.781223678588867e-05, 1.662109375) (5.541032409667968e-05, 1.6640625) (5.191011810302734e-05, 1.666015625) (4.7683189392089845e-05, 1.66796875) (4.365126800537109e-05, 1.669921875) (4.1046592712402345e-05, 1.671875) (4.1045692443847654e-05, 1.673828125) (4.505572128295898e-05, 1.67578125) (5.429828643798828e-05, 1.677734375) (6.930241394042968e-05, 1.6796875) (9.016262817382812e-05, 1.681640625) (0.00011641154479980468, 1.68359375) (0.0001466232452392578, 1.685546875) (0.00017878848266601562, 1.6875) (0.00021053697204589844, 1.689453125) (0.00023877609252929687, 1.69140625) (0.00026040884399414064, 1.693359375) (0.00027300500488281246, 1.6953125) (0.00027456283569335935, 1.697265625) (0.000263875, 1.69921875) (0.00024092846679687498, 1.701171875) (0.0002066706085205078, 1.703125) (0.00016296318054199218, 1.705078125) (0.00011284552001953124, 1.70703125) (5.99289436340332e-05, 1.708984375) (7.747730255126953e-06, 1.7109375) (-4.0162899017333986e-05, 1.712890625) (-8.067596435546874e-05, 1.71484375) (-0.00011148690795898437, 1.716796875) (-0.000131206787109375, 1.71875) (-0.00013938967895507813, 1.720703125) (-0.0001366615295410156, 1.72265625) (-0.00012455927276611327, 1.724609375) (-0.00010507345581054687, 1.7265625) (-8.059289550781249e-05, 1.728515625) (-5.372553253173828e-05, 1.73046875) (-2.6916711807250977e-05, 1.732421875) (-2.1652293205261228e-06, 1.734375) (1.8946275711059568e-05, 1.736328125) (3.539913177490234e-05, 1.73828125) (4.6953605651855466e-05, 1.740234375) (5.385068893432617e-05, 1.7421875) (5.6714817047119136e-05, 1.744140625) (5.6601444244384764e-05, 1.74609375) (5.468201065063476e-05, 1.748046875) (5.203751373291015e-05, 1.75) (4.977633285522461e-05, 1.751953125) (4.8756744384765625e-05, 1.75390625) (4.932500457763672e-05, 1.755859375) (5.154620361328125e-05, 1.7578125) (5.525193786621093e-05, 1.759765625) (6.0002597808837886e-05, 1.76171875) (6.532885742187499e-05, 1.763671875) (7.076235961914062e-05, 1.765625) (7.572061157226562e-05, 1.767578125) (7.97962417602539e-05, 1.76953125) (8.285753631591797e-05, 1.771484375) (8.489381408691405e-05, 1.7734375) (8.605241394042969e-05, 1.775390625) (8.657414245605469e-05, 1.77734375) (8.665653991699218e-05, 1.779296875) (8.651144409179688e-05, 1.78125) (8.640055847167968e-05, 1.783203125) (8.64940948486328e-05, 1.78515625) (8.688715362548828e-05, 1.787109375) (8.765700531005859e-05, 1.7890625) (8.880572509765625e-05, 1.791015625) (9.031802368164062e-05, 1.79296875) (9.219539642333984e-05, 1.794921875) (9.44118423461914e-05, 1.796875) (9.693095397949219e-05, 1.798828125) (9.97248306274414e-05, 1.80078125) (0.00010275395965576171, 1.802734375) (0.00010596279907226562, 1.8046875) (0.00010929473876953124, 1.806640625) (0.00011269113159179688, 1.80859375) (0.00011609523010253905, 1.810546875) (0.00011946336364746093, 1.8125) (0.00012275418090820312, 1.814453125) (0.00012592787170410155, 1.81640625) (0.000128947509765625, 1.818359375) (0.00013177679443359373, 1.8203125) (0.00013438818359375, 1.822265625) (0.0001367613830566406, 1.82421875) (0.0001388822326660156, 1.826171875) (0.00014074102783203125, 1.828125) (0.00014233261108398436, 1.830078125) (0.0001436634521484375, 1.83203125) (0.0001447484130859375, 1.833984375) (0.00014560775756835938, 1.8359375) (0.00014626200866699218, 1.837890625) (0.0001467339630126953, 1.83984375) (0.0001470608367919922, 1.841796875) (0.00014729302978515625, 1.84375) (0.000147498046875, 1.845703125) (0.00014774728393554686, 1.84765625) (0.0001480814971923828, 1.849609375) (0.00014854708862304688, 1.8515625) (0.00014921722412109375, 1.853515625) (0.00015011465454101562, 1.85546875) (0.00015122686767578123, 1.857421875) (0.00015250733947753907, 1.859375) (0.00015378964233398436, 1.861328125) (0.0001549055938720703, 1.86328125) (0.00015581954956054686, 1.865234375) (0.00015649244689941406, 1.8671875) (0.00015690159606933593, 1.869140625) (0.00015720170593261717, 1.87109375) (0.0001575071563720703, 1.873046875) (0.000157947998046875, 1.875) (0.00015891552734375, 1.876953125) (0.00016068093872070313, 1.87890625) (0.00016324925231933594, 1.880859375) (0.00016661264038085938, 1.8828125) (0.0001704559326171875, 1.884765625) (0.00017406100463867187, 1.88671875) (0.00017684692382812498, 1.888671875) (0.00017818734741210937, 1.890625) (0.0001771732177734375, 1.892578125) (0.0001732237091064453, 1.89453125) (0.00016599870300292968, 1.896484375) (0.00015514700317382813, 1.8984375) (0.00014100772094726563, 1.900390625) (0.00012451414489746094, 1.90234375) (0.00010654205322265625, 1.904296875) (8.817947387695312e-05, 1.90625) (7.062509918212891e-05, 1.908203125) (5.465641784667969e-05, 1.91015625) (4.103949356079101e-05, 1.912109375) (3.063498115539551e-05, 1.9140625) (2.3601701736450195e-05, 1.916015625) (1.958552360534668e-05, 1.91796875) (1.810838508605957e-05, 1.919921875) (1.8352529525756834e-05, 1.921875) (1.9619401931762693e-05, 1.923828125) (2.155902862548828e-05, 1.92578125) (2.36793155670166e-05, 1.927734375) (2.537685775756836e-05, 1.9296875) (2.6381942749023436e-05, 1.931640625) (2.6647499084472654e-05, 1.93359375) (2.6312877655029295e-05, 1.935546875) (2.5788795471191404e-05, 1.9375) (2.528895568847656e-05, 1.939453125) (2.479022216796875e-05, 1.94140625) (2.432834243774414e-05, 1.943359375) (2.3948017120361327e-05, 1.9453125) (2.364051818847656e-05, 1.947265625) (2.336799621582031e-05, 1.94921875) (2.296353530883789e-05, 1.951171875) (2.2119470596313477e-05, 1.953125) (2.062936782836914e-05, 1.955078125) (1.8424449920654297e-05, 1.95703125) (1.54864501953125e-05, 1.958984375) (1.186277675628662e-05, 1.9609375) (7.613135814666748e-06, 1.962890625) (2.785912990570068e-06, 1.96484375) (-2.5184299945831297e-06, 1.966796875) (-8.138715744018555e-06, 1.96875) (-1.3922538757324218e-05, 1.970703125) (-1.975840377807617e-05, 1.97265625) (-2.556538391113281e-05, 1.974609375) (-3.1300964355468746e-05, 1.9765625) (-3.693523406982422e-05, 1.978515625) (-4.241519927978516e-05, 1.98046875) (-4.7684509277343746e-05, 1.982421875) (-5.26888198852539e-05, 1.984375) (-5.736834716796875e-05, 1.986328125) (-6.168277740478516e-05, 1.98828125) (-6.561222076416015e-05, 1.990234375) (-6.914264678955077e-05, 1.9921875) (-7.227336883544922e-05, 1.994140625) (-7.502265930175782e-05, 1.99609375) (-7.74219741821289e-05, 1.998046875) (-7.952614593505859e-05, 2.0) (-8.140471649169922e-05, 2.001953125) (-8.31058578491211e-05, 2.00390625) (-8.466036987304687e-05, 2.005859375) (-8.608683776855469e-05, 2.0078125) (-8.738903808593749e-05, 2.009765625) (-8.857654571533203e-05, 2.01171875) (-8.966319274902343e-05, 2.013671875) (-9.065782165527344e-05, 2.015625) (-9.15714874267578e-05, 2.017578125) (-9.241483306884766e-05, 2.01953125) (-9.319390869140625e-05, 2.021484375) (-9.391693878173827e-05, 2.0234375) (-9.459188842773436e-05, 2.025390625) (-9.521621704101562e-05, 2.02734375) (-9.578099060058593e-05, 2.029296875) (-9.626824951171875e-05, 2.03125) (-9.665074920654296e-05, 2.033203125) (-9.691062927246093e-05, 2.03515625) (-9.703926849365234e-05, 2.037109375) (-9.703192138671874e-05, 2.0390625) (-9.689047241210937e-05, 2.041015625) (-9.66177749633789e-05, 2.04296875) (-9.621652221679687e-05, 2.044921875) (-9.569454956054687e-05, 2.046875) (-9.50624771118164e-05, 2.048828125) (-9.432810211181641e-05, 2.05078125) (-9.349790954589844e-05, 2.052734375) (-9.257655334472656e-05, 2.0546875) (-9.156671905517578e-05, 2.056640625) (-9.047430419921874e-05, 2.05859375) (-8.930751800537109e-05, 2.060546875) (-8.807566833496093e-05, 2.0625) (-8.67906494140625e-05, 2.064453125) (-8.546337890625e-05, 2.06640625) (-8.41032257080078e-05, 2.068359375) (-8.271983337402343e-05, 2.0703125) (-8.1322021484375e-05, 2.072265625) (-7.991735076904296e-05, 2.07421875) (-7.851287841796874e-05, 2.076171875) (-7.711392974853515e-05, 2.078125) (-7.572390747070312e-05, 2.080078125) (-7.434711456298827e-05, 2.08203125) (-7.298851776123047e-05, 2.083984375) (-7.165308380126953e-05, 2.0859375) (-7.034625244140625e-05, 2.087890625) (-6.907302093505859e-05, 2.08984375) (-6.783775329589843e-05, 2.091796875) (-6.664498901367187e-05, 2.09375) (-6.549919891357421e-05, 2.095703125) (-6.440396118164063e-05, 2.09765625) (-6.336205291748046e-05, 2.099609375) (-6.237545013427734e-05, 2.1015625) (-6.144539642333984e-05, 2.103515625) (-6.057277679443359e-05, 2.10546875) (-5.9758159637451166e-05, 2.107421875) (-5.9001586914062496e-05, 2.109375) (-5.8302726745605466e-05, 2.111328125) (-5.766094589233398e-05, 2.11328125) (-5.707528686523437e-05, 2.115234375) (-5.65445442199707e-05, 2.1171875) (-5.606725692749023e-05, 2.119140625) (-5.56416015625e-05, 2.12109375) (-5.526543045043945e-05, 2.123046875) (-5.493630981445312e-05, 2.125) (-5.46513671875e-05, 2.126953125) (-5.440739059448242e-05, 2.12890625) (-5.4200981140136715e-05, 2.130859375) (-5.4028472900390625e-05, 2.1328125) (-5.3886085510253906e-05, 2.134765625) (-5.377002716064453e-05, 2.13671875) (-5.367643737792968e-05, 2.138671875) (-5.360146331787109e-05, 2.140625) (-5.354138946533203e-05, 2.142578125) (-5.3492500305175776e-05, 2.14453125) (-5.3451076507568354e-05, 2.146484375) (-5.341345977783203e-05, 2.1484375) (-5.337600708007812e-05, 2.150390625) (-5.333501815795898e-05, 2.15234375) (-5.3286838531494137e-05, 2.154296875) (-5.3227909088134764e-05, 2.15625) (-5.31547622680664e-05, 2.158203125) (-5.306426239013672e-05, 2.16015625) (-5.29534912109375e-05, 2.162109375) (-5.281982421875e-05, 2.1640625) (-5.266090393066406e-05, 2.166015625) (-5.2474716186523436e-05, 2.16796875) (-5.225958633422851e-05, 2.169921875) (-5.201413726806641e-05, 2.171875) (-5.173715209960937e-05, 2.173828125) (-5.1427501678466795e-05, 2.17578125) (-5.108425140380859e-05, 2.177734375) (-5.070661163330078e-05, 2.1796875) (-5.029397201538086e-05, 2.181640625) (-4.984587860107421e-05, 2.18359375) (-4.936181640625e-05, 2.185546875) (-4.8841388702392575e-05, 2.1875) (-4.8284431457519527e-05, 2.189453125) (-4.769108581542969e-05, 2.19140625) (-4.706177520751953e-05, 2.193359375) (-4.639702606201172e-05, 2.1953125) (-4.5697322845458984e-05, 2.197265625) (-4.4963226318359374e-05, 2.19921875) (-4.419538879394531e-05, 2.201171875) (-4.339463424682617e-05, 2.203125) (-4.256193542480469e-05, 2.205078125) (-4.1698089599609375e-05, 2.20703125) (-4.080368423461914e-05, 2.208984375) (-3.9879386901855466e-05, 2.2109375) (-3.89260139465332e-05, 2.212890625) (-3.794473266601562e-05, 2.21484375) (-3.693707275390625e-05, 2.216796875) (-3.590457153320312e-05, 2.21875) (-3.4848663330078124e-05, 2.220703125) (-3.3770980834960936e-05, 2.22265625) (-3.267339324951172e-05, 2.224609375) (-3.155788230895996e-05, 2.2265625) (-3.0426551818847655e-05, 2.228515625) (-2.928131866455078e-05, 2.23046875) (-2.8123683929443358e-05, 2.232421875) (-2.6955244064331054e-05, 2.234375) (-2.57779426574707e-05, 2.236328125) (-2.4593952178955077e-05, 2.23828125) (-2.3405702590942382e-05, 2.240234375) (-2.2215993881225587e-05, 2.2421875) (-2.102776336669922e-05, 2.244140625) (-1.9844579696655274e-05, 2.24609375) (-1.8671031951904296e-05, 2.248046875) (-1.7511886596679687e-05, 2.25) (-1.6371726989746092e-05, 2.251953125) (-1.525474739074707e-05, 2.25390625) (-1.416461181640625e-05, 2.255859375) (-1.310484504699707e-05, 2.2578125) (-1.2079063415527343e-05, 2.259765625) (-1.1090232849121094e-05, 2.26171875) (-1.0140604019165039e-05, 2.263671875) (-9.232373237609863e-06, 2.265625) (-8.368060111999512e-06, 2.267578125) (-7.5517621040344234e-06, 2.26953125) (-6.788476943969726e-06, 2.271484375) (-6.082449436187744e-06, 2.2734375) (-5.4369549751281735e-06, 2.275390625) (-4.854150772094726e-06, 2.27734375) (-4.335365295410156e-06, 2.279296875) (-3.882055759429932e-06, 2.28125) (-3.495849847793579e-06, 2.283203125) (-3.176107406616211e-06, 2.28515625) (-2.920271873474121e-06, 2.287109375) (-2.7270455360412597e-06, 2.2890625) (-2.5966622829437254e-06, 2.291015625) (-2.533442497253418e-06, 2.29296875) (-2.545419692993164e-06, 2.294921875) (-2.6377782821655274e-06, 2.296875) (-2.8107314109802245e-06, 2.298828125) (-3.061161518096924e-06, 2.30078125) (-3.385013103485107e-06, 2.302734375) (-3.7780282497406003e-06, 2.3046875) (-4.2359724044799806e-06, 2.306640625) (-4.749466896057128e-06, 2.30859375) (-5.3013958930969234e-06, 2.310546875) (-5.874329566955566e-06, 2.3125) (-6.4537057876586914e-06, 2.314453125) (-7.033265113830566e-06, 2.31640625) (-7.613690376281738e-06, 2.318359375) (-8.190903663635254e-06, 2.3203125) (-8.754256248474121e-06, 2.322265625) (-9.287055969238282e-06, 2.32421875) (-9.770865440368652e-06, 2.326171875) (-1.019791316986084e-05, 2.328125) (-1.0574121475219726e-05, 2.330078125) (-1.0906803131103516e-05, 2.33203125) (-1.1197653770446777e-05, 2.333984375) (-1.1450871467590332e-05, 2.3359375) (-1.1671806335449218e-05, 2.337890625) (-1.1877936363220215e-05, 2.33984375) (-1.2112724304199219e-05, 2.341796875) (-1.242147159576416e-05, 2.34375) (-1.2839956283569335e-05, 2.345703125) (-1.3399196624755858e-05, 2.34765625) (-1.41199312210083e-05, 2.349609375) (-1.502113151550293e-05, 2.3515625) (-1.6148210525512694e-05, 2.353515625) (-1.7553480148315428e-05, 2.35546875) (-1.9229049682617187e-05, 2.357421875) (-2.1107229232788086e-05, 2.359375) (-2.305911636352539e-05, 2.361328125) (-2.4908050537109375e-05, 2.36328125) (-2.6523998260498044e-05, 2.365234375) (-2.781271743774414e-05, 2.3671875) (-2.863432693481445e-05, 2.369140625) (-2.8858612060546875e-05, 2.37109375) (-2.8477218627929686e-05, 2.373046875) (-2.7621582031249997e-05, 2.375) (-2.6596288681030274e-05, 2.376953125) (-2.5782209396362305e-05, 2.37890625) (-2.5431631088256835e-05, 2.380859375) (-2.5716400146484374e-05, 2.3828125) (-2.6813848495483397e-05, 2.384765625) (-2.8803146362304687e-05, 2.38671875) (-3.155847358703613e-05, 2.388671875) (-3.4658744812011714e-05, 2.390625) (-3.7378463745117184e-05, 2.392578125) (-3.9002479553222657e-05, 2.39453125) (-3.893388366699219e-05, 2.396484375) (-3.6535598754882814e-05, 2.3984375) (-3.1234771728515625e-05, 2.400390625) (-2.2567682266235352e-05, 2.40234375) (-1.011604118347168e-05, 2.404296875) (6.094622135162353e-06, 2.40625) (2.5458763122558593e-05, 2.408203125) (4.7504539489746094e-05, 2.41015625) (7.083840942382812e-05, 2.412109375) (9.282347869873046e-05, 2.4140625) (0.00011222109222412109, 2.416015625) (0.0001280857696533203, 2.41796875) (0.0001401240539550781, 2.419921875) (0.00015044946289062498, 2.421875) (0.00015725270080566405, 2.423828125) (0.00015600894165039063, 2.42578125) (0.00014366946411132811, 2.427734375) (0.00011557718658447265, 2.4296875) (7.21742706298828e-05, 2.431640625) (1.8528411865234375e-05, 2.43359375) (-4.227783203125e-05, 2.435546875) (-0.00010421379852294922, 2.4375) (-0.00016115975952148435, 2.439453125) (-0.0002079352264404297, 2.44140625) (-0.00023769073486328124, 2.443359375) (-0.0002479743957519531, 2.4453125) (-0.00024127902221679688, 2.447265625) (-0.00022347433471679688, 2.44921875) (-0.00020164385986328124, 2.451171875) (-0.00017998156738281248, 2.453125) (-0.000159388916015625, 2.455078125) (-0.00013822129821777342, 2.45703125) (-0.0001152192153930664, 2.458984375) (-9.099699401855468e-05, 2.4609375) (-6.712467956542969e-05, 2.462890625) (-4.59774169921875e-05, 2.46484375) (-2.9271228790283202e-05, 2.466796875) (-1.7197223663330076e-05, 2.46875) (-9.248219490051268e-06, 2.470703125) (-4.6540431976318355e-06, 2.47265625) (-2.6442890167236327e-06, 2.474609375) (-2.696823120117187e-06, 2.4765625) (-4.407818794250488e-06, 2.478515625) (-7.038885116577148e-06, 2.48046875) (-9.551382064819336e-06, 2.482421875) (-1.1331434249877929e-05, 2.484375) (-1.217617893218994e-05, 2.486328125) (-1.2074045181274414e-05, 2.48828125) (-1.1251994132995605e-05, 2.490234375) (-9.889621734619141e-06, 2.4921875) (-8.047417640686035e-06, 2.494140625) (-6.033697128295898e-06, 2.49609375) (-4.402530670166015e-06, 2.498046875) (-3.45892333984375e-06, 2.5) (-3.278489828109741e-06, 2.501953125) (-3.821218490600586e-06, 2.50390625) (-4.8739495277404786e-06, 2.505859375) (-6.279854774475098e-06, 2.5078125) (-7.972630500793457e-06, 2.509765625) (-9.771231651306153e-06, 2.51171875) (-1.1405387878417968e-05, 2.513671875) (-1.2701848983764648e-05, 2.515625) (-1.3570438385009765e-05, 2.517578125) (-1.3991058349609375e-05, 2.51953125) (-1.4038257598876952e-05, 2.521484375) (-1.3762868881225586e-05, 2.5234375) (-1.3180191040039061e-05, 2.525390625) (-1.2341564178466796e-05, 2.52734375) (-1.1317775726318359e-05, 2.529296875) (-1.017897605895996e-05, 2.53125) (-9.003007888793944e-06, 2.533203125) (-7.8458514213562e-06, 2.53515625) (-6.72664737701416e-06, 2.537109375) (-5.663261413574218e-06, 2.5390625) (-4.67812442779541e-06, 2.541015625) (-3.792176008224487e-06, 2.54296875) (-3.0286705493927003e-06, 2.544921875) (-2.398780345916748e-06, 2.546875) (-1.8960249423980712e-06, 2.548828125) (-1.5098490715026854e-06, 2.55078125) (-1.2311574220657347e-06, 2.552734375) (-1.049983263015747e-06, 2.5546875) (-9.55300509929657e-07, 2.556640625) (-9.30118441581726e-07, 2.55859375) (-9.489849805831908e-07, 2.560546875) (-9.82842445373535e-07, 2.5625) (-1.0004708766937255e-06, 2.564453125) (-9.710490107536315e-07, 2.56640625) (-8.709208369255065e-07, 2.568359375) (-6.814064383506775e-07, 2.5703125) (-3.855658173561096e-07, 2.572265625) (3.0655253678560255e-08, 2.57421875) (5.78934371471405e-07, 2.576171875) (1.2670011520385741e-06, 2.578125) (2.096560001373291e-06, 2.580078125) (3.0664634704589843e-06, 2.58203125) (4.1773061752319336e-06, 2.583984375) (5.430614471435547e-06, 2.5859375) (6.827407836914062e-06, 2.587890625) (8.36738395690918e-06, 2.58984375) (1.0047221183776856e-05, 2.591796875) (1.1861883163452149e-05, 2.59375) (1.3805665969848632e-05, 2.595703125) (1.587147808074951e-05, 2.59765625) (1.805171775817871e-05, 2.599609375) (2.0338430404663086e-05, 2.6015625) (2.2722938537597656e-05, 2.603515625) (2.5196599960327147e-05, 2.60546875) (2.7750844955444334e-05, 2.607421875) (3.037673759460449e-05, 2.609375) (3.3065338134765626e-05, 2.611328125) (3.580765151977539e-05, 2.61328125) (3.8593299865722654e-05, 2.615234375) (4.141056442260742e-05, 2.6171875) (4.4246910095214844e-05, 2.619140625) (4.708875274658203e-05, 2.62109375) (4.992196273803711e-05, 2.623046875) (5.273218917846679e-05, 2.625) (5.550458526611328e-05, 2.626953125) (5.8223915100097655e-05, 2.62890625) (6.087522506713867e-05, 2.630859375) (6.344386291503906e-05, 2.6328125) (6.591539764404296e-05, 2.634765625) (6.827588653564453e-05, 2.63671875) (7.051171874999999e-05, 2.638671875) (7.260963439941406e-05, 2.640625) (7.455693054199218e-05, 2.642578125) (7.634151458740235e-05, 2.64453125) (7.795193481445313e-05, 2.646484375) (7.937753295898437e-05, 2.6484375) (8.060861968994141e-05, 2.650390625) (8.1636474609375e-05, 2.65234375) (8.245345306396484e-05, 2.654296875) (8.305294799804687e-05, 2.65625) (8.342949676513672e-05, 2.658203125) (8.357889556884766e-05, 2.66015625) (8.349821472167968e-05, 2.662109375) (8.31856689453125e-05, 2.6640625) (8.26406021118164e-05, 2.666015625) (8.186340332031249e-05, 2.66796875) (8.08555450439453e-05, 2.669921875) (7.961975860595702e-05, 2.671875) (7.815986633300781e-05, 2.673828125) (7.648085021972656e-05, 2.67578125) (7.45887451171875e-05, 2.677734375) (7.249076843261719e-05, 2.6796875) (7.019517517089843e-05, 2.681640625) (6.77113265991211e-05, 2.68359375) (6.504967498779296e-05, 2.685546875) (6.222151947021484e-05, 2.6875) (5.9239059448242187e-05, 2.689453125) (5.6115272521972654e-05, 2.69140625) (5.286378479003906e-05, 2.693359375) (4.949873352050781e-05, 2.6953125) (4.6034759521484375e-05, 2.697265625) (4.248687744140625e-05, 2.69921875) (3.887042999267578e-05, 2.701171875) (3.5200958251953124e-05, 2.703125) (3.1494094848632814e-05, 2.705078125) (2.7765487670898438e-05, 2.70703125) (2.403071403503418e-05, 2.708984375) (2.030517578125e-05, 2.7109375) (1.660398483276367e-05, 2.712890625) (1.2941884994506835e-05, 2.71484375) (9.333144187927245e-06, 2.716796875) (5.79149055480957e-06, 2.71875) (2.3300564289093016e-06, 2.720703125) (-1.0387091636657715e-06, 2.72265625) (-4.3030614852905275e-06, 2.724609375) (-7.451985359191894e-06, 2.7265625) (-1.0475244522094727e-05, 2.728515625) (-1.3363412857055664e-05, 2.73046875) (-1.6107929229736326e-05, 2.732421875) (-1.8701135635375977e-05, 2.734375) (-2.113629913330078e-05, 2.736328125) (-2.3407617568969726e-05, 2.73828125) (-2.5510276794433593e-05, 2.740234375) (-2.7440467834472654e-05, 2.7421875) (-2.9195400238037107e-05, 2.744140625) (-3.0773305892944335e-05, 2.74609375) (-3.217341613769531e-05, 2.748046875) (-3.3395957946777344e-05, 2.75) (-3.444210815429687e-05, 2.751953125) (-3.531398773193359e-05, 2.75390625) (-3.601462936401367e-05, 2.755859375) (-3.654791259765625e-05, 2.7578125) (-3.691854095458984e-05, 2.759765625) (-3.713196182250976e-05, 2.76171875) (-3.719432067871094e-05, 2.763671875) (-3.711238098144531e-05, 2.765625) (-3.689350128173828e-05, 2.767578125) (-3.654552459716797e-05, 2.76953125) (-3.607668304443359e-05, 2.771484375) (-3.549558639526367e-05, 2.7734375) (-3.481107330322265e-05, 2.775390625) (-3.4032192230224606e-05, 2.77734375) (-3.3168109893798825e-05, 2.779296875) (-3.222806549072266e-05, 2.78125) (-3.1221300125122066e-05, 2.783203125) (-3.0157009124755858e-05, 2.78515625) (-2.9044294357299804e-05, 2.787109375) (-2.7892120361328123e-05, 2.7890625) (-2.6709274291992187e-05, 2.791015625) (-2.5504318237304688e-05, 2.79296875) (-2.4285539627075194e-05, 2.794921875) (-2.306092834472656e-05, 2.796875) (-2.183811569213867e-05, 2.798828125) (-2.0624368667602537e-05, 2.80078125) (-1.9426536560058594e-05, 2.802734375) (-1.8251028060913085e-05, 2.8046875) (-1.7103796005249022e-05, 2.806640625) (-1.599030113220215e-05, 2.80859375) (-1.491553211212158e-05, 2.810546875) (-1.3883975982666015e-05, 2.8125) (-1.2899623870849608e-05, 2.814453125) (-1.1965961456298828e-05, 2.81640625) (-1.1085975646972656e-05, 2.818359375) (-1.0262158393859863e-05, 2.8203125) (-9.496522903442382e-06, 2.822265625) (-8.790616989135742e-06, 2.82421875) (-8.14553451538086e-06, 2.826171875) (-7.561927318572998e-06, 2.828125) (-7.040048122406005e-06, 2.830078125) (-6.579778671264648e-06, 2.83203125) (-6.1806402206420895e-06, 2.833984375) (-5.841842174530029e-06, 2.8359375) (-5.562298774719238e-06, 2.837890625) (-5.340653419494628e-06, 2.83984375) (-5.1753320693969726e-06, 2.841796875) (-5.064565658569336e-06, 2.84375) (-5.006393909454346e-06, 2.845703125) (-4.998689651489257e-06, 2.84765625) (-5.039187431335449e-06, 2.849609375) (-5.125483512878418e-06, 2.8515625) (-5.255097389221191e-06, 2.853515625) (-5.42549991607666e-06, 2.85546875) (-5.634063720703125e-06, 2.857421875) (-5.8780927658081054e-06, 2.859375) (-6.154830455780029e-06, 2.861328125) (-6.461454391479492e-06, 2.86328125) (-6.795145988464355e-06, 2.865234375) (-7.153102397918701e-06, 2.8671875) (-7.532474040985107e-06, 2.869140625) (-7.930377960205079e-06, 2.87109375) (-8.343896865844726e-06, 2.873046875) (-8.7700777053833e-06, 2.875) (-9.205991744995116e-06, 2.876953125) (-9.648746490478515e-06, 2.87890625) (-1.0095386505126953e-05, 2.880859375) (-1.0542897224426269e-05, 2.8828125) (-1.0988222122192383e-05, 2.884765625) (-1.142824363708496e-05, 2.88671875) (-1.1859884262084961e-05, 2.888671875) (-1.2280128479003906e-05, 2.890625) (-1.2685919761657715e-05, 2.892578125) (-1.307417583465576e-05, 2.89453125) (-1.344185161590576e-05, 2.896484375) (-1.3785918235778808e-05, 2.8984375) (-1.4103471755981444e-05, 2.900390625) (-1.4391756057739257e-05, 2.90234375) (-1.464799976348877e-05, 2.904296875) (-1.4869424819946288e-05, 2.90625) (-1.5053321838378906e-05, 2.908203125) (-1.5197033882141113e-05, 2.91015625) (-1.5298009872436522e-05, 2.912109375) (-1.5353860855102538e-05, 2.9140625) (-1.536216354370117e-05, 2.916015625) (-1.532042694091797e-05, 2.91796875) (-1.5226358413696288e-05, 2.919921875) (-1.5077850341796874e-05, 2.921875) (-1.4873063087463377e-05, 2.923828125) (-1.4610514640808104e-05, 2.92578125) (-1.4288820266723632e-05, 2.927734375) (-1.3906702995300292e-05, 2.9296875) (-1.34632568359375e-05, 2.931640625) (-1.2957940101623535e-05, 2.93359375) (-1.2390607833862304e-05, 2.935546875) (-1.1761560440063476e-05, 2.9375) (-1.1071273803710937e-05, 2.939453125) (-1.0320428848266602e-05, 2.94140625) (-9.510292053222655e-06, 2.943359375) (-8.642716407775879e-06, 2.9453125) (-7.72017765045166e-06, 2.947265625) (-6.745811462402343e-06, 2.94921875) (-5.723077774047851e-06, 2.951171875) (-4.655750751495361e-06, 2.953125) (-3.548241853713989e-06, 2.955078125) (-2.4054915904998776e-06, 2.95703125) (-1.232820987701416e-06, 2.958984375) (-3.594124317169189e-08, 2.9609375) (1.1794526576995848e-06, 2.962890625) (2.40772008895874e-06, 2.96484375) (3.642811298370361e-06, 2.966796875) (4.87827205657959e-06, 2.96875) (6.107349395751953e-06, 2.970703125) (7.323018074035644e-06, 2.97265625) (8.518011093139649e-06, 2.974609375) (9.684889793395996e-06, 2.9765625) (1.0815542221069336e-05, 2.978515625) (1.1901090621948242e-05, 2.98046875) (1.2932805061340332e-05, 2.982421875) (1.3902421951293945e-05, 2.984375) (1.4802162170410155e-05, 2.986328125) (1.5624774932861327e-05, 2.98828125) (1.636341667175293e-05, 2.990234375) (1.70115909576416e-05, 2.9921875) (1.7563884735107422e-05, 2.994140625) (1.8016422271728514e-05, 2.99609375) (1.8365566253662108e-05, 2.998046875) (1.8607507705688475e-05, 3.0) (1.873860168457031e-05, 3.001953125) (1.8755163192749024e-05, 3.00390625) (1.865488815307617e-05, 3.005859375) (1.8437892913818358e-05, 3.0078125) (1.8105161666870118e-05, 3.009765625) (1.765829849243164e-05, 3.01171875) (1.7099937438964843e-05, 3.013671875) (1.6432695388793946e-05, 3.015625) (1.56611270904541e-05, 3.017578125) (1.479286766052246e-05, 3.01953125) (1.3833879470825194e-05, 3.021484375) (1.278770351409912e-05, 3.0234375) (1.1655976295471192e-05, 3.025390625) (1.0436637878417968e-05, 3.02734375) (9.131158828735352e-06, 3.029296875) (7.747838020324706e-06, 3.03125) (6.294691085815429e-06, 3.033203125) (4.78023624420166e-06, 3.03515625) (3.21527099609375e-06, 3.037109375) (1.609121561050415e-06, 3.0390625) (-2.171100676059723e-08, 3.041015625) (-1.6508755683898925e-06, 3.04296875) (-3.2549688816070556e-06, 3.044921875) (-4.812289237976074e-06, 3.046875) (-6.304632186889648e-06, 3.048828125) (-7.723546981811523e-06, 3.05078125) (-9.054763793945312e-06, 3.052734375) (-1.027381420135498e-05, 3.0546875) (-1.1358305931091307e-05, 3.056640625) (-1.2284016609191895e-05, 3.05859375) (-1.3037112236022948e-05, 3.060546875) (-1.3623991012573241e-05, 3.0625) (-1.4044540405273437e-05, 3.064453125) (-1.4294198989868163e-05, 3.06640625) (-1.43759708404541e-05, 3.068359375) (-1.4290992736816406e-05, 3.0703125) (-1.406733226776123e-05, 3.072265625) (-1.3765243530273438e-05, 3.07421875) (-1.3437159538269042e-05, 3.076171875) (-1.3135788917541504e-05, 3.078125) (-1.2911070823669433e-05, 3.080078125) (-1.2784595489501952e-05, 3.08203125) (-1.2805326461791992e-05, 3.083984375) (-1.3052120208740234e-05, 3.0859375) (-1.3531649589538574e-05, 3.087890625) (-1.4207181930541991e-05, 3.08984375) (-1.4989108085632324e-05, 3.091796875) (-1.5688581466674804e-05, 3.09375) (-1.6173995971679688e-05, 3.095703125) (-1.6373218536376953e-05, 3.09765625) (-1.6134017944335937e-05, 3.099609375) (-1.5337706565856932e-05, 3.1015625) (-1.4014759063720703e-05, 3.103515625) (-1.2252409934997559e-05, 3.10546875) (-1.0314851760864258e-05, 3.107421875) (-8.62810230255127e-06, 3.109375) (-7.433002948760986e-06, 3.111328125) (-6.930758953094482e-06, 3.11328125) (-7.41906452178955e-06, 3.115234375) (-8.953560829162598e-06, 3.1171875) (-1.1312471389770508e-05, 3.119140625) (-1.4092460632324218e-05, 3.12109375) (-1.6516971588134764e-05, 3.123046875) (-1.767403030395508e-05, 3.125) (-1.689499282836914e-05, 3.126953125) (-1.337339973449707e-05, 3.12890625) (-6.209240913391113e-06, 3.130859375) (5.0697817802429194e-06, 3.1328125) (2.0692264556884766e-05, 3.134765625) (4.0582847595214845e-05, 3.13671875) (6.406034851074219e-05, 3.138671875) (9.025328063964843e-05, 3.140625) (0.00011754573822021484, 3.142578125) (0.00014312484741210938, 3.14453125) (0.000164434326171875, 3.146484375) (0.00017984085083007812, 3.1484375) (0.00018994488525390625, 3.150390625) (0.00019705187988281248, 3.15234375) (0.00020201840209960938, 3.154296875) (0.00020307695007324217, 3.15625) (0.00019432284545898437, 3.158203125) (0.00016875685119628907, 3.16015625) (0.00012236923217773436, 3.162109375) (5.611208343505859e-05, 3.1640625) (-2.1163200378417967e-05, 3.166015625) (-9.692852020263671e-05, 3.16796875) (-0.0001586109924316406, 3.169921875) (-0.0001972542266845703, 3.171875) (-0.0002127364501953125, 3.173828125) (-0.0002104861145019531, 3.17578125) (-0.00019888258361816405, 3.177734375) (-0.00018541592407226562, 3.1796875) (-0.000172192626953125, 3.181640625) (-0.0001583395080566406, 3.18359375) (-0.00014181190490722656, 3.185546875) (-0.00012145459747314452, 3.1875) (-9.851197814941405e-05, 3.189453125) (-7.520416259765625e-05, 3.19140625) (-5.374559783935547e-05, 3.193359375) (-3.5605644226074216e-05, 3.1953125) (-2.1533084869384766e-05, 3.197265625) (-1.1559183120727538e-05, 3.19921875) (-5.091297149658203e-06, 3.201171875) (-1.5529483556747436e-06, 3.203125) (-3.5895478725433347e-07, 3.205078125) (-9.185545444488525e-07, 3.20703125) (-2.8433523178100586e-06, 3.208984375) (-5.510737419128418e-06, 3.2109375) (-7.955573081970214e-06, 3.212890625) (-9.625201225280762e-06, 3.21484375) (-1.0364686012268065e-05, 3.216796875) (-1.0182714462280272e-05, 3.21875) (-9.342305183410643e-06, 3.220703125) (-8.065455436706543e-06, 3.22265625) (-6.4374589920043945e-06, 3.224609375) (-4.765581130981445e-06, 3.2265625) (-3.573298215866089e-06, 3.228515625) (-3.1480958461761472e-06, 3.23046875) (-3.563918590545654e-06, 3.232421875) (-4.7569122314453125e-06, 3.234375) (-6.484734535217285e-06, 3.236328125) (-8.566298484802246e-06, 3.23828125) (-1.0912942886352539e-05, 3.240234375) (-1.3341796874999999e-05, 3.2421875) (-1.559011459350586e-05, 3.244140625) (-1.7478158950805664e-05, 3.24609375) (-1.8903474807739257e-05, 3.248046875) (-1.9838672637939453e-05, 3.25) (-2.034821319580078e-05, 3.251953125) (-2.0475990295410155e-05, 3.25390625) (-2.02342529296875e-05, 3.255859375) (-1.965835952758789e-05, 3.2578125) (-1.8801328659057616e-05, 3.259765625) (-1.772301483154297e-05, 3.26171875) (-1.649055480957031e-05, 3.263671875) (-1.516509437561035e-05, 3.265625) (-1.3788784027099608e-05, 3.267578125) (-1.2396238327026367e-05, 3.26953125) (-1.1019888877868651e-05, 3.271484375) (-9.690622329711913e-06, 3.2734375) (-8.441509246826172e-06, 3.275390625) (-7.296955108642578e-06, 3.27734375) (-6.2677960395812985e-06, 3.279296875) (-5.353384494781494e-06, 3.28125) (-4.5460619926452635e-06, 3.283203125) (-3.839494705200195e-06, 3.28515625) (-3.227583408355713e-06, 3.287109375) (-2.7019593715667724e-06, 3.2890625) (-2.2489147186279297e-06, 3.291015625) (-1.8464548587799072e-06, 3.29296875) (-1.4693140983581543e-06, 3.294921875) (-1.0904102325439453e-06, 3.296875) (-6.823137402534484e-07, 3.298828125) (-2.237826734781265e-07, 3.30078125) (3.018229603767395e-07, 3.302734375) (9.10263180732727e-07, 3.3046875) (1.6144940853118896e-06, 3.306640625) (2.4231333732604978e-06, 3.30859375) (3.341403007507324e-06, 3.310546875) (4.369354248046875e-06, 3.3125) (5.503661155700684e-06, 3.314453125) (6.74360179901123e-06, 3.31640625) (8.08949089050293e-06, 3.318359375) (9.540700912475585e-06, 3.3203125) (1.1095942497253417e-05, 3.322265625) (1.2751454353332519e-05, 3.32421875) (1.4501947402954101e-05, 3.326171875) (1.634186553955078e-05, 3.328125) (1.8264606475830077e-05, 3.330078125) (2.0263160705566407e-05, 3.33203125) (2.2330530166625975e-05, 3.333984375) (2.445926284790039e-05, 3.3359375) (2.664202880859375e-05, 3.337890625) (2.8871883392333983e-05, 3.33984375) (3.1141511917114254e-05, 3.341796875) (3.344367218017578e-05, 3.34375) (3.577122497558594e-05, 3.345703125) (3.8115615844726564e-05, 3.34765625) (4.0467018127441406e-05, 3.349609375) (4.281488800048828e-05, 3.3515625) (4.514765167236328e-05, 3.353515625) (4.745326995849609e-05, 3.35546875) (4.9719650268554684e-05, 3.357421875) (5.193415832519531e-05, 3.359375) (5.408375549316406e-05, 3.361328125) (5.6155807495117186e-05, 3.36328125) (5.813794708251953e-05, 3.365234375) (6.0018127441406244e-05, 3.3671875) (6.178490447998047e-05, 3.369140625) (6.342718887329102e-05, 3.37109375) (6.493423461914062e-05, 3.373046875) (6.629596710205077e-05, 3.375) (6.750293731689453e-05, 3.376953125) (6.854633331298828e-05, 3.37890625) (6.9418212890625e-05, 3.380859375) (7.011143493652344e-05, 3.3828125) (7.061978149414062e-05, 3.384765625) (7.093792724609375e-05, 3.38671875) (7.106149291992187e-05, 3.388671875) (7.0987060546875e-05, 3.390625) (7.07123794555664e-05, 3.392578125) (7.023625183105469e-05, 3.39453125) (6.95584716796875e-05, 3.396484375) (6.867980957031249e-05, 3.3984375) (6.76019058227539e-05, 3.400390625) (6.632740020751953e-05, 3.40234375) (6.486003112792969e-05, 3.404296875) (6.320449066162109e-05, 3.40625) (6.136639404296874e-05, 3.408203125) (5.9352317810058594e-05, 3.41015625) (5.71697769165039e-05, 3.412109375) (5.482720184326172e-05, 3.4140625) (5.23339614868164e-05, 3.416015625) (4.970029449462891e-05, 3.41796875) (4.693714904785156e-05, 3.419921875) (4.405617523193359e-05, 3.421875) (4.1069637298583985e-05, 3.423828125) (3.799020385742188e-05, 3.42578125) (3.483087921142578e-05, 3.427734375) (3.160491752624512e-05, 3.4296875) (2.8325674057006836e-05, 3.431640625) (2.500653839111328e-05, 3.43359375) (2.1660850524902344e-05, 3.435546875) (1.8301774978637693e-05, 3.4375) (1.4942243576049804e-05, 3.439453125) (1.1594911575317381e-05, 3.44140625) (8.272079467773438e-06, 3.443359375) (4.985620498657226e-06, 3.4453125) (1.7469366788864134e-06, 3.447265625) (-1.4330987930297851e-06, 3.44921875) (-4.54417610168457e-06, 3.451171875) (-7.576586723327636e-06, 3.453125) (-1.0521281242370606e-05, 3.455078125) (-1.3369876861572264e-05, 3.45703125) (-1.611467170715332e-05, 3.458984375) (-1.8748661041259763e-05, 3.4609375) (-2.126553726196289e-05, 3.462890625) (-2.3659725189208985e-05, 3.46484375) (-2.5926389694213865e-05, 3.466796875) (-2.806144905090332e-05, 3.46875) (-3.0061561584472656e-05, 3.470703125) (-3.192416381835937e-05, 3.47265625) (-3.364746856689453e-05, 3.474609375) (-3.5230487823486324e-05, 3.4765625) (-3.667304229736328e-05, 3.478515625) (-3.797573089599609e-05, 3.48046875) (-3.913995361328125e-05, 3.482421875) (-4.016786193847656e-05, 3.484375) (-4.106232452392578e-05, 3.486328125) (-4.1826862335205076e-05, 3.48828125) (-4.246561050415039e-05, 3.490234375) (-4.298323059082031e-05, 3.4921875) (-4.338483428955078e-05, 3.494140625) (-4.3675903320312497e-05, 3.49609375) (-4.386221313476562e-05, 3.498046875) (-4.394974899291992e-05, 3.5) (-4.3944679260253904e-05, 3.501953125) (-4.3853256225585937e-05, 3.50390625) (-4.3681793212890625e-05, 3.505859375) (-4.343659210205078e-05, 3.5078125) (-4.3123939514160155e-05, 3.509765625) (-4.275006866455078e-05, 3.51171875) (-4.232114028930664e-05, 3.513671875) (-4.184321975708008e-05, 3.515625) (-4.132225036621093e-05, 3.517578125) (-4.0764034271240236e-05, 3.51953125) (-4.017422485351562e-05, 3.521484375) (-3.955831527709961e-05, 3.5234375) (-3.892162704467773e-05, 3.525390625) (-3.826930618286133e-05, 3.52734375) (-3.7606288909912106e-05, 3.529296875) (-3.693729019165039e-05, 3.53125) (-3.626679611206055e-05, 3.533203125) (-3.5599018096923824e-05, 3.53515625) (-3.4937934875488276e-05, 3.537109375) (-3.428719711303711e-05, 3.5390625) (-3.365015411376953e-05, 3.541015625) (-3.3029769897460934e-05, 3.54296875) (-3.242860412597656e-05, 3.544921875) (-3.184885025024414e-05, 3.546875) (-3.1292293548583984e-05, 3.548828125) (-3.076033020019531e-05, 3.55078125) (-3.0253957748413085e-05, 3.552734375) (-2.9773815155029297e-05, 3.5546875) (-2.9320217132568358e-05, 3.556640625) (-2.8893218994140624e-05, 3.55859375) (-2.8492649078369138e-05, 3.560546875) (-2.8118162155151364e-05, 3.5625) (-2.776924896240234e-05, 3.564453125) (-2.7445289611816404e-05, 3.56640625) (-2.7145614624023438e-05, 3.568359375) (-2.6869464874267576e-05, 3.5703125) (-2.6616050720214843e-05, 3.572265625) (-2.638454246520996e-05, 3.57421875) (-2.617403221130371e-05, 3.576171875) (-2.5983558654785154e-05, 3.578125) (-2.581210708618164e-05, 3.580078125) (-2.5658580780029294e-05, 3.58203125) (-2.5521814346313475e-05, 3.583984375) (-2.5400564193725583e-05, 3.5859375) (-2.5293462753295897e-05, 3.587890625) (-2.5199028015136716e-05, 3.58984375) (-2.511569595336914e-05, 3.591796875) (-2.5041814804077148e-05, 3.59375) (-2.4975704193115234e-05, 3.595703125) (-2.4915594100952147e-05, 3.59765625) (-2.485960578918457e-05, 3.599609375) (-2.4805803298950193e-05, 3.6015625) (-2.475223350524902e-05, 3.603515625) (-2.469696617126465e-05, 3.60546875) (-2.463815689086914e-05, 3.607421875) (-2.4573997497558592e-05, 3.609375) (-2.4502677917480466e-05, 3.611328125) (-2.4422504425048827e-05, 3.61328125) (-2.433191680908203e-05, 3.615234375) (-2.4229471206665038e-05, 3.6171875) (-2.4113862991333008e-05, 3.619140625) (-2.3983901977539063e-05, 3.62109375) (-2.383842086791992e-05, 3.623046875) (-2.367629051208496e-05, 3.625) (-2.3496471405029297e-05, 3.626953125) (-2.329789352416992e-05, 3.62890625) (-2.3079469680786133e-05, 3.630859375) (-2.284012985229492e-05, 3.6328125) (-2.2578720092773438e-05, 3.634765625) (-2.2293991088867186e-05, 3.63671875) (-2.1984689712524413e-05, 3.638671875) (-2.1649551391601563e-05, 3.640625) (-2.128732681274414e-05, 3.642578125) (-2.0896903991699217e-05, 3.64453125) (-2.047720718383789e-05, 3.646484375) (-2.002726364135742e-05, 3.6484375) (-1.954634666442871e-05, 3.650390625) (-1.9033950805664062e-05, 3.65234375) (-1.8489835739135742e-05, 3.654296875) (-1.7913925170898438e-05, 3.65625) (-1.730621528625488e-05, 3.658203125) (-1.6666929244995116e-05, 3.66015625) (-1.599659538269043e-05, 3.662109375) (-1.5295988082885743e-05, 3.6640625) (-1.4566131591796874e-05, 3.666015625) (-1.3808195114135742e-05, 3.66796875) (-1.3023387908935546e-05, 3.669921875) (-1.2213189125061035e-05, 3.671875) (-1.1379506111145019e-05, 3.673828125) (-1.0524410247802734e-05, 3.67578125) (-9.650123596191406e-06, 3.677734375) (-8.75904655456543e-06, 3.6796875) (-7.853575706481933e-06, 3.681640625) (-6.936193466186523e-06, 3.68359375) (-6.009694576263427e-06, 3.685546875) (-5.07698106765747e-06, 3.6875) (-4.140980720520019e-06, 3.689453125) (-3.20489764213562e-06, 3.69140625) (-2.2720844745635984e-06, 3.693359375) (-1.3459439277648925e-06, 3.6953125) (-4.3023672699928283e-07, 3.697265625) (4.707730412483215e-07, 3.69921875) (1.3525538444519042e-06, 3.701171875) (2.2101118564605712e-06, 3.703125) (3.0380470752716064e-06, 3.705078125) (3.831019878387451e-06, 3.70703125) (4.583482265472412e-06, 3.708984375) (5.2897014617919915e-06, 3.7109375) (5.944209575653076e-06, 3.712890625) (6.54207706451416e-06, 3.71484375) (7.0791230201721186e-06, 3.716796875) (7.551941871643066e-06, 3.71875) (7.957628726959228e-06, 3.720703125) (8.293681144714356e-06, 3.72265625) (8.558170318603515e-06, 3.724609375) (8.749348640441893e-06, 3.7265625) (8.865530967712402e-06, 3.728515625) (8.904836654663086e-06, 3.73046875) (8.864713668823242e-06, 3.732421875) (8.743227005004882e-06, 3.734375) (8.539734840393066e-06, 3.736328125) (8.25408935546875e-06, 3.73828125) (7.886982917785645e-06, 3.740234375) (7.4408698081970215e-06, 3.7421875) (6.919526100158691e-06, 3.744140625) (6.327197074890136e-06, 3.74609375) (5.668695449829102e-06, 3.748046875) (4.946574687957763e-06, 3.75) (4.160408973693847e-06, 3.751953125) (3.310798406600952e-06, 3.75390625) (2.3991475105285644e-06, 3.755859375) (1.4279093742370604e-06, 3.7578125) (4.022203981876373e-07, 3.759765625) (-6.692420840263367e-07, 3.76171875) (-1.773857831954956e-06, 3.763671875) (-2.894468784332275e-06, 3.765625) (-4.0094528198242185e-06, 3.767578125) (-5.096635341644287e-06, 3.76953125) (-6.13440465927124e-06, 3.771484375) (-7.104407787322998e-06, 3.7734375) (-7.9949893951416e-06, 3.775390625) (-8.798704147338867e-06, 3.77734375) (-9.510173797607421e-06, 3.779296875) (-1.0120521545410156e-05, 3.78125) (-1.0615605354309082e-05, 3.783203125) (-1.098550510406494e-05, 3.78515625) (-1.1227258682250977e-05, 3.787109375) (-1.1342613220214844e-05, 3.7890625) (-1.1336763381958007e-05, 3.791015625) (-1.1222057342529297e-05, 3.79296875) (-1.102077293395996e-05, 3.794921875) (-1.0768812179565429e-05, 3.796875) (-1.0521553993225097e-05, 3.798828125) (-1.0331993103027343e-05, 3.80078125) (-1.0239016532897948e-05, 3.802734375) (-1.0280380249023437e-05, 3.8046875) (-1.0484203338623046e-05, 3.806640625) (-1.0869762420654297e-05, 3.80859375) (-1.1467432975769042e-05, 3.810546875) (-1.2302459716796874e-05, 3.8125) (-1.338041591644287e-05, 3.814453125) (-1.4718454360961914e-05, 3.81640625) (-1.632870864868164e-05, 3.818359375) (-1.817118263244629e-05, 3.8203125) (-2.0183687210083008e-05, 3.822265625) (-2.222867393493652e-05, 3.82421875) (-2.4054428100585936e-05, 3.826171875) (-2.541841506958008e-05, 3.828125) (-2.608531379699707e-05, 3.830078125) (-2.5793754577636718e-05, 3.83203125) (-2.439243698120117e-05, 3.833984375) (-2.1869544982910156e-05, 3.8359375) (-1.8296674728393555e-05, 3.837890625) (-1.4045376777648925e-05, 3.83984375) (-9.724828720092773e-06, 3.841796875) (-5.867470264434814e-06, 3.84375) (-3.054654836654663e-06, 3.845703125) (-1.8101913928985594e-06, 3.84765625) (-2.2546510696411134e-06, 3.849609375) (-4.23804759979248e-06, 3.8515625) (-7.366017341613769e-06, 3.853515625) (-1.058193302154541e-05, 3.85546875) (-1.248117446899414e-05, 3.857421875) (-1.1793783187866211e-05, 3.859375) (-6.99738883972168e-06, 3.861328125) (3.3795485496520996e-06, 3.86328125) (1.9940013885498046e-05, 3.865234375) (4.2742294311523433e-05, 3.8671875) (7.14334716796875e-05, 3.869140625) (0.00010374954986572266, 3.87109375) (0.00013685191345214843, 3.873046875) (0.00016896466064453123, 3.875) (0.00019692190551757812, 3.876953125) (0.00021894760131835935, 3.87890625) (0.00023437615966796874, 3.880859375) (0.00023904284667968748, 3.8828125) (0.000230386962890625, 3.884765625) (0.00020653118896484375, 3.88671875) (0.00016576771545410155, 3.888671875) (0.00011272858428955078, 3.890625) (5.2932617187499994e-05, 3.892578125) (-8.410091400146484e-06, 3.89453125) (-6.526730346679687e-05, 3.896484375) (-0.00011558643341064453, 3.8984375) (-0.0001578585205078125, 3.900390625) (-0.00019021331787109373, 3.90234375) (-0.00021231666564941405, 3.904296875) (-0.00022325335693359374, 3.90625) (-0.00022297128295898437, 3.908203125) (-0.0002127763671875, 3.91015625) (-0.00019428349304199217, 3.912109375) (-0.00017001486206054688, 3.9140625) (-0.00014270159912109373, 3.916015625) (-0.00011461120605468749, 3.91796875) (-8.766456604003905e-05, 3.919921875) (-6.321775817871094e-05, 3.921875) (-4.234592056274414e-05, 3.923828125) (-2.6125526428222657e-05, 3.92578125) (-1.4940295219421386e-05, 3.927734375) (-8.42073631286621e-06, 3.9296875) (-5.864606857299804e-06, 3.931640625) (-6.27539300918579e-06, 3.93359375) (-8.725615501403809e-06, 3.935546875) (-1.2549556732177733e-05, 3.9375) (-1.6834045410156248e-05, 3.939453125) (-2.040887641906738e-05, 3.94140625) (-2.260797119140625e-05, 3.943359375) (-2.3226951599121094e-05, 3.9453125) (-2.234132385253906e-05, 3.947265625) (-2.036037826538086e-05, 3.94921875) (-1.7622854232788084e-05, 3.951171875) (-1.4328042984008789e-05, 3.953125) (-1.0914030075073241e-05, 3.955078125) (-7.99560260772705e-06, 3.95703125) (-5.932393074035644e-06, 3.958984375) (-4.851168155670166e-06, 3.9609375) (-4.678229808807373e-06, 3.962890625) (-5.142769813537597e-06, 3.96484375) (-6.051931381225586e-06, 3.966796875) (-7.295739650726318e-06, 3.96875) (-8.687265396118163e-06, 3.970703125) (-9.97781467437744e-06, 3.97265625) (-1.0973153114318848e-05, 3.974609375) (-1.1557872772216797e-05, 3.9765625) (-1.1708644866943358e-05, 3.978515625) (-1.1489977836608886e-05, 3.98046875) (-1.0955294609069824e-05, 3.982421875) (-1.012684726715088e-05, 3.984375) (-9.03180694580078e-06, 3.986328125) (-7.71568489074707e-06, 3.98828125) (-6.237627029418945e-06, 3.990234375) (-4.665632247924805e-06, 3.9921875) (-3.069446563720703e-06, 3.994140625) (-1.489559292793274e-06, 3.99609375) (5.397355556488037e-08, 3.998046875) (1.5391879081726073e-06, 4.0) (2.94862699508667e-06, 4.001953125) (4.261210441589355e-06, 4.00390625) (5.450046062469482e-06, 4.005859375) (6.504243850708008e-06, 4.0078125) (7.430333137512207e-06, 4.009765625) (8.235666275024414e-06, 4.01171875) (8.927690505981445e-06, 4.013671875) (9.512627601623535e-06, 4.015625) (9.991573333740235e-06, 4.017578125) (1.0375866889953613e-05, 4.01953125) (1.0691756248474121e-05, 4.021484375) (1.0970010757446288e-05, 4.0234375) (1.1244443893432617e-05, 4.025390625) (1.1542242050170897e-05, 4.02734375) (1.1880229949951172e-05, 4.029296875) (1.2274048805236816e-05, 4.03125) (1.2739320755004882e-05, 4.033203125) (1.3290190696716308e-05, 4.03515625) (1.3938796043395995e-05, 4.037109375) (1.4690961837768554e-05, 4.0390625) (1.55460729598999e-05, 4.041015625) (1.6505203247070313e-05, 4.04296875) (1.757268524169922e-05, 4.044921875) (1.875362968444824e-05, 4.046875) (2.005390930175781e-05, 4.048828125) (2.1475770950317383e-05, 4.05078125) (2.301710510253906e-05, 4.052734375) (2.4675195693969727e-05, 4.0546875) (2.644702911376953e-05, 4.056640625) (2.8329605102539062e-05, 4.05859375) (3.031985092163086e-05, 4.060546875) (3.2413330078125e-05, 4.0625) (3.46043701171875e-05, 4.064453125) (3.688755798339843e-05, 4.06640625) (3.92580337524414e-05, 4.068359375) (4.17110595703125e-05, 4.0703125) (4.424166107177734e-05, 4.072265625) (4.6842994689941406e-05, 4.07421875) (4.9506317138671874e-05, 4.076171875) (5.222199630737304e-05, 4.078125) (5.497943496704101e-05, 4.080078125) (5.776746368408203e-05, 4.08203125) (6.057421112060547e-05, 4.083984375) (6.338685607910156e-05, 4.0859375) (6.619202423095702e-05, 4.087890625) (6.897643280029297e-05, 4.08984375) (7.172695159912109e-05, 4.091796875) (7.443047332763672e-05, 4.09375) (7.707389831542968e-05, 4.095703125) (7.964395141601562e-05, 4.09765625) (8.212740325927734e-05, 4.099609375) (8.451126861572265e-05, 4.1015625) (8.678282165527344e-05, 4.103515625) (8.892958068847655e-05, 4.10546875) (9.09392318725586e-05, 4.107421875) (9.279991149902344e-05, 4.109375) (9.450029754638672e-05, 4.111328125) (9.602984619140625e-05, 4.11328125) (9.73787841796875e-05, 4.115234375) (9.853804016113281e-05, 4.1171875) (9.949931335449218e-05, 4.119140625) (0.00010025516510009765, 4.12109375) (0.00010079930114746093, 4.123046875) (0.00010112645721435547, 4.125) (0.00010123248291015625, 4.126953125) (0.00010111421203613281, 4.12890625) (0.00010076942443847656, 4.130859375) (0.00010019711303710937, 4.1328125) (9.939751434326172e-05, 4.134765625) (9.837220764160156e-05, 4.13671875) (9.712398529052733e-05, 4.138671875) (9.565675354003906e-05, 4.140625) (9.397550964355469e-05, 4.142578125) (9.208634948730468e-05, 4.14453125) (8.999649047851561e-05, 4.146484375) (8.771417236328125e-05, 4.1484375) (8.524848175048828e-05, 4.150390625) (8.260924530029297e-05, 4.15234375) (7.98068389892578e-05, 4.154296875) (7.685233306884765e-05, 4.15625) (7.375741577148437e-05, 4.158203125) (7.053439331054688e-05, 4.16015625) (6.719609069824218e-05, 4.162109375) (6.375572204589843e-05, 4.1640625) (6.0226875305175775e-05, 4.166015625) (5.662348556518554e-05, 4.16796875) (5.29598159790039e-05, 4.169921875) (4.925034713745117e-05, 4.171875) (4.5509677886962886e-05, 4.173828125) (4.1752399444580076e-05, 4.17578125) (3.7992984771728516e-05, 4.177734375) (3.424578857421875e-05, 4.1796875) (3.0524967193603515e-05, 4.181640625) (2.684438705444336e-05, 4.18359375) (2.321750259399414e-05, 4.185546875) (1.965724945068359e-05, 4.1875) (1.617597198486328e-05, 4.189453125) (1.2785347938537598e-05, 4.19140625) (9.496332168579101e-06, 4.193359375) (6.319039344787597e-06, 4.1953125) (3.262670040130615e-06, 4.197265625) (3.354467749595642e-07, 4.19921875) (-2.455413341522217e-06, 4.201171875) (-5.103682994842529e-06, 4.203125) (-7.604117393493652e-06, 4.205078125) (-9.9524507522583e-06, 4.20703125) (-1.2145387649536133e-05, 4.208984375) (-1.4180568695068359e-05, 4.2109375) (-1.6056547164916993e-05, 4.212890625) (-1.7772737503051757e-05, 4.21484375) (-1.932938003540039e-05, 4.216796875) (-2.0727540969848632e-05, 4.21875) (-2.19691047668457e-05, 4.220703125) (-2.3056766510009765e-05, 4.22265625) (-2.3994003295898437e-05, 4.224609375) (-2.478504180908203e-05, 4.2265625) (-2.543480110168457e-05, 4.228515625) (-2.594888877868652e-05, 4.23046875) (-2.6333572387695313e-05, 4.232421875) (-2.659572410583496e-05, 4.234375) (-2.6742774963378906e-05, 4.236328125) (-2.678264045715332e-05, 4.23828125) (-2.672367477416992e-05, 4.240234375) (-2.657460021972656e-05, 4.2421875) (-2.6344444274902343e-05, 4.244140625) (-2.604246711730957e-05, 4.24609375) (-2.567803955078125e-05, 4.248046875) (-2.5260562896728515e-05, 4.25) (-2.4799362182617188e-05, 4.251953125) (-2.430359077453613e-05, 4.25390625) (-2.378211975097656e-05, 4.255859375) (-2.3243457794189453e-05, 4.2578125) (-2.26956729888916e-05, 4.259765625) (-2.2146316528320313e-05, 4.26171875) (-2.160239028930664e-05, 4.263671875) (-2.10703182220459e-05, 4.265625) (-2.0555912017822265e-05, 4.267578125) (-2.0064384460449218e-05, 4.26953125) (-1.9600343704223633e-05, 4.271484375) (-1.916780471801758e-05, 4.2734375) (-1.8770206451416016e-05, 4.275390625) (-1.8410425186157226e-05, 4.27734375) (-1.809077835083008e-05, 4.279296875) (-1.7813018798828126e-05, 4.28125) (-1.7578353881835938e-05, 4.283203125) (-1.7387428283691404e-05, 4.28515625) (-1.7240364074707032e-05, 4.287109375) (-1.713675308227539e-05, 4.2890625) (-1.707569122314453e-05, 4.291015625) (-1.705575370788574e-05, 4.29296875) (-1.7075008392333982e-05, 4.294921875) (-1.7131059646606443e-05, 4.296875) (-1.7221052169799805e-05, 4.298828125) (-1.7341718673706055e-05, 4.30078125) (-1.748941421508789e-05, 4.302734375) (-1.7660091400146485e-05, 4.3046875) (-1.7849361419677733e-05, 4.306640625) (-1.80526065826416e-05, 4.30859375) (-1.826503562927246e-05, 4.310546875) (-1.8481769561767577e-05, 4.3125) (-1.8697898864746094e-05, 4.314453125) (-1.890857696533203e-05, 4.31640625) (-1.9109115600585937e-05, 4.318359375) (-1.929510498046875e-05, 4.3203125) (-1.946244430541992e-05, 4.322265625) (-1.960740280151367e-05, 4.32421875) (-1.972664260864258e-05, 4.326171875) (-1.9817218780517577e-05, 4.328125) (-1.987665557861328e-05, 4.330078125) (-1.9902938842773438e-05, 4.33203125) (-1.9894479751586913e-05, 4.333984375) (-1.9850097656249997e-05, 4.3359375) (-1.9768980026245118e-05, 4.337890625) (-1.9650648117065428e-05, 4.33984375) (-1.9494958877563475e-05, 4.341796875) (-1.9302146911621092e-05, 4.34375) (-1.9072765350341794e-05, 4.345703125) (-1.880765151977539e-05, 4.34765625) (-1.8507923126220702e-05, 4.349609375) (-1.8174854278564452e-05, 4.3515625) (-1.7809906005859374e-05, 4.353515625) (-1.7414825439453124e-05, 4.35546875) (-1.6991603851318358e-05, 4.357421875) (-1.6542354583740233e-05, 4.359375) (-1.606928825378418e-05, 4.361328125) (-1.5574694633483885e-05, 4.36328125) (-1.5060924530029295e-05, 4.365234375) (-1.4530611991882323e-05, 4.3671875) (-1.398660659790039e-05, 4.369140625) (-1.3431758880615235e-05, 4.37109375) (-1.286890411376953e-05, 4.373046875) (-1.230083656311035e-05, 4.375) (-1.1730314254760741e-05, 4.376953125) (-1.1160054206848144e-05, 4.37890625) (-1.059257411956787e-05, 4.380859375) (-1.0029997825622559e-05, 4.3828125) (-9.474026679992675e-06, 4.384765625) (-8.925978660583496e-06, 4.38671875) (-8.386819839477538e-06, 4.388671875) (-7.857239723205567e-06, 4.390625) (-7.337448120117187e-06, 4.392578125) (-6.827180862426757e-06, 4.39453125) (-6.32586669921875e-06, 4.396484375) (-5.832643032073974e-06, 4.3984375) (-5.346513748168945e-06, 4.400390625) (-4.8664426803588865e-06, 4.40234375) (-4.391274452209473e-06, 4.404296875) (-3.919562339782715e-06, 4.40625) (-3.4497015476226806e-06, 4.408203125) (-2.9801316261291503e-06, 4.41015625) (-2.5093164443969724e-06, 4.412109375) (-2.036013126373291e-06, 4.4140625) (-1.5592410564422606e-06, 4.416015625) (-1.0778887271881103e-06, 4.41796875) (-5.908242464065552e-07, 4.419921875) (-9.746265411376953e-08, 4.421875) (4.0220198035240173e-07, 4.423828125) (9.07678723335266e-07, 4.42578125) (1.4179377555847166e-06, 4.427734375) (1.9321749210357667e-06, 4.4296875) (2.44985556602478e-06, 4.431640625) (2.9697866439819334e-06, 4.43359375) (3.490214109420776e-06, 4.435546875) (4.009467124938965e-06, 4.4375) (4.52595329284668e-06, 4.439453125) (5.038609027862548e-06, 4.44140625) (5.546817779541015e-06, 4.443359375) (6.048830509185791e-06, 4.4453125) (6.541945457458496e-06, 4.447265625) (7.023272514343261e-06, 4.44921875) (7.489655494689941e-06, 4.451171875) (7.937960624694823e-06, 4.453125) (8.364600181579589e-06, 4.455078125) (8.764543533325195e-06, 4.45703125) (9.131926536560058e-06, 4.458984375) (9.46174144744873e-06, 4.4609375) (9.749422073364258e-06, 4.462890625) (9.992131233215332e-06, 4.46484375) (1.0188861846923827e-05, 4.466796875) (1.0336732864379882e-05, 4.46875) (1.0433014869689942e-05, 4.470703125) (1.0474763870239257e-05, 4.47265625) (1.0456912994384765e-05, 4.474609375) (1.0377124786376953e-05, 4.4765625) (1.0235383987426758e-05, 4.478515625) (1.0030000686645508e-05, 4.48046875) (9.759435653686522e-06, 4.482421875) (9.425781249999999e-06, 4.484375) (9.032639503479003e-06, 4.486328125) (8.589819908142089e-06, 4.48828125) (8.114023208618164e-06, 4.490234375) (7.616894245147705e-06, 4.4921875) (7.10935115814209e-06, 4.494140625) (6.6007738113403314e-06, 4.49609375) (6.0953898429870605e-06, 4.498046875) (5.600750923156738e-06, 4.5) (5.1205868721008295e-06, 4.501953125) (4.655779838562012e-06, 4.50390625) (4.211741924285889e-06, 4.505859375) (3.79140567779541e-06, 4.5078125) (3.393916130065918e-06, 4.509765625) (3.021015167236328e-06, 4.51171875) (2.6718626022338864e-06, 4.513671875) (2.3353111743927e-06, 4.515625) (2.004001140594482e-06, 4.517578125) (1.6561990976333618e-06, 4.51953125) (1.2479915618896484e-06, 4.521484375) (7.462535500526428e-07, 4.5234375) (1.1343264579772949e-07, 4.525390625) (-6.798656582832336e-07, 4.52734375) (-1.6374186277389525e-06, 4.529296875) (-2.770261764526367e-06, 4.53125) (-4.089786052703857e-06, 4.533203125) (-5.600063323974609e-06, 4.53515625) (-7.3075137138366695e-06, 4.537109375) (-9.210041046142578e-06, 4.5390625) (-1.1281045913696289e-05, 4.541015625) (-1.3512847900390625e-05, 4.54296875) (-1.592473793029785e-05, 4.544921875) (-1.8480083465576172e-05, 4.546875) (-2.109157371520996e-05, 4.548828125) (-2.358750343322754e-05, 4.55078125) (-2.5712636947631835e-05, 4.552734375) (-2.725622177124023e-05, 4.5546875) (-2.8053741455078125e-05, 4.556640625) (-2.793262481689453e-05, 4.55859375) (-2.673708152770996e-05, 4.560546875) (-2.4430490493774413e-05, 4.5625) (-2.1192428588867185e-05, 4.564453125) (-1.7473533630371093e-05, 4.56640625) (-1.3826509475708008e-05, 4.568359375) (-1.0713693618774413e-05, 4.5703125) (-8.66123104095459e-06, 4.572265625) (-8.072495460510254e-06, 4.57421875) (-9.118019104003906e-06, 4.576171875) (-1.1912204742431641e-05, 4.578125) (-1.5252412796020508e-05, 4.580078125) (-1.7482950210571288e-05, 4.58203125) (-1.819272232055664e-05, 4.583984375) (-1.6261240005493163e-05, 4.5859375) (-1.2038796424865722e-05, 4.587890625) (-6.275636672973633e-06, 4.58984375) (4.260475158691406e-06, 4.591796875) (2.0675682067871093e-05, 4.59375) (4.328309631347656e-05, 4.595703125) (7.292312622070313e-05, 4.59765625) (0.00010416087341308593, 4.599609375) (0.00013418148803710938, 4.6015625) (0.00016357809448242186, 4.603515625) (0.00018914974975585937, 4.60546875) (0.00021112414550781248, 4.607421875) (0.00022618202209472656, 4.609375) (0.00022371205139160155, 4.611328125) (0.00019917111206054687, 4.61328125) (0.0001494042510986328, 4.615234375) (7.493213653564453e-05, 4.6171875) (-1.1392583847045899e-05, 4.619140625) (-9.78845977783203e-05, 4.62109375) (-0.0001731641845703125, 4.623046875) (-0.00022462773132324217, 4.625) (-0.00025110192871093747, 4.626953125) (-0.00025545330810546876, 4.62890625) (-0.0002429056701660156, 4.630859375) (-0.00022402333068847655, 4.6328125) (-0.00020368121337890625, 4.634765625) (-0.0001831856231689453, 4.63671875) (-0.00016290731811523438, 4.638671875) (-0.0001400996398925781, 4.640625) (-0.00011489401245117186, 4.642578125) (-8.976756286621094e-05, 4.64453125) (-6.700040435791015e-05, 4.646484375) (-4.937604522705078e-05, 4.6484375) (-3.788948440551758e-05, 4.650390625) (-3.175971412658691e-05, 4.65234375) (-3.004111862182617e-05, 4.654296875) (-3.142132568359375e-05, 4.65625) (-3.457293319702148e-05, 4.658203125) (-3.851299285888672e-05, 4.66015625) (-4.209148406982422e-05, 4.662109375) (-4.4275871276855465e-05, 4.6640625) (-4.463499450683593e-05, 4.666015625) (-4.310946655273437e-05, 4.66796875) (-3.992290878295898e-05, 4.669921875) (-3.5591869354248046e-05, 4.671875) (-3.06508674621582e-05, 4.673828125) (-2.5588058471679687e-05, 4.67578125) (-2.1017295837402344e-05, 4.677734375) (-1.741070556640625e-05, 4.6796875) (-1.49340181350708e-05, 4.681640625) (-1.3623376846313476e-05, 4.68359375) (-1.3339479446411133e-05, 4.685546875) (-1.3800745010375975e-05, 4.6875) (-1.477726364135742e-05, 4.689453125) (-1.6045230865478515e-05, 4.69140625) (-1.7336498260498048e-05, 4.693359375) (-1.8489311218261718e-05, 4.6953125) (-1.9427968978881835e-05, 4.697265625) (-2.008354377746582e-05, 4.69921875) (-2.044444465637207e-05, 4.701171875) (-2.0524627685546875e-05, 4.703125) (-2.032025146484375e-05, 4.705078125) (-1.985719680786133e-05, 4.70703125) (-1.917853546142578e-05, 4.708984375) (-1.829878234863281e-05, 4.7109375) (-1.7238815307617185e-05, 4.712890625) (-1.6033870697021485e-05, 4.71484375) (-1.4725540161132812e-05, 4.716796875) (-1.3380975723266602e-05, 4.71875) (-1.2061918258666992e-05, 4.720703125) (-1.0802394866943358e-05, 4.72265625) (-9.623439788818358e-06, 4.724609375) (-8.53708839416504e-06, 4.7265625) (-7.551828384399414e-06, 4.728515625) (-6.684466361999511e-06, 4.73046875) (-5.9505271911621095e-06, 4.732421875) (-5.3491849899291986e-06, 4.734375) (-4.875294685363769e-06, 4.736328125) (-4.524087905883789e-06, 4.73828125) (-4.290751934051513e-06, 4.740234375) (-4.174587249755859e-06, 4.7421875) (-4.166969776153564e-06, 4.744140625) (-4.245354652404785e-06, 4.74609375) (-4.37628173828125e-06, 4.748046875) (-4.521931648254394e-06, 4.75) (-4.651815414428711e-06, 4.751953125) (-4.744246482849121e-06, 4.75390625) (-4.782056331634521e-06, 4.755859375) (-4.750458717346191e-06, 4.7578125) (-4.636177062988281e-06, 4.759765625) (-4.427672863006592e-06, 4.76171875) (-4.118292331695557e-06, 4.763671875) (-3.706843376159668e-06, 4.765625) (-3.1908631324768066e-06, 4.767578125) (-2.5653865337371823e-06, 4.76953125) (-1.8242487907409666e-06, 4.771484375) (-9.605822563171386e-07, 4.7734375) (2.914699912071228e-08, 4.775390625) (1.1444402933120727e-06, 4.77734375) (2.3823418617248533e-06, 4.779296875) (3.7390952110290524e-06, 4.78125) (5.211433887481689e-06, 4.783203125) (6.795819282531738e-06, 4.78515625) (8.487770080566406e-06, 4.787109375) (1.0282022476196288e-05, 4.7890625) (1.2173185348510742e-05, 4.791015625) (1.4156241416931152e-05, 4.79296875) (1.6226934432983397e-05, 4.794921875) (1.8380727767944335e-05, 4.796875) (2.0610992431640625e-05, 4.798828125) (2.29094181060791e-05, 4.80078125) (2.526639747619629e-05, 4.802734375) (2.7671203613281248e-05, 4.8046875) (3.011260414123535e-05, 4.806640625) (3.257854843139648e-05, 4.80859375) (3.505580520629883e-05, 4.810546875) (3.7530467987060543e-05, 4.8125) (3.998854064941406e-05, 4.814453125) (4.241601181030273e-05, 4.81640625) (4.4798873901367185e-05, 4.818359375) (4.712307739257812e-05, 4.8203125) (4.937435150146484e-05, 4.822265625) (5.153847503662109e-05, 4.82421875) (5.36015510559082e-05, 4.826171875) (5.555002975463867e-05, 4.828125) (5.737076187133789e-05, 4.830078125) (5.905101776123047e-05, 4.83203125) (6.057856750488281e-05, 4.833984375) (6.194191741943359e-05, 4.8359375) (6.313047790527343e-05, 4.837890625) (6.413455200195312e-05, 4.83984375) (6.494536590576171e-05, 4.841796875) (6.55550765991211e-05, 4.84375) (6.595672607421875e-05, 4.845703125) (6.614453125e-05, 4.84765625) (6.611390686035157e-05, 4.849609375) (6.586140441894531e-05, 4.8515625) (6.538468933105469e-05, 4.853515625) (6.468251037597656e-05, 4.85546875) (6.375469207763672e-05, 4.857421875) (6.260245513916015e-05, 4.859375) (6.122840118408203e-05, 4.861328125) (5.963648605346679e-05, 4.86328125) (5.783193969726562e-05, 4.865234375) (5.5821258544921874e-05, 4.8671875) (5.361218643188476e-05, 4.869140625) (5.121377563476562e-05, 4.87109375) (4.863635635375976e-05, 4.873046875) (4.5891395568847655e-05, 4.875) (4.299127960205078e-05, 4.876953125) (3.994925308227539e-05, 4.87890625) (3.677937316894531e-05, 4.880859375) (3.349645233154297e-05, 4.8828125) (3.0115993499755858e-05, 4.884765625) (2.6654043197631835e-05, 4.88671875) (2.312702178955078e-05, 4.888671875) (1.9551607131958006e-05, 4.890625) (1.594464302062988e-05, 4.892578125) (1.232306671142578e-05, 4.89453125) (8.703764915466309e-06, 4.896484375) (5.103464126586914e-06, 4.8984375) (1.5385961532592773e-06, 4.900390625) (-1.9748058319091795e-06, 4.90234375) (-5.421163558959961e-06, 4.904296875) (-8.785405158996581e-06, 4.90625) (-1.2053040504455567e-05, 4.908203125) (-1.5210268020629882e-05, 4.91015625) (-1.8244075775146483e-05, 4.912109375) (-2.1142309188842774e-05, 4.9140625) (-2.389375686645508e-05, 4.916015625) (-2.6488229751586914e-05, 4.91796875) (-2.8916614532470703e-05, 4.919921875) (-3.117097663879395e-05, 4.921875) (-3.324460983276367e-05, 4.923828125) (-3.5132080078125e-05, 4.92578125) (-3.682921600341797e-05, 4.927734375) (-3.833315658569336e-05, 4.9296875) (-3.9642299652099606e-05, 4.931640625) (-4.0756355285644526e-05, 4.93359375) (-4.167630386352539e-05, 4.935546875) (-4.2404407501220704e-05, 4.9375) (-4.2944152832031245e-05, 4.939453125) (-4.330019760131836e-05, 4.94140625) (-4.347837829589844e-05, 4.943359375) (-4.348558807373047e-05, 4.9453125) (-4.332973480224609e-05, 4.947265625) (-4.30196418762207e-05, 4.94921875) (-4.256491470336914e-05, 4.951171875) (-4.197584533691406e-05, 4.953125) (-4.126329040527344e-05, 4.955078125) (-4.04385757446289e-05, 4.95703125) (-3.9513385772705073e-05, 4.958984375) (-3.849967193603515e-05, 4.9609375) (-3.7409564971923825e-05, 4.962890625) (-3.625529861450195e-05, 4.96484375) (-3.504914093017578e-05, 4.966796875) (-3.380332565307617e-05, 4.96875) (-3.2529930114746094e-05, 4.970703125) (-3.12408447265625e-05, 4.97265625) (-2.9947628021240233e-05, 4.974609375) (-2.866142654418945e-05, 4.9765625) (-2.7392906188964844e-05, 4.978515625) (-2.6152130126953124e-05, 4.98046875) (-2.4948486328125e-05, 4.982421875) (-2.379063034057617e-05, 4.984375) (-2.2686447143554685e-05, 4.986328125) (-2.164299964904785e-05, 4.98828125) (-2.066652488708496e-05, 4.990234375) (-1.976239013671875e-05, 4.9921875) (-1.893507194519043e-05, 4.994140625) (-1.8188169479370116e-05, 4.99609375) (-1.7524372100830078e-05, 4.998046875) (-1.6945453643798827e-05, 5.0) (-1.6452272415161132e-05, 5.001953125) (-1.6044776916503906e-05, 5.00390625) (-1.572199821472168e-05, 5.005859375) (-1.5482128143310547e-05, 5.0078125) (-1.532256507873535e-05, 5.009765625) (-1.523997116088867e-05, 5.01171875) (-1.5230394363403319e-05, 5.013671875) (-1.528935432434082e-05, 5.015625) (-1.541189193725586e-05, 5.017578125) (-1.559266471862793e-05, 5.01953125) (-1.58260440826416e-05, 5.021484375) (-1.610614013671875e-05, 5.0234375) (-1.6426904678344724e-05, 5.025390625) (-1.6782155990600587e-05, 5.02734375) (-1.7165575027465818e-05, 5.029296875) (-1.7570777893066405e-05, 5.03125) (-1.7991413116455078e-05, 5.033203125) (-1.842117881774902e-05, 5.03515625) (-1.8853954315185547e-05, 5.037109375) (-1.928382873535156e-05, 5.0390625) (-1.970515441894531e-05, 5.041015625) (-2.0112653732299803e-05, 5.04296875) (-2.0501474380493162e-05, 5.044921875) (-2.0867176055908203e-05, 5.046875) (-2.1205768585205077e-05, 5.048828125) (-2.1513731002807615e-05, 5.05078125) (-2.1787973403930665e-05, 5.052734375) (-2.2025894165039063e-05, 5.0546875) (-2.2225399017333983e-05, 5.056640625) (-2.2384817123413086e-05, 5.05859375) (-2.2502971649169922e-05, 5.060546875) (-2.2579240798950195e-05, 5.0625) (-2.2613468170166014e-05, 5.064453125) (-2.2606033325195312e-05, 5.06640625) (-2.255788230895996e-05, 5.068359375) (-2.2470415115356443e-05, 5.0703125) (-2.234546661376953e-05, 5.072265625) (-2.2185306549072265e-05, 5.07421875) (-2.1992401123046873e-05, 5.076171875) (-2.17694034576416e-05, 5.078125) (-2.1519197463989257e-05, 5.080078125) (-2.1244729995727537e-05, 5.08203125) (-2.094894790649414e-05, 5.083984375) (-2.063478088378906e-05, 5.0859375) (-2.0305023193359373e-05, 5.087890625) (-1.9962339401245115e-05, 5.08984375) (-1.960950469970703e-05, 5.091796875) (-1.924920082092285e-05, 5.09375) (-1.8883956909179687e-05, 5.095703125) (-1.8516191482543946e-05, 5.09765625) (-1.8148067474365233e-05, 5.099609375) (-1.778152847290039e-05, 5.1015625) (-1.7418373107910156e-05, 5.103515625) (-1.7060028076171873e-05, 5.10546875) (-1.670747375488281e-05, 5.107421875) (-1.6361461639404297e-05, 5.109375) (-1.6022417068481446e-05, 5.111328125) (-1.569047737121582e-05, 5.11328125) (-1.536566352844238e-05, 5.115234375) (-1.5047655105590819e-05, 5.1171875) (-1.4735828399658202e-05, 5.119140625) (-1.4429584503173828e-05, 5.12109375) (-1.4128139495849609e-05, 5.123046875) (-1.3830446243286133e-05, 5.125) (-1.3535430908203125e-05, 5.126953125) (-1.3241821289062499e-05, 5.12890625) (-1.2948007583618163e-05, 5.130859375) (-1.2652391433715819e-05, 5.1328125) (-1.23532657623291e-05, 5.134765625) (-1.204871368408203e-05, 5.13671875) (-1.1737153053283692e-05, 5.138671875) (-1.1417217254638671e-05, 5.140625) (-1.1087425231933593e-05, 5.142578125) (-1.0746554374694823e-05, 5.14453125) (-1.0393856048583984e-05, 5.146484375) (-1.0028961181640625e-05, 5.1484375) (-9.652390480041503e-06, 5.150390625) (-9.265392303466796e-06, 5.15234375) (-8.869086265563965e-06, 5.154296875) (-8.464940071105956e-06, 5.15625) (-8.055035591125487e-06, 5.158203125) (-7.641659259796143e-06, 5.16015625) (-7.227385997772217e-06, 5.162109375) (-6.8147206306457515e-06, 5.1640625) (-6.405450344085693e-06, 5.166015625) (-6.00132942199707e-06, 5.16796875) (-5.604790210723877e-06, 5.169921875) (-5.218215942382812e-06, 5.171875) (-4.844490051269531e-06, 5.173828125) (-4.487089157104492e-06, 5.17578125) (-4.149512767791748e-06, 5.177734375) (-3.836219787597656e-06, 5.1796875) (-3.552216529846191e-06, 5.181640625) (-3.3016576766967772e-06, 5.18359375) (-3.0879840850830076e-06, 5.185546875) (-2.9145078659057614e-06, 5.1875) (-2.782876968383789e-06, 5.189453125) (-2.6935677528381347e-06, 5.19140625) (-2.6480531692504883e-06, 5.193359375) (-2.6475348472595215e-06, 5.1953125) (-2.694953918457031e-06, 5.197265625) (-2.796290874481201e-06, 5.19921875) (-2.956564426422119e-06, 5.201171875) (-3.1797072887420652e-06, 5.203125) (-3.4693083763122556e-06, 5.205078125) (-3.826725959777832e-06, 5.20703125) (-4.248993873596191e-06, 5.208984375) (-4.7292466163635255e-06, 5.2109375) (-5.255374908447265e-06, 5.212890625) (-5.810900211334228e-06, 5.21484375) (-6.381783008575439e-06, 5.216796875) (-6.9544734954833985e-06, 5.21875) (-7.51727294921875e-06, 5.220703125) (-8.063271522521972e-06, 5.22265625) (-8.585382461547851e-06, 5.224609375) (-9.077939987182617e-06, 5.2265625) (-9.535848617553711e-06, 5.228515625) (-9.949306488037109e-06, 5.23046875) (-1.0306574821472167e-05, 5.232421875) (-1.0601335525512695e-05, 5.234375) (-1.083065414428711e-05, 5.236328125) (-1.099462604522705e-05, 5.23828125) (-1.110849380493164e-05, 5.240234375) (-1.1197421073913574e-05, 5.2421875) (-1.1294113159179686e-05, 5.244140625) (-1.1447220802307128e-05, 5.24609375) (-1.1699777603149414e-05, 5.248046875) (-1.2081218719482421e-05, 5.25) (-1.2624658584594727e-05, 5.251953125) (-1.3360220909118652e-05, 5.25390625) (-1.431061267852783e-05, 5.255859375) (-1.550607872009277e-05, 5.2578125) (-1.6966712951660155e-05, 5.259765625) (-1.8689458847045896e-05, 5.26171875) (-2.069913864135742e-05, 5.263671875) (-2.302597427368164e-05, 5.265625) (-2.56385498046875e-05, 5.267578125) (-2.8472427368164062e-05, 5.26953125) (-3.1376640319824215e-05, 5.271484375) (-3.408953094482422e-05, 5.2734375) (-3.637666320800781e-05, 5.275390625) (-3.8037155151367186e-05, 5.27734375) (-3.88333511352539e-05, 5.279296875) (-3.860874176025391e-05, 5.28125) (-3.736245346069336e-05, 5.283203125) (-3.517631149291992e-05, 5.28515625) (-3.2410564422607423e-05, 5.287109375) (-2.966463851928711e-05, 5.2890625) (-2.7449562072753904e-05, 5.291015625) (-2.6268878936767575e-05, 5.29296875) (-2.655022621154785e-05, 5.294921875) (-2.8356687545776366e-05, 5.296875) (-3.146577453613281e-05, 5.298828125) (-3.541885757446289e-05, 5.30078125) (-3.918692016601562e-05, 5.302734375) (-4.14354248046875e-05, 5.3046875) (-4.0891689300537105e-05, 5.306640625) (-3.6085147857666016e-05, 5.30859375) (-2.581079864501953e-05, 5.310546875) (-9.604815483093262e-06, 5.3125) (1.2542744636535644e-05, 5.314453125) (3.999655151367187e-05, 5.31640625) (7.112060546875e-05, 5.318359375) (0.00010384767150878905, 5.3203125) (0.00013579161071777343, 5.322265625) (0.0001637196350097656, 5.32421875) (0.00018459915161132812, 5.326171875) (0.00019617852783203123, 5.328125) (0.00019639749145507811, 5.330078125) (0.0001848797607421875, 5.33203125) (0.0001624527587890625, 5.333984375) (0.00012941357421874998, 5.3359375) (8.761433410644531e-05, 5.337890625) (3.868411636352539e-05, 5.33984375) (-1.5686120986938477e-05, 5.341796875) (-7.001022338867187e-05, 5.34375) (-0.00011957768249511718, 5.345703125) (-0.00015939239501953125, 5.34765625) (-0.00018457089233398438, 5.349609375) (-0.0001967386474609375, 5.3515625) (-0.00019822178649902343, 5.353515625) (-0.0001916659240722656, 5.35546875) (-0.00018133843994140624, 5.357421875) (-0.00016743292236328123, 5.359375) (-0.00015031683349609373, 5.361328125) (-0.0001320113525390625, 5.36328125) (-0.00011349853515624999, 5.365234375) (-9.665849304199218e-05, 5.3671875) (-8.289439392089843e-05, 5.369140625) (-7.211856842041015e-05, 5.37109375) (-6.4043701171875e-05, 5.373046875) (-5.824156188964844e-05, 5.375) (-5.40609016418457e-05, 5.376953125) (-5.061231994628906e-05, 5.37890625) (-4.7099830627441405e-05, 5.380859375) (-4.309799575805664e-05, 5.3828125) (-3.8449295043945314e-05, 5.384765625) (-3.326364135742187e-05, 5.38671875) (-2.7828474044799805e-05, 5.388671875) (-2.2266294479370115e-05, 5.390625) (-1.6704675674438476e-05, 5.392578125) (-1.1627694129943847e-05, 5.39453125) (-7.4509515762329095e-06, 5.396484375) (-4.35125207901001e-06, 5.3984375) (-2.407442808151245e-06, 5.400390625) (-1.5041550397872923e-06, 5.40234375) (-1.4474645853042602e-06, 5.404296875) (-2.1676645278930664e-06, 5.40625) (-3.598905801773071e-06, 5.408203125) (-5.488059997558593e-06, 5.41015625) (-7.5784091949462885e-06, 5.412109375) (-9.700006484985351e-06, 5.4140625) (-1.171323776245117e-05, 5.416015625) (-1.3588642120361327e-05, 5.41796875) (-1.533399486541748e-05, 5.419921875) (-1.6880193710327148e-05, 5.421875) (-1.814139938354492e-05, 5.423828125) (-1.908476638793945e-05, 5.42578125) (-1.9697097778320313e-05, 5.427734375) (-1.998565673828125e-05, 5.4296875) (-1.998422813415527e-05, 5.431640625) (-1.9697521209716796e-05, 5.43359375) (-1.912528038024902e-05, 5.435546875) (-1.8306840896606443e-05, 5.4375) (-1.729731559753418e-05, 5.439453125) (-1.6170989990234375e-05, 5.44140625) (-1.5016464233398437e-05, 5.443359375) (-1.3886795043945311e-05, 5.4453125) (-1.2806248664855956e-05, 5.447265625) (-1.1796188354492187e-05, 5.44921875) (-1.0868524551391601e-05, 5.451171875) (-1.003779411315918e-05, 5.453125) (-9.32632064819336e-06, 5.455078125) (-8.737928390502929e-06, 5.45703125) (-8.259696960449218e-06, 5.458984375) (-7.881922721862792e-06, 5.4609375) (-7.592705726623535e-06, 5.462890625) (-7.381839752197265e-06, 5.46484375) (-7.2432765960693356e-06, 5.466796875) (-7.156117916107178e-06, 5.46875) (-7.0870060920715325e-06, 5.470703125) (-6.99906063079834e-06, 5.47265625) (-6.852309703826904e-06, 5.474609375) (-6.61696720123291e-06, 5.4765625) (-6.274593353271484e-06, 5.478515625) (-5.808064460754394e-06, 5.48046875) (-5.20256233215332e-06, 5.482421875) (-4.44626235961914e-06, 5.484375) (-3.5283551216125485e-06, 5.486328125) (-2.444787263870239e-06, 5.48828125) (-1.1981103420257568e-06, 5.490234375) (2.1246027946472168e-07, 5.4921875) (1.7898528575897217e-06, 5.494140625) (3.5366463661193846e-06, 5.49609375) (5.456147193908691e-06, 5.498046875) (7.547053337097168e-06, 5.5) (9.80323886871338e-06, 5.501953125) (1.2217992782592773e-05, 5.50390625) (1.4783772468566894e-05, 5.505859375) (1.7492229461669922e-05, 5.5078125) (2.033498382568359e-05, 5.509765625) (2.3302289962768553e-05, 5.51171875) (2.6382970809936522e-05, 5.513671875) (2.9566314697265623e-05, 5.515625) (3.284182739257812e-05, 5.517578125) (3.6198776245117183e-05, 5.51953125) (3.9626327514648434e-05, 5.521484375) (4.311183166503906e-05, 5.5234375) (4.664080047607422e-05, 5.525390625) (5.019797897338867e-05, 5.52734375) (5.3767253875732417e-05, 5.529296875) (5.733192443847656e-05, 5.53125) (6.087493515014648e-05, 5.533203125) (6.437858581542968e-05, 5.53515625) (6.782467651367187e-05, 5.537109375) (7.119537353515624e-05, 5.5390625) (7.44732666015625e-05, 5.541015625) (7.764125823974609e-05, 5.54296875) (8.068270111083985e-05, 5.544921875) (8.358133697509766e-05, 5.546875) (8.632133483886718e-05, 5.548828125) (8.888760375976562e-05, 5.55078125) (9.126586914062499e-05, 5.552734375) (9.344252014160156e-05, 5.5546875) (9.540475463867187e-05, 5.556640625) (9.71408233642578e-05, 5.55859375) (9.864009857177735e-05, 5.560546875) (9.989320373535156e-05, 5.5625) (0.00010089213562011718, 5.564453125) (0.00010163024902343749, 5.56640625) (0.00010210223388671874, 5.568359375) (0.00010230445861816406, 5.5703125) (0.00010223493194580077, 5.572265625) (0.00010189318847656249, 5.57421875) (0.00010128035736083983, 5.576171875) (0.00010039891052246093, 5.578125) (9.925259399414062e-05, 5.580078125) (9.784667205810547e-05, 5.58203125) (9.618780517578125e-05, 5.583984375) (9.428401184082031e-05, 5.5859375) (9.214457702636719e-05, 5.587890625) (8.977996826171875e-05, 5.58984375) (8.720169830322265e-05, 5.591796875) (8.442249298095703e-05, 5.59375) (8.14561538696289e-05, 5.595703125) (7.831736755371094e-05, 5.59765625) (7.502164459228515e-05, 5.599609375) (7.158507537841797e-05, 5.6015625) (6.802416229248046e-05, 5.603515625) (6.435588073730469e-05, 5.60546875) (6.05975227355957e-05, 5.607421875) (5.6766582489013666e-05, 5.609375) (5.2880668640136716e-05, 5.611328125) (4.8957355499267576e-05, 5.61328125) (4.50140380859375e-05, 5.615234375) (4.10679931640625e-05, 5.6171875) (3.7136215209960934e-05, 5.619140625) (3.323529815673828e-05, 5.62109375) (2.9381299972534177e-05, 5.623046875) (2.5589611053466796e-05, 5.625) (2.1874832153320313e-05, 5.626953125) (1.8250743865966796e-05, 5.62890625) (1.4730219841003418e-05, 5.630859375) (1.1325096130371093e-05, 5.6328125) (8.046132087707519e-06, 5.634765625) (4.902963638305664e-06, 5.63671875) (1.904076099395752e-06, 5.638671875) (-9.43176507949829e-07, 5.640625) (-3.6325776576995847e-06, 5.642578125) (-6.159083843231201e-06, 5.64453125) (-8.518801689147949e-06, 5.646484375) (-1.0708976745605468e-05, 5.6484375) (-1.2727968215942383e-05, 5.650390625) (-1.4575196266174316e-05, 5.65234375) (-1.625111389160156e-05, 5.654296875) (-1.7757205963134764e-05, 5.65625) (-1.9095935821533204e-05, 5.658203125) (-2.0270685195922852e-05, 5.66015625) (-2.128572654724121e-05, 5.662109375) (-2.2146110534667968e-05, 5.6640625) (-2.2857635498046874e-05, 5.666015625) (-2.3426782608032225e-05, 5.66796875) (-2.3860660552978515e-05, 5.669921875) (-2.4166908264160156e-05, 5.671875) (-2.4353635787963867e-05, 5.673828125) (-2.442930793762207e-05, 5.67578125) (-2.4402692794799804e-05, 5.677734375) (-2.4282806396484373e-05, 5.6796875) (-2.4078805923461913e-05, 5.681640625) (-2.3799911499023436e-05, 5.68359375) (-2.3455318450927732e-05, 5.685546875) (-2.305411911010742e-05, 5.6875) (-2.2605226516723633e-05, 5.689453125) (-2.2117305755615232e-05, 5.69140625) (-2.159870910644531e-05, 5.693359375) (-2.1057395935058592e-05, 5.6953125) (-2.0500885009765624e-05, 5.697265625) (-1.993619728088379e-05, 5.69921875) (-1.9369834899902343e-05, 5.701171875) (-1.880775260925293e-05, 5.703125) (-1.825535202026367e-05, 5.705078125) (-1.7717456817626952e-05, 5.70703125) (-1.7198320388793946e-05, 5.708984375) (-1.6701641082763672e-05, 5.7109375) (-1.6230554580688476e-05, 5.712890625) (-1.5787693977355955e-05, 5.71484375) (-1.5375164031982422e-05, 5.716796875) (-1.4994570732116699e-05, 5.71875) (-1.4647018432617187e-05, 5.720703125) (-1.4333132743835448e-05, 5.72265625) (-1.4053065299987793e-05, 5.724609375) (-1.3806545257568359e-05, 5.7265625) (-1.3592880249023436e-05, 5.728515625) (-1.3410966873168945e-05, 5.73046875) (-1.325934600830078e-05, 5.732421875) (-1.313624095916748e-05, 5.734375) (-1.3039589881896972e-05, 5.736328125) (-1.2967104911804199e-05, 5.73828125) (-1.2916306495666503e-05, 5.740234375) (-1.2884543418884277e-05, 5.7421875) (-1.2869068145751952e-05, 5.744140625) (-1.2867087364196776e-05, 5.74609375) (-1.2875775337219237e-05, 5.748046875) (-1.2892333984375e-05, 5.75) (-1.2914031982421874e-05, 5.751953125) (-1.2938228607177734e-05, 5.75390625) (-1.2962442398071288e-05, 5.755859375) (-1.2984394073486328e-05, 5.7578125) (-1.3001983642578124e-05, 5.759765625) (-1.3013339042663574e-05, 5.76171875) (-1.3016853332519531e-05, 5.763671875) (-1.301115322113037e-05, 5.765625) (-1.2995134353637695e-05, 5.767578125) (-1.2967957496643065e-05, 5.76953125) (-1.2929006576538086e-05, 5.771484375) (-1.2877927780151366e-05, 5.7734375) (-1.2814602851867676e-05, 5.775390625) (-1.2739096641540527e-05, 5.77734375) (-1.2651656150817871e-05, 5.779296875) (-1.2552729606628417e-05, 5.78125) (-1.2442908287048338e-05, 5.783203125) (-1.2322980880737304e-05, 5.78515625) (-1.2193901062011719e-05, 5.787109375) (-1.205669593811035e-05, 5.7890625) (-1.191252040863037e-05, 5.791015625) (-1.1762667655944823e-05, 5.79296875) (-1.160849380493164e-05, 5.794921875) (-1.1451428413391113e-05, 5.796875) (-1.129298210144043e-05, 5.798828125) (-1.1134655952453613e-05, 5.80078125) (-1.0977972984313965e-05, 5.802734375) (-1.0824503898620606e-05, 5.8046875) (-1.0675687789916992e-05, 5.806640625) (-1.0532862663269042e-05, 5.80859375) (-1.0397296905517577e-05, 5.810546875) (-1.027009391784668e-05, 5.8125) (-1.0152145385742188e-05, 5.814453125) (-1.0044139862060546e-05, 5.81640625) (-9.946430206298827e-06, 5.818359375) (-9.859073638916015e-06, 5.8203125) (-9.782014846801757e-06, 5.822265625) (-9.714958190917968e-06, 5.82421875) (-9.657337188720702e-06, 5.826171875) (-9.608427047729492e-06, 5.828125) (-9.567238807678222e-06, 5.830078125) (-9.532612800598144e-06, 5.83203125) (-9.503280639648437e-06, 5.833984375) (-9.477701187133788e-06, 5.8359375) (-9.454052925109863e-06, 5.837890625) (-9.430418968200683e-06, 5.83984375) (-9.404727935791015e-06, 5.841796875) (-9.374759674072265e-06, 5.84375) (-9.338259696960448e-06, 5.845703125) (-9.292754173278808e-06, 5.84765625) (-9.235666275024414e-06, 5.849609375) (-9.16459846496582e-06, 5.8515625) (-9.077199935913086e-06, 5.853515625) (-8.97114086151123e-06, 5.85546875) (-8.844256401062012e-06, 5.857421875) (-8.694437026977539e-06, 5.859375) (-8.519588470458985e-06, 5.861328125) (-8.317827224731445e-06, 5.86328125) (-8.087379455566405e-06, 5.865234375) (-7.826519012451172e-06, 5.8671875) (-7.5338783264160155e-06, 5.869140625) (-7.2083597183227535e-06, 5.87109375) (-6.848943710327148e-06, 5.873046875) (-6.454923629760742e-06, 5.875) (-6.026301860809326e-06, 5.876953125) (-5.563785076141358e-06, 5.87890625) (-5.0690011978149415e-06, 5.880859375) (-4.544412612915039e-06, 5.8828125) (-3.992451906204223e-06, 5.884765625) (-3.415802001953125e-06, 5.88671875) (-2.817798614501953e-06, 5.888671875) (-2.202054738998413e-06, 5.890625) (-1.5721750259399413e-06, 5.892578125) (-9.315537810325622e-07, 5.89453125) (-2.827779650688171e-07, 5.896484375) (3.7197464704513546e-07, 5.8984375) (1.0294526815414428e-06, 5.900390625) (1.685894250869751e-06, 5.90234375) (2.3370327949523924e-06, 5.904296875) (2.977734565734863e-06, 5.90625) (3.603318929672241e-06, 5.908203125) (4.209197044372558e-06, 5.91015625) (4.790325164794922e-06, 5.912109375) (5.342295169830322e-06, 5.9140625) (5.861659526824951e-06, 5.916015625) (6.3451938629150385e-06, 5.91796875) (6.791573047637939e-06, 5.919921875) (7.201399803161621e-06, 5.921875) (7.573562145233154e-06, 5.923828125) (7.906079292297363e-06, 5.92578125) (8.194488525390625e-06, 5.927734375) (8.43026351928711e-06, 5.9296875) (8.607378005981445e-06, 5.931640625) (8.722850799560546e-06, 5.93359375) (8.774687767028809e-06, 5.935546875) (8.763952255249023e-06, 5.9375) (8.69389820098877e-06, 5.939453125) (8.568439483642578e-06, 5.94140625) (8.396770477294921e-06, 5.943359375) (8.193191528320313e-06, 5.9453125) (7.96869945526123e-06, 5.947265625) (7.733407020568847e-06, 5.94921875) (7.494331836700439e-06, 5.951171875) (7.251572132110596e-06, 5.953125) (7.008523941040039e-06, 5.955078125) (6.7710862159729e-06, 5.95703125) (6.54765796661377e-06, 5.958984375) (6.354716300964355e-06, 5.9609375) (6.206740856170654e-06, 5.962890625) (6.109509468078613e-06, 5.96484375) (6.063315868377686e-06, 5.966796875) (6.061494827270508e-06, 5.96875) (6.091291904449463e-06, 5.970703125) (6.139783382415771e-06, 5.97265625) (6.188791751861572e-06, 5.974609375) (6.21066665649414e-06, 5.9765625) (6.175260543823242e-06, 5.978515625) (6.0494298934936525e-06, 5.98046875) (5.802534580230713e-06, 5.982421875) (5.412289619445801e-06, 5.984375) (4.8580374717712404e-06, 5.986328125) (4.126259326934814e-06, 5.98828125) (3.1884894371032713e-06, 5.990234375) (1.9856587648391723e-06, 5.9921875) (4.953434467315673e-07, 5.994140625) (-1.2384083271026611e-06, 5.99609375) (-3.1070623397827145e-06, 5.998046875) (-4.925153732299804e-06, 6.0) (-6.508484840393066e-06, 6.001953125) (-7.747941970825194e-06, 6.00390625) (-8.519546508789062e-06, 6.005859375) (-8.625414848327636e-06, 6.0078125) (-7.958985328674317e-06, 6.009765625) (-6.574167728424072e-06, 6.01171875) (-4.69977855682373e-06, 6.013671875) (-2.8126749992370606e-06, 6.015625) (-1.4010540246963501e-06, 6.017578125) (-7.08604872226715e-07, 6.01953125) (-9.12561297416687e-07, 6.021484375) (-2.268648624420166e-06, 6.0234375) (-4.862263679504395e-06, 6.025390625) (-8.519344329833984e-06, 6.02734375) (-1.2780166625976562e-05, 6.029296875) (-1.6664907455444336e-05, 6.03125) (-1.8991447448730467e-05, 6.033203125) (-1.8980195999145507e-05, 6.03515625) (-1.6021699905395506e-05, 6.037109375) (-9.22795295715332e-06, 6.0390625) (2.2004697322845457e-06, 6.041015625) (1.883988380432129e-05, 6.04296875) (4.112115478515625e-05, 6.044921875) (6.763447570800781e-05, 6.046875) (9.534058380126953e-05, 6.048828125) (0.0001222354278564453, 6.05078125) (0.00014656838989257813, 6.052734375) (0.0001690673370361328, 6.0546875) (0.00019361669921874998, 6.056640625) (0.00022034745788574218, 6.05859375) (0.0002466197814941406, 6.060546875) (0.000265583740234375, 6.0625) (0.000264850341796875, 6.064453125) (0.0002376521759033203, 6.06640625) (0.0001827015380859375, 6.068359375) (0.00010491896057128906, 6.0703125) (1.860409927368164e-05, 6.072265625) (-6.326094818115234e-05, 6.07421875) (-0.00012980973815917969, 6.076171875) (-0.00017367724609375, 6.078125) (-0.00019605751037597656, 6.080078125) (-0.00020106443786621094, 6.08203125) (-0.00019506303405761717, 6.083984375) (-0.0001841476135253906, 6.0859375) (-0.000170242919921875, 6.087890625) (-0.00015353590393066404, 6.08984375) (-0.00013260159301757812, 6.091796875) (-0.00010686235809326172, 6.09375) (-7.840886688232421e-05, 6.095703125) (-4.996051406860351e-05, 6.09765625) (-2.463792610168457e-05, 6.099609375) (-4.858866214752197e-06, 6.1015625) (8.793997764587401e-06, 6.103515625) (1.6715324401855467e-05, 6.10546875) (1.9667778015136717e-05, 6.107421875) (1.8714078903198242e-05, 6.109375) (1.5090235710144041e-05, 6.111328125) (9.814761161804199e-06, 6.11328125) (4.018455505371093e-06, 6.115234375) (-9.550174474716187e-07, 6.1171875) (-4.395216464996338e-06, 6.119140625) (-6.101969718933105e-06, 6.12109375) (-6.036344528198242e-06, 6.123046875) (-4.547083854675293e-06, 6.125) (-2.1420142650604248e-06, 6.126953125) (8.497758507728576e-07, 6.12890625) (3.936013698577881e-06, 6.130859375) (6.4469285011291505e-06, 6.1328125) (8.087888717651366e-06, 6.134765625) (8.786441802978515e-06, 6.13671875) (8.55363655090332e-06, 6.138671875) (7.633493423461914e-06, 6.140625) (6.238658428192138e-06, 6.142578125) (4.469828128814697e-06, 6.14453125) (2.536743640899658e-06, 6.146484375) (7.020272016525269e-07, 6.1484375) (-8.84357213973999e-07, 6.150390625) (-2.1106081008911133e-06, 6.15234375) (-2.9316234588623047e-06, 6.154296875) (-3.409201145172119e-06, 6.15625) (-3.5701906681060788e-06, 6.158203125) (-3.4199583530426023e-06, 6.16015625) (-3.0035157203674314e-06, 6.162109375) (-2.3663117885589597e-06, 6.1640625) (-1.5687215328216553e-06, 6.166015625) (-6.93976640701294e-07, 6.16796875) (2.0482459664344786e-07, 6.169921875) (1.0994579792022704e-06, 6.171875) (1.9680562019348145e-06, 6.173828125) (2.804941892623901e-06, 6.17578125) (3.6008567810058593e-06, 6.177734375) (4.339717388153076e-06, 6.1796875) (5.014820098876953e-06, 6.181640625) (5.621229648590088e-06, 6.18359375) (6.157899379730224e-06, 6.185546875) (6.63292646408081e-06, 6.1875) (7.04784631729126e-06, 6.189453125) (7.401937961578369e-06, 6.19140625) (7.704028129577636e-06, 6.193359375) (7.965973854064941e-06, 6.1953125) (8.211957931518554e-06, 6.197265625) (8.479459762573242e-06, 6.19921875) (8.797292709350585e-06, 6.201171875) (9.186475753784179e-06, 6.203125) (9.664564132690429e-06, 6.205078125) (1.0241317749023437e-05, 6.20703125) (1.09263334274292e-05, 6.208984375) (1.1730789184570312e-05, 6.2109375) (1.2658807754516601e-05, 6.212890625) (1.3709480285644531e-05, 6.21484375) (1.4882521629333495e-05, 6.216796875) (1.617671585083008e-05, 6.21875) (1.759335708618164e-05, 6.220703125) (1.913650131225586e-05, 6.22265625) (2.080648422241211e-05, 6.224609375) (2.2600772857666015e-05, 6.2265625) (2.4514394760131836e-05, 6.228515625) (2.6538990020751952e-05, 6.23046875) (2.8667022705078125e-05, 6.232421875) (3.089202499389648e-05, 6.234375) (3.320595169067383e-05, 6.236328125) (3.560011291503906e-05, 6.23828125) (3.806562042236328e-05, 6.240234375) (4.059281539916992e-05, 6.2421875) (4.3173194885253905e-05, 6.244140625) (4.57994384765625e-05, 6.24609375) (4.846239852905273e-05, 6.248046875) (5.115130615234375e-05, 6.25) (5.385452651977539e-05, 6.251953125) (5.655912780761718e-05, 6.25390625) (5.925200653076172e-05, 6.255859375) (6.192013549804687e-05, 6.2578125) (6.454974365234375e-05, 6.259765625) (6.712644958496093e-05, 6.26171875) (6.963619995117187e-05, 6.263671875) (7.206521606445312e-05, 6.265625) (7.440011596679687e-05, 6.267578125) (7.662808227539063e-05, 6.26953125) (7.873646545410156e-05, 6.271484375) (8.071286010742187e-05, 6.2734375) (8.254545593261718e-05, 6.275390625) (8.422308349609374e-05, 6.27734375) (8.573523712158203e-05, 6.279296875) (8.707219696044922e-05, 6.28125) (8.822496032714844e-05, 6.283203125) (8.918535614013672e-05, 6.28515625) (8.994613647460937e-05, 6.287109375) (9.050114440917969e-05, 6.2890625) (9.084516143798828e-05, 6.291015625) (9.097404479980468e-05, 6.29296875) (9.088468170166015e-05, 6.294921875) (9.057491302490234e-05, 6.296875) (9.00438003540039e-05, 6.298828125) (8.929161071777343e-05, 6.30078125) (8.831960296630859e-05, 6.302734375) (8.713018798828125e-05, 6.3046875) (8.572674560546875e-05, 6.306640625) (8.411363220214843e-05, 6.30859375) (8.229629516601562e-05, 6.310546875) (8.028138732910156e-05, 6.3125) (7.807644653320312e-05, 6.314453125) (7.56899642944336e-05, 6.31640625) (7.313134765625e-05, 6.318359375) (7.041082763671875e-05, 6.3203125) (6.753948974609374e-05, 6.322265625) (6.452922058105469e-05, 6.32421875) (6.139241790771485e-05, 6.326171875) (5.814194107055664e-05, 6.328125) (5.479109191894531e-05, 6.330078125) (5.135345458984375e-05, 6.33203125) (4.78428840637207e-05, 6.333984375) (4.427338027954101e-05, 6.3359375) (4.0658935546875e-05, 6.337890625) (3.701345825195312e-05, 6.33984375) (3.3350730895996094e-05, 6.341796875) (2.9684318542480468e-05, 6.34375) (2.60274600982666e-05, 6.345703125) (2.239304161071777e-05, 6.34765625) (1.8793483734130857e-05, 6.349609375) 