(-0.00023335101318359375, 0.0) (-0.0002736871643066406, 0.001953125) (-0.0003095395812988281, 0.00390625) (-0.0003325052185058594, 0.005859375) (-0.00034165972900390625, 0.0078125) (-0.00034316058349609374, 0.009765625) (-0.00034246844482421876, 0.01171875) (-0.0003466698608398437, 0.013671875) (-0.00035713726806640625, 0.015625) (-0.0003687175903320312, 0.017578125) (-0.00037856088256835933, 0.01953125) (-0.0003845348510742187, 0.021484375) (-0.0003865428771972656, 0.0234375) (-0.0003878283996582031, 0.025390625) (-0.0003895662231445312, 0.02734375) (-0.00039115209960937497, 0.029296875) (-0.0003923995361328125, 0.03125) (-0.000392781005859375, 0.033203125) (-0.0003921677856445312, 0.03515625) (-0.0003911361999511719, 0.037109375) (-0.0003897738037109375, 0.0390625) (-0.00038773059082031246, 0.041015625) (-0.0003850865783691406, 0.04296875) (-0.0003822095947265625, 0.044921875) (-0.00037935552978515623, 0.046875) (-0.0003768081665039062, 0.048828125) (-0.0003746729736328125, 0.05078125) (-0.00037281661987304687, 0.052734375) (-0.00037125927734375, 0.0546875) (-0.0003701192016601562, 0.056640625) (-0.0003694110412597656, 0.05859375) (-0.00036909783935546874, 0.060546875) (-0.0003690971984863281, 0.0625) (-0.0003692864990234375, 0.064453125) (-0.00036959310913085933, 0.06640625) (-0.00036998956298828125, 0.068359375) (-0.0003704443359375, 0.0703125) (-0.0003709266357421875, 0.072265625) (-0.00037138720703125, 0.07421875) (-0.0003717712707519531, 0.076171875) (-0.0003720357971191406, 0.078125) (-0.00037212445068359373, 0.080078125) (-0.00037199432373046876, 0.08203125) (-0.0003716036682128906, 0.083984375) (-0.0003708883972167969, 0.0859375) (-0.0003698084716796875, 0.087890625) (-0.00036833517456054686, 0.08984375) (-0.00036644464111328123, 0.091796875) (-0.00036414459228515625, 0.09375) (-0.0003614449462890625, 0.095703125) (-0.00035835455322265623, 0.09765625) (-0.00035489404296875, 0.099609375) (-0.0003510702819824219, 0.1015625) (-0.0003468859558105469, 0.103515625) (-0.00034235983276367186, 0.10546875) (-0.00033750286865234374, 0.107421875) (-0.0003323309326171875, 0.109375) (-0.0003268882141113281, 0.111328125) (-0.0003212205505371094, 0.11328125) (-0.00031540203857421874, 0.115234375) (-0.00030953942871093747, 0.1171875) (-0.0003037180480957031, 0.119140625) (-0.00029800933837890623, 0.12109375) (-0.0002924635009765625, 0.123046875) (-0.00028711572265625, 0.125) (-0.0002820300598144531, 0.126953125) (-0.0002772750854492187, 0.12890625) (-0.000272911376953125, 0.130859375) (-0.00026899359130859375, 0.1328125) (-0.00026551708984375, 0.134765625) (-0.0002625220336914062, 0.13671875) (-0.0002601435546875, 0.138671875) (-0.0002584102783203125, 0.140625) (-0.000257235595703125, 0.142578125) (-0.0002563800048828125, 0.14453125) (-0.00025535624694824217, 0.146484375) (-0.00025374589538574216, 0.1484375) (-0.00025135113525390625, 0.150390625) (-0.00024781161499023437, 0.15234375) (-0.0002427030487060547, 0.154296875) (-0.00023594996643066404, 0.15625) (-0.00022762245178222656, 0.158203125) (-0.00021837017822265624, 0.16015625) (-0.00020948048400878906, 0.162109375) (-0.00020176263427734375, 0.1640625) (-0.00019580612182617187, 0.166015625) (-0.00019261244201660156, 0.16796875) (-0.00019292294311523437, 0.169921875) (-0.00019681224060058593, 0.171875) (-0.00020315841674804687, 0.173828125) (-0.0002087659454345703, 0.17578125) (-0.00020982669067382811, 0.177734375) (-0.00020439900207519531, 0.1796875) (-0.00019381243896484374, 0.181640625) (-0.00018025866699218748, 0.18359375) (-0.00016455256652832032, 0.185546875) (-0.00014543118286132811, 0.1875) (-0.00011574977874755859, 0.189453125) (-6.850331115722656e-05, 0.19140625) (-9.505338668823242e-07, 0.193359375) (8.858870697021485e-05, 0.1953125) (0.00019319851684570312, 0.197265625) (0.00029919113159179684, 0.19921875) (0.00039200115966796874, 0.201171875) (0.0004523651733398437, 0.203125) (0.0004642459106445312, 0.205078125) (0.000423557373046875, 0.20703125) (0.00033342791748046873, 0.208984375) (0.00020505711364746093, 0.2109375) (5.737178421020508e-05, 0.212890625) (-9.436003112792969e-05, 0.21484375) (-0.00023618783569335936, 0.216796875) (-0.00035227691650390624, 0.21875) (-0.0004338153686523437, 0.220703125) (-0.0004773639221191406, 0.22265625) (-0.000484982666015625, 0.224609375) (-0.0004692086791992187, 0.2265625) (-0.00044368572998046874, 0.228515625) (-0.0004156419982910156, 0.23046875) (-0.00038863134765625, 0.232421875) (-0.0003609599609375, 0.234375) (-0.00032872836303710935, 0.236328125) (-0.00029325347900390625, 0.23828125) (-0.0002580973815917969, 0.240234375) (-0.0002265264892578125, 0.2421875) (-0.00020226773071289062, 0.244140625) (-0.00018671177673339843, 0.24609375) (-0.00017887957763671874, 0.248046875) (-0.00017725164794921874, 0.25) (-0.0001796676330566406, 0.251953125) (-0.0001835452423095703, 0.25390625) (-0.00018681906127929686, 0.255859375) (-0.00018840692138671875, 0.2578125) (-0.00018755868530273437, 0.259765625) (-0.00018358432006835936, 0.26171875) (-0.0001763688507080078, 0.263671875) (-0.00016619982910156248, 0.265625) (-0.0001537071533203125, 0.267578125) (-0.00014018421936035156, 0.26953125) (-0.0001269795684814453, 0.271484375) (-0.00011475904846191405, 0.2734375) (-0.0001039049835205078, 0.275390625) (-9.473888397216797e-05, 0.27734375) (-8.728254699707031e-05, 0.279296875) (-8.150959777832031e-05, 0.28125) (-7.732635498046875e-05, 0.283203125) (-7.427243041992187e-05, 0.28515625) (-7.179658508300781e-05, 0.287109375) (-6.959598541259766e-05, 0.2890625) (-6.749072265624999e-05, 0.291015625) (-6.539533233642577e-05, 0.29296875) (-6.334496307373046e-05, 0.294921875) (-6.130738067626953e-05, 0.296875) (-5.920664596557617e-05, 0.298828125) (-5.7064460754394525e-05, 0.30078125) (-5.4938209533691404e-05, 0.302734375) (-5.2862247467041016e-05, 0.3046875) (-5.0866783142089844e-05, 0.306640625) (-4.894205093383789e-05, 0.30859375) (-4.704977035522461e-05, 0.310546875) (-4.518019866943359e-05, 0.3125) (-4.334510421752929e-05, 0.314453125) (-4.1553924560546876e-05, 0.31640625) (-3.981219482421875e-05, 0.318359375) (-3.812384796142578e-05, 0.3203125) (-3.648502731323242e-05, 0.322265625) (-3.489214706420898e-05, 0.32421875) (-3.334785461425781e-05, 0.326171875) (-3.1855525970458985e-05, 0.328125) (-3.042201232910156e-05, 0.330078125) (-2.9051498413085936e-05, 0.33203125) (-2.7741949081420897e-05, 0.333984375) (-2.6486255645751953e-05, 0.3359375) (-2.527681541442871e-05, 0.337890625) (-2.4107608795166014e-05, 0.33984375) (-2.2970979690551755e-05, 0.341796875) (-2.186236763000488e-05, 0.34375) (-2.0775341033935545e-05, 0.345703125) (-1.9708427429199217e-05, 0.34765625) (-1.8670646667480468e-05, 0.349609375) (-1.7664169311523435e-05, 0.3515625) (-1.6686187744140624e-05, 0.353515625) (-1.5731807708740233e-05, 0.35546875) (-1.4789463996887206e-05, 0.357421875) (-1.3846601486206055e-05, 0.359375) (-1.2891639709472656e-05, 0.361328125) (-1.190866470336914e-05, 0.36328125) (-1.0878281593322753e-05, 0.365234375) (-9.784296035766601e-06, 0.3671875) (-8.61026382446289e-06, 0.369140625) (-7.340956687927246e-06, 0.37109375) (-5.964485168457031e-06, 0.373046875) (-4.464552402496338e-06, 0.375) (-2.8231606483459472e-06, 0.376953125) (-1.0194613933563232e-06, 0.37890625) (9.72450017929077e-07, 0.380859375) (3.1731257438659667e-06, 0.3828125) (5.597383499145508e-06, 0.384765625) (8.258296966552734e-06, 0.38671875) (1.1163581848144531e-05, 0.388671875) (1.4317358016967772e-05, 0.390625) (1.7724317550659177e-05, 0.392578125) (2.138357162475586e-05, 0.39453125) (2.5290098190307617e-05, 0.396484375) (2.9442001342773437e-05, 0.3984375) (3.38338394165039e-05, 0.400390625) (3.8456451416015624e-05, 0.40234375) (4.3301261901855466e-05, 0.404296875) (4.835457611083984e-05, 0.40625) (5.35974006652832e-05, 0.408203125) (5.900910949707031e-05, 0.41015625) (6.456177520751952e-05, 0.412109375) (7.02222671508789e-05, 0.4140625) (7.596117401123046e-05, 0.416015625) (8.174752807617188e-05, 0.41796875) (8.755271148681641e-05, 0.419921875) (9.335330963134765e-05, 0.421875) (9.91212921142578e-05, 0.423828125) (0.0001048315200805664, 0.42578125) (0.0001104628677368164, 0.427734375) (0.00011599002075195311, 0.4296875) (0.0001213953399658203, 0.431640625) (0.00012667282104492187, 0.43359375) (0.00013181515502929688, 0.435546875) (0.00013681976318359373, 0.4375) (0.0001416939239501953, 0.439453125) (0.00014644012451171874, 0.44140625) (0.00015107229614257813, 0.443359375) (0.00015561962890624998, 0.4453125) (0.0001600989990234375, 0.447265625) (0.00016452593994140623, 0.44921875) (0.00016891487121582031, 0.451171875) (0.00017326950073242187, 0.453125) (0.00017760203552246093, 0.455078125) (0.00018192523193359374, 0.45703125) (0.00018623568725585935, 0.458984375) (0.0001905261993408203, 0.4609375) (0.0001947763214111328, 0.462890625) (0.00019893949890136719, 0.46484375) (0.00020297010803222655, 0.466796875) (0.00020681597900390624, 0.46875) (0.00021040470886230468, 0.470703125) (0.00021367663574218748, 0.47265625) (0.00021656010437011718, 0.474609375) (0.0002189603271484375, 0.4765625) (0.00022080563354492187, 0.478515625) (0.0002220318908691406, 0.48046875) (0.00022257037353515623, 0.482421875) (0.00022236753845214844, 0.484375) (0.00022135964965820312, 0.486328125) (0.00021947331237792968, 0.48828125) (0.0002166710968017578, 0.490234375) (0.000212938720703125, 0.4921875) (0.00020828176879882811, 0.494140625) (0.000202749755859375, 0.49609375) (0.000196399658203125, 0.498046875) (0.00018930064392089842, 0.5) (0.00018155728149414063, 0.501953125) (0.00017326776123046875, 0.50390625) (0.0001645426330566406, 0.505859375) (0.00015552215576171874, 0.5078125) (0.00014632757568359376, 0.509765625) (0.00013707369995117187, 0.51171875) (0.00012789547729492187, 0.513671875) (0.00011892242431640624, 0.515625) (0.00011030067443847655, 0.517578125) (0.00010220360565185546, 0.51953125) (9.476416015625e-05, 0.521484375) (8.808084106445312e-05, 0.5234375) (8.223533630371093e-05, 0.525390625) (7.726393127441407e-05, 0.52734375) (7.31907958984375e-05, 0.529296875) (7.002965545654297e-05, 0.53125) (6.775543975830078e-05, 0.533203125) (6.633589172363281e-05, 0.53515625) (6.573104858398437e-05, 0.537109375) (6.587704467773438e-05, 0.5390625) (6.6718505859375e-05, 0.541015625) (6.820446014404297e-05, 0.54296875) (7.025530242919922e-05, 0.544921875) (7.278343200683593e-05, 0.546875) (7.568206024169921e-05, 0.548828125) (7.88101348876953e-05, 0.55078125) (8.205540466308593e-05, 0.552734375) (8.533476257324219e-05, 0.5546875) (8.857252502441406e-05, 0.556640625) (9.1721923828125e-05, 0.55859375) (9.474469757080078e-05, 0.560546875) (9.76050567626953e-05, 0.5625) (0.00010029370880126953, 0.564453125) (0.00010281453704833984, 0.56640625) (0.00010516961669921875, 0.568359375) (0.00010736851501464843, 0.5703125) (0.00010941605377197266, 0.572265625) (0.00011130968475341796, 0.57421875) (0.00011306614685058594, 0.576171875) (0.00011471148681640624, 0.578125) (0.0001162816925048828, 0.580078125) (0.00011783287048339844, 0.58203125) (0.00011940467834472655, 0.583984375) (0.00012101820373535156, 0.5859375) (0.00012269120788574217, 0.587890625) (0.00012442825317382812, 0.58984375) (0.00012622808837890626, 0.591796875) (0.00012808889770507813, 0.59375) (0.00012999501037597654, 0.595703125) (0.00013191912841796873, 0.59765625) (0.00013383851623535156, 0.599609375) (0.00013573213195800782, 0.6015625) (0.00013758163452148436, 0.603515625) (0.00013937513732910155, 0.60546875) (0.00014109344482421873, 0.607421875) (0.00014271250915527344, 0.609375) (0.00014420695495605468, 0.611328125) (0.00014554684448242188, 0.61328125) (0.0001467090606689453, 0.615234375) (0.00014767849731445312, 0.6171875) (0.00014844210815429686, 0.619140625) (0.000148990966796875, 0.62109375) (0.00014932022094726562, 0.623046875) (0.00014942694091796873, 0.625) (0.0001493141174316406, 0.626953125) (0.00014899128723144532, 0.62890625) (0.00014846617126464844, 0.630859375) (0.00014774526977539063, 0.6328125) (0.000146835205078125, 0.634765625) (0.00014574090576171874, 0.63671875) (0.00014446990966796873, 0.638671875) (0.00014303233337402342, 0.640625) (0.00014143841552734373, 0.642578125) (0.0001396988525390625, 0.64453125) (0.0001378242492675781, 0.646484375) (0.0001358249053955078, 0.6484375) (0.00013371165466308593, 0.650390625) (0.00013149604797363281, 0.65234375) (0.00012918911743164062, 0.654296875) (0.0001268017578125, 0.65625) (0.00012434425354003906, 0.658203125) (0.00012182623291015624, 0.66015625) (0.00011925830078124999, 0.662109375) (0.00011665185546874999, 0.6640625) (0.00011401838684082031, 0.666015625) (0.00011136963653564453, 0.66796875) (0.00010871710968017577, 0.669921875) (0.00010607186889648437, 0.671875) (0.00010344499969482422, 0.673828125) (0.00010084754180908202, 0.67578125) (9.828990173339843e-05, 0.677734375) (9.578178405761718e-05, 0.6796875) (9.33322296142578e-05, 0.681640625) (9.094956970214844e-05, 0.68359375) (8.864169311523438e-05, 0.685546875) (8.64159698486328e-05, 0.6875) (8.427915954589844e-05, 0.689453125) (8.223716735839844e-05, 0.69140625) (8.029522705078124e-05, 0.693359375) (7.845797729492187e-05, 0.6953125) (7.672939300537109e-05, 0.697265625) (7.511286926269531e-05, 0.69921875) (7.36112060546875e-05, 0.701171875) (7.22265625e-05, 0.703125) (7.096051025390625e-05, 0.705078125) (6.981409454345703e-05, 0.70703125) (6.878775024414062e-05, 0.708984375) (6.788119506835937e-05, 0.7109375) (6.709349060058593e-05, 0.712890625) (6.64229736328125e-05, 0.71484375) (6.586731719970702e-05, 0.716796875) (6.542359924316406e-05, 0.71875) (6.508831787109374e-05, 0.720703125) (6.485742950439453e-05, 0.72265625) (6.47264404296875e-05, 0.724609375) (6.469041442871093e-05, 0.7265625) (6.474409484863282e-05, 0.728515625) (6.488192749023437e-05, 0.73046875) (6.509808349609375e-05, 0.732421875) (6.538648986816406e-05, 0.734375) (6.574082946777343e-05, 0.736328125) (6.615458679199218e-05, 0.73828125) (6.662112426757812e-05, 0.740234375) (6.71337890625e-05, 0.7421875) (6.76859130859375e-05, 0.744140625) (6.827083587646484e-05, 0.74609375) (6.888191986083984e-05, 0.748046875) (6.951264953613281e-05, 0.75) (7.01566162109375e-05, 0.751953125) (7.080757141113281e-05, 0.75390625) (7.145939636230468e-05, 0.755859375) (7.21060791015625e-05, 0.7578125) (7.274172973632813e-05, 0.759765625) (7.336053466796874e-05, 0.76171875) (7.395687103271484e-05, 0.763671875) (7.45252685546875e-05, 0.765625) (7.506044006347656e-05, 0.767578125) (7.555739593505859e-05, 0.76953125) (7.601145935058593e-05, 0.771484375) (7.641828155517578e-05, 0.7734375) (7.677392578124999e-05, 0.775390625) (7.707488250732422e-05, 0.77734375) (7.731814575195312e-05, 0.779296875) (7.750103759765625e-05, 0.78125) (7.762136840820312e-05, 0.783203125) (7.767724609375e-05, 0.78515625) (7.766703796386718e-05, 0.787109375) (7.758944702148437e-05, 0.7890625) (7.744342803955078e-05, 0.791015625) (7.722817993164062e-05, 0.79296875) (7.69430923461914e-05, 0.794921875) (7.658782196044921e-05, 0.796875) (7.616224670410156e-05, 0.798828125) (7.56665802001953e-05, 0.80078125) (7.510132598876953e-05, 0.802734375) (7.446731567382812e-05, 0.8046875) (7.37656478881836e-05, 0.806640625) (7.299762725830078e-05, 0.80859375) (7.216478729248047e-05, 0.810546875) (7.126876831054687e-05, 0.8125) (7.031129455566406e-05, 0.814453125) (6.929423522949218e-05, 0.81640625) (6.821957397460937e-05, 0.818359375) (6.708946228027344e-05, 0.8203125) (6.590623474121093e-05, 0.822265625) (6.467243957519532e-05, 0.82421875) (6.339083862304688e-05, 0.826171875) (6.206443786621093e-05, 0.828125) (6.0696434020996094e-05, 0.830078125) (5.9290065765380856e-05, 0.83203125) (5.7848545074462887e-05, 0.833984375) (5.6375064849853516e-05, 0.8359375) (5.4872779846191407e-05, 0.837890625) (5.334465408325195e-05, 0.83984375) (5.179347610473633e-05, 0.841796875) (5.022196578979492e-05, 0.84375) (4.863275909423828e-05, 0.845703125) (4.7028602600097654e-05, 0.84765625) (4.5412464141845704e-05, 0.849609375) (4.3787384033203126e-05, 0.8515625) (4.2156436920166016e-05, 0.853515625) (4.0523082733154296e-05, 0.85546875) (3.8891044616699215e-05, 0.857421875) (3.726422119140625e-05, 0.859375) (3.5646739959716795e-05, 0.861328125) (3.404248809814453e-05, 0.86328125) (3.245500183105468e-05, 0.865234375) (3.088762283325195e-05, 0.8671875) (2.9343524932861326e-05, 0.869140625) (2.7825429916381834e-05, 0.87109375) (2.6335697174072265e-05, 0.873046875) (2.4876598358154295e-05, 0.875) (2.3450199127197266e-05, 0.876953125) (2.205902862548828e-05, 0.87890625) (2.070615005493164e-05, 0.880859375) (1.93951301574707e-05, 0.8828125) (1.813006591796875e-05, 0.884765625) (1.6915210723876953e-05, 0.88671875) (1.5754798889160156e-05, 0.888671875) (1.4652582168579101e-05, 0.890625) (1.361176586151123e-05, 0.892578125) (1.2634989738464355e-05, 0.89453125) (1.1724636077880859e-05, 0.896484375) (1.0882059097290038e-05, 0.8984375) (1.0107379913330077e-05, 0.900390625) (9.40185832977295e-06, 0.90234375) (8.767440795898437e-06, 0.904296875) (8.207769393920898e-06, 0.90625) (7.72856855392456e-06, 0.908203125) (7.333503723144531e-06, 0.91015625) (7.023515224456787e-06, 0.912109375) (6.796940803527832e-06, 0.9140625) (6.649509906768798e-06, 0.916015625) (6.572951316833496e-06, 0.91796875) (6.555999279022217e-06, 0.919921875) (6.586031913757324e-06, 0.921875) (6.648884296417236e-06, 0.923828125) (6.7342085838317865e-06, 0.92578125) (6.835649013519287e-06, 0.927734375) (6.952783107757568e-06, 0.9296875) (7.091562271118164e-06, 0.931640625) (7.258680820465088e-06, 0.93359375) (7.461964607238769e-06, 0.935546875) (7.70322322845459e-06, 0.9375) (7.977432250976562e-06, 0.939453125) (8.280839920043945e-06, 0.94140625) (8.611684799194336e-06, 0.943359375) (8.971242904663085e-06, 0.9453125) (9.363646507263184e-06, 0.947265625) (9.800651550292969e-06, 0.94921875) (1.0299643516540527e-05, 0.951171875) (1.0882594108581543e-05, 0.953125) (1.1576586723327636e-05, 0.955078125) (1.239864444732666e-05, 0.95703125) (1.3354474067687988e-05, 0.958984375) (1.4434514999389648e-05, 0.9609375) (1.5613525390625e-05, 0.962890625) (1.6858240127563477e-05, 0.96484375) (1.8127599716186523e-05, 0.966796875) (1.938926124572754e-05, 0.96875) (2.0620718002319335e-05, 0.970703125) (2.180135726928711e-05, 0.97265625) (2.2913158416748045e-05, 0.974609375) (2.3937070846557616e-05, 0.9765625) (2.48532600402832e-05, 0.978515625) (2.5634403228759765e-05, 0.98046875) (2.6247873306274414e-05, 0.982421875) (2.665281105041504e-05, 0.984375) (2.6799461364746092e-05, 0.986328125) (2.665070343017578e-05, 0.98828125) (2.6183803558349607e-05, 0.990234375) (2.539666938781738e-05, 0.9921875) (2.430853271484375e-05, 0.994140625) (2.2953413009643553e-05, 0.99609375) (2.1379360198974607e-05, 0.998046875) (1.9627683639526367e-05, 1.0) (1.7731857299804687e-05, 1.001953125) (1.5720838546752928e-05, 1.00390625) (1.361685562133789e-05, 1.005859375) (1.1440889358520507e-05, 1.0078125) (9.212469100952148e-06, 1.009765625) (6.954708099365234e-06, 1.01171875) (4.693028926849365e-06, 1.013671875) (2.4625937938690183e-06, 1.015625) (3.0938005447387694e-07, 1.017578125) (-1.7276549339294432e-06, 1.01953125) (-3.6175336837768554e-06, 1.021484375) (-5.34438419342041e-06, 1.0234375) (-6.908729553222656e-06, 1.025390625) (-8.323930740356444e-06, 1.02734375) (-9.615141868591309e-06, 1.029296875) (-1.0803627967834472e-05, 1.03125) (-1.1906758308410643e-05, 1.033203125) (-1.2937147140502929e-05, 1.03515625) (-1.3900622367858886e-05, 1.037109375) (-1.48009033203125e-05, 1.0390625) (-1.5638131141662598e-05, 1.041015625) (-1.6409908294677733e-05, 1.04296875) (-1.7111740112304687e-05, 1.044921875) (-1.7745309829711912e-05, 1.046875) (-1.8319471359252928e-05, 1.048828125) (-1.8841888427734373e-05, 1.05078125) (-1.9318548202514647e-05, 1.052734375) (-1.9747900009155272e-05, 1.0546875) (-2.0121351242065427e-05, 1.056640625) (-2.042592430114746e-05, 1.05859375) (-2.0645591735839842e-05, 1.060546875) (-2.076770210266113e-05, 1.0625) (-2.0780141830444335e-05, 1.064453125) (-2.0672760009765623e-05, 1.06640625) (-2.0438262939453125e-05, 1.068359375) (-2.0070514678955077e-05, 1.0703125) (-1.9568939208984375e-05, 1.072265625) (-1.8939023971557618e-05, 1.07421875) (-1.8189533233642576e-05, 1.076171875) (-1.7327106475830077e-05, 1.078125) (-1.635771179199219e-05, 1.080078125) (-1.529008674621582e-05, 1.08203125) (-1.4137358665466308e-05, 1.083984375) (-1.2920717239379883e-05, 1.0859375) (-1.1662426948547362e-05, 1.087890625) (-1.0379761695861815e-05, 1.08984375) (-9.08398151397705e-06, 1.091796875) (-7.78112506866455e-06, 1.09375) (-6.478228092193603e-06, 1.095703125) (-5.181479454040527e-06, 1.09765625) (-3.8969752788543695e-06, 1.099609375) (-2.6287505626678467e-06, 1.1015625) (-1.3710588216781616e-06, 1.103515625) (-1.1519056558609009e-07, 1.10546875) (1.1460981369018554e-06, 1.107421875) (2.4177064895629884e-06, 1.109375) (3.70447301864624e-06, 1.111328125) (5.017889499664307e-06, 1.11328125) (6.379787445068359e-06, 1.115234375) (7.82232093811035e-06, 1.1171875) (9.374950408935546e-06, 1.119140625) (1.1054958343505858e-05, 1.12109375) (1.2865930557250976e-05, 1.123046875) (1.4802836418151855e-05, 1.125) (1.6859699249267578e-05, 1.126953125) (1.9022386550903318e-05, 1.12890625) (2.127377700805664e-05, 1.130859375) (2.3589282989501953e-05, 1.1328125) (2.5922828674316406e-05, 1.134765625) (2.8229196548461914e-05, 1.13671875) (3.0467557907104492e-05, 1.138671875) (3.2596405029296876e-05, 1.140625) (3.4581565856933596e-05, 1.142578125) (3.638462448120117e-05, 1.14453125) (3.795526885986328e-05, 1.146484375) (3.923782348632812e-05, 1.1484375) (4.018208312988281e-05, 1.150390625) (4.074882125854492e-05, 1.15234375) (4.091609954833984e-05, 1.154296875) (4.067274475097656e-05, 1.15625) (4.000904846191406e-05, 1.158203125) (3.893251800537109e-05, 1.16015625) (3.745613098144531e-05, 1.162109375) (3.560213851928711e-05, 1.1640625) (3.3428787231445314e-05, 1.166015625) (3.099721145629883e-05, 1.16796875) (2.836958885192871e-05, 1.169921875) (2.562032699584961e-05, 1.171875) (2.2807891845703123e-05, 1.173828125) (1.9985431671142576e-05, 1.17578125) (1.721588897705078e-05, 1.177734375) (1.4559088706970215e-05, 1.1796875) (1.2068208694458008e-05, 1.181640625) (9.794707298278809e-06, 1.18359375) (7.775187492370605e-06, 1.185546875) (6.036178112030029e-06, 1.1875) (4.610106468200684e-06, 1.189453125) (3.5161597728729247e-06, 1.19140625) (2.773234128952026e-06, 1.193359375) (2.3996853828430174e-06, 1.1953125) (2.375593662261963e-06, 1.197265625) (2.6703777313232423e-06, 1.19921875) (3.24542236328125e-06, 1.201171875) (4.041298866271973e-06, 1.203125) (5.0163102149963375e-06, 1.205078125) (6.141708850860595e-06, 1.20703125) (7.382098197937012e-06, 1.208984375) (8.70934772491455e-06, 1.2109375) (1.0104588508605956e-05, 1.212890625) (1.1546530723571777e-05, 1.21484375) (1.3024636268615722e-05, 1.216796875) (1.45369815826416e-05, 1.21875) (1.6065975189208983e-05, 1.220703125) (1.759184455871582e-05, 1.22265625) (1.9088947296142578e-05, 1.224609375) (2.0523242950439453e-05, 1.2265625) (2.1885179519653318e-05, 1.228515625) (2.317981719970703e-05, 1.23046875) (2.4424316406249998e-05, 1.232421875) (2.565425682067871e-05, 1.234375) (2.690003204345703e-05, 1.236328125) (2.818633460998535e-05, 1.23828125) (2.9541496276855467e-05, 1.240234375) (3.099093055725097e-05, 1.2421875) (3.25486946105957e-05, 1.244140625) (3.422557067871094e-05, 1.24609375) (3.60261001586914e-05, 1.248046875) (3.794776916503906e-05, 1.25) (4.000424957275391e-05, 1.251953125) (4.2221195220947265e-05, 1.25390625) (4.4627952575683594e-05, 1.255859375) (4.725770568847656e-05, 1.2578125) (5.013573837280273e-05, 1.259765625) (5.326523208618164e-05, 1.26171875) (5.662002944946289e-05, 1.263671875) (6.016083145141601e-05, 1.265625) (6.382682800292968e-05, 1.267578125) (6.755050659179687e-05, 1.26953125) (7.128241729736328e-05, 1.271484375) (7.495375061035156e-05, 1.2734375) (7.848501586914061e-05, 1.275390625) (8.180061340332031e-05, 1.27734375) (8.481517791748047e-05, 1.279296875) (8.744845581054687e-05, 1.28125) (8.964495086669922e-05, 1.283203125) (9.130910491943359e-05, 1.28515625) (9.22704620361328e-05, 1.287109375) (9.244560241699219e-05, 1.2890625) (9.185646057128906e-05, 1.291015625) (9.065486907958985e-05, 1.29296875) (8.923417663574219e-05, 1.294921875) (8.80043716430664e-05, 1.296875) (8.726313018798827e-05, 1.298828125) (8.738909149169921e-05, 1.30078125) (8.885914611816406e-05, 1.302734375) (9.188158416748047e-05, 1.3046875) (9.63404541015625e-05, 1.306640625) (0.00010175834655761718, 1.30859375) (0.00010696855163574218, 1.310546875) (0.00011072950744628905, 1.3125) (0.00011219109344482421, 1.314453125) (0.00011042239379882812, 1.31640625) (0.00010453067016601562, 1.318359375) (9.438523864746094e-05, 1.3203125) (8.063865661621093e-05, 1.322265625) (6.467878723144531e-05, 1.32421875) (4.920976638793945e-05, 1.326171875) (3.747283172607422e-05, 1.328125) (3.231349563598633e-05, 1.330078125) (3.6974243164062496e-05, 1.33203125) (5.500598907470703e-05, 1.333984375) (8.779761505126953e-05, 1.3359375) (0.0001338905029296875, 1.337890625) (0.000190752685546875, 1.33984375) (0.0002538895263671875, 1.341796875) (0.00032039971923828126, 1.34375) (0.0003937163696289062, 1.345703125) (0.00047592221069335934, 1.34765625) (0.0005641915283203124, 1.349609375) (0.0006505269775390625, 1.3515625) (0.0007143321533203124, 1.353515625) (0.000732867919921875, 1.35546875) (0.00069399560546875, 1.357421875) (0.0005949395751953124, 1.359375) (0.0004498911437988281, 1.361328125) (0.0002847276000976562, 1.36328125) (0.00012261038208007813, 1.365234375) (-1.5403530120849607e-05, 1.3671875) (-0.00011700548553466797, 1.369140625) (-0.00018096498107910154, 1.37109375) (-0.00020963456726074217, 1.373046875) (-0.00021066390991210938, 1.375) (-0.00019291693115234374, 1.376953125) (-0.00016139636230468748, 1.37890625) (-0.00012259452819824218, 1.380859375) (-8.298430633544921e-05, 1.3828125) (-4.7263885498046874e-05, 1.384765625) (-2.240202522277832e-05, 1.38671875) (-9.765835762023926e-06, 1.388671875) (-3.7554907798767087e-06, 1.390625) (-3.524397015571594e-07, 1.392578125) (5.3188052177429194e-06, 1.39453125) (1.417146873474121e-05, 1.396484375) (2.082233428955078e-05, 1.3984375) (2.3134613037109373e-05, 1.400390625) (2.122432708740234e-05, 1.40234375) (1.6419580459594727e-05, 1.404296875) (1.2168523788452149e-05, 1.40625) (9.925945281982422e-06, 1.408203125) (9.462442398071288e-06, 1.41015625) (1.0836623191833496e-05, 1.412109375) (1.40595064163208e-05, 1.4140625) (1.8855804443359373e-05, 1.416015625) (2.4569936752319334e-05, 1.41796875) (3.016544723510742e-05, 1.419921875) (3.4810489654541015e-05, 1.421875) (3.8267894744873046e-05, 1.423828125) (4.069873428344727e-05, 1.42578125) (4.2206840515136714e-05, 1.427734375) (4.2648353576660154e-05, 1.4296875) (4.1975456237792965e-05, 1.431640625) (4.044454193115234e-05, 1.43359375) (3.8569042205810545e-05, 1.435546875) (3.68527603149414e-05, 1.4375) (3.556958770751953e-05, 1.439453125) (3.4781471252441405e-05, 1.44140625) (3.447353363037109e-05, 1.443359375) (3.470769500732422e-05, 1.4453125) (3.5584701538085934e-05, 1.447265625) (3.714948272705078e-05, 1.44921875) (3.935748291015625e-05, 1.451171875) (4.2113609313964845e-05, 1.453125) (4.532466125488281e-05, 1.455078125) (4.8922523498535154e-05, 1.45703125) (5.28564338684082e-05, 1.458984375) (5.7037208557128906e-05, 1.4609375) (6.134613418579101e-05, 1.462890625) (6.566207885742188e-05, 1.46484375) (6.98558349609375e-05, 1.466796875) (7.381580352783202e-05, 1.46875) (7.744415283203125e-05, 1.470703125) (8.064015960693359e-05, 1.47265625) (8.332615661621093e-05, 1.474609375) (8.544712829589844e-05, 1.4765625) (8.695301818847656e-05, 1.478515625) (8.781069946289062e-05, 1.48046875) (8.800733184814453e-05, 1.482421875) (8.753917694091796e-05, 1.484375) (8.642291259765625e-05, 1.486328125) (8.469960021972657e-05, 1.48828125) (8.242103576660156e-05, 1.490234375) (7.966302490234375e-05, 1.4921875) (7.651808929443358e-05, 1.494140625) (7.30663604736328e-05, 1.49609375) (6.938722229003906e-05, 1.498046875) (6.555629730224609e-05, 1.5) (6.16432762145996e-05, 1.501953125) (5.772853088378906e-05, 1.50390625) (5.388179779052734e-05, 1.505859375) (5.015303039550781e-05, 1.5078125) (4.658584213256836e-05, 1.509765625) (4.3215717315673825e-05, 1.51171875) (4.0071220397949216e-05, 1.513671875) (3.718359375e-05, 1.515625) (3.4577102661132814e-05, 1.517578125) (3.2255661010742184e-05, 1.51953125) (3.0215999603271482e-05, 1.521484375) (2.844314193725586e-05, 1.5234375) (2.69107723236084e-05, 1.525390625) (2.560715103149414e-05, 1.52734375) (2.452619171142578e-05, 1.529296875) (2.3660724639892576e-05, 1.53125) (2.300727653503418e-05, 1.533203125) (2.2557874679565428e-05, 1.53515625) (2.230802345275879e-05, 1.537109375) (2.226544952392578e-05, 1.5390625) (2.2443803787231444e-05, 1.541015625) (2.2854286193847655e-05, 1.54296875) (2.350604248046875e-05, 1.544921875) (2.4406028747558594e-05, 1.546875) (2.5561107635498047e-05, 1.548828125) (2.6988239288330076e-05, 1.55078125) (2.8707511901855467e-05, 1.552734375) (3.0735946655273434e-05, 1.5546875) (3.3089401245117184e-05, 1.556640625) (3.577479553222656e-05, 1.55859375) (3.879224395751953e-05, 1.560546875) (4.213817977905273e-05, 1.5625) (4.580371856689453e-05, 1.564453125) (4.97723274230957e-05, 1.56640625) (5.401937103271484e-05, 1.568359375) (5.8518470764160155e-05, 1.5703125) (6.324127960205078e-05, 1.572265625) (6.816259002685546e-05, 1.57421875) (7.32627182006836e-05, 1.576171875) (7.851725769042968e-05, 1.578125) (8.389875030517578e-05, 1.580078125) (8.937956237792968e-05, 1.58203125) (9.493088531494141e-05, 1.583984375) (0.00010053071594238281, 1.5859375) (0.00010616649627685547, 1.587890625) (0.00011182830810546875, 1.58984375) (0.00011750968933105468, 1.591796875) (0.0001232170181274414, 1.59375) (0.00012896304321289063, 1.595703125) (0.0001347685546875, 1.59765625) (0.0001406650390625, 1.599609375) (0.00014666899108886717, 1.6015625) (0.00015278622436523437, 1.603515625) (0.00015902148437499998, 1.60546875) (0.0001653679656982422, 1.607421875) (0.0001718214569091797, 1.609375) (0.00017838261413574217, 1.611328125) (0.0001850391387939453, 1.61328125) (0.00019177223205566407, 1.615234375) (0.0001985592803955078, 1.6171875) (0.00020535986328125, 1.619140625) (0.00021212429809570313, 1.62109375) (0.0002187968292236328, 1.623046875) (0.00022529347229003905, 1.625) (0.00023151737976074218, 1.626953125) (0.00023736973571777343, 1.62890625) (0.00024274143981933594, 1.630859375) (0.0002475477752685547, 1.6328125) (0.0002517244262695312, 1.634765625) (0.0002552030334472656, 1.63671875) (0.00025792984008789064, 1.638671875) (0.0002598565368652344, 1.640625) (0.00026092919921874997, 1.642578125) (0.0002611167297363281, 1.64453125) (0.0002604025573730469, 1.646484375) (0.00025876730346679686, 1.6484375) (0.0002562186279296875, 1.650390625) (0.0002527884826660156, 1.65234375) (0.0002485231018066406, 1.654296875) (0.00024351141357421873, 1.65625) (0.0002378653564453125, 1.658203125) (0.00023169642639160156, 1.66015625) (0.00022512991333007812, 1.662109375) (0.00021827713012695311, 1.6640625) (0.00021123348999023436, 1.666015625) (0.0002041089630126953, 1.66796875) (0.00019700822448730468, 1.669921875) (0.00019003089904785154, 1.671875) (0.00018329058837890624, 1.673828125) (0.00017688302612304686, 1.67578125) (0.00017089230346679687, 1.677734375) (0.00016541482543945313, 1.6796875) (0.00016052157592773438, 1.681640625) (0.00015625628662109374, 1.68359375) (0.00015264970397949217, 1.685546875) (0.00014969386291503904, 1.6875) (0.00014735775756835937, 1.689453125) (0.00014561309814453124, 1.69140625) (0.00014441793823242186, 1.693359375) (0.00014373001098632812, 1.6953125) (0.00014351629638671874, 1.697265625) (0.0001437264709472656, 1.69921875) (0.00014430632019042967, 1.701171875) (0.00014520257568359374, 1.703125) (0.00014634312438964843, 1.705078125) (0.00014766470336914062, 1.70703125) (0.0001491112365722656, 1.708984375) (0.00015061369323730468, 1.7109375) (0.00015211959838867188, 1.712890625) (0.00015359391784667967, 1.71484375) (0.00015500692749023437, 1.716796875) (0.0001563512725830078, 1.71875) (0.00015763470458984375, 1.720703125) (0.00015886053466796873, 1.72265625) (0.00016003936767578124, 1.724609375) (0.0001611862030029297, 1.7265625) (0.00016230828857421875, 1.728515625) (0.00016342274475097656, 1.73046875) (0.00016455093383789063, 1.732421875) (0.00016571343994140625, 1.734375) (0.00016694267272949218, 1.736328125) (0.0001682645263671875, 1.73828125) (0.00016969764709472656, 1.740234375) (0.00017126498413085937, 1.7421875) (0.00017298011779785157, 1.744140625) (0.000174847900390625, 1.74609375) (0.0001768712158203125, 1.748046875) (0.00017904229736328124, 1.75) (0.0001813446502685547, 1.751953125) (0.00018376495361328125, 1.75390625) (0.00018628684997558593, 1.755859375) (0.00018889047241210937, 1.7578125) (0.00019156036376953125, 1.759765625) (0.00019427622985839844, 1.76171875) (0.00019701495361328124, 1.763671875) (0.00019975401306152342, 1.765625) (0.00020246604919433594, 1.767578125) (0.00020512686157226563, 1.76953125) (0.00020771633911132812, 1.771484375) (0.00021021380615234375, 1.7734375) (0.00021260304260253905, 1.775390625) (0.0002148725128173828, 1.77734375) (0.0002170104064941406, 1.779296875) (0.00021900848388671873, 1.78125) (0.0002208609924316406, 1.783203125) (0.00022255775451660156, 1.78515625) (0.00022409268188476562, 1.787109375) (0.0002254654846191406, 1.7890625) (0.0002266754150390625, 1.791015625) (0.00022772555541992185, 1.79296875) (0.00022862278747558593, 1.794921875) (0.00022937432861328124, 1.796875) (0.00022999496459960936, 1.798828125) (0.0002305068359375, 1.80078125) (0.0002309294891357422, 1.802734375) (0.0002312821044921875, 1.8046875) (0.00023157997131347655, 1.806640625) (0.00023183106994628905, 1.80859375) (0.00023204885864257813, 1.810546875) (0.00023225015258789063, 1.8125) (0.00023245286560058594, 1.814453125) (0.00023268026733398435, 1.81640625) (0.00023294430541992187, 1.818359375) (0.00023324195861816404, 1.8203125) (0.00023356993103027342, 1.822265625) (0.00023392218017578124, 1.82421875) (0.00023428314208984375, 1.826171875) (0.00023463482666015624, 1.828125) (0.00023494018554687498, 1.830078125) (0.0002351389923095703, 1.83203125) (0.00023518327331542967, 1.833984375) (0.00023503532409667967, 1.8359375) (0.00023466558837890623, 1.837890625) (0.00023406108093261717, 1.83984375) (0.00023319798278808592, 1.841796875) (0.00023204234313964844, 1.84375) (0.00023056715393066405, 1.845703125) (0.00022874935913085937, 1.84765625) (0.00022658755493164061, 1.849609375) (0.00022410968017578124, 1.8515625) (0.0002213453674316406, 1.853515625) (0.00021832778930664062, 1.85546875) (0.00021511344909667967, 1.857421875) (0.00021176942443847655, 1.859375) (0.00020839698791503904, 1.861328125) (0.0002051376190185547, 1.86328125) (0.00020210887145996094, 1.865234375) (0.00019940624999999998, 1.8671875) (0.0001971168212890625, 1.869140625) (0.00019530490112304685, 1.87109375) (0.00019404728698730467, 1.873046875) (0.00019343704223632812, 1.875) (0.0001935455780029297, 1.876953125) (0.00019442321777343749, 1.87890625) (0.00019609301757812499, 1.880859375) (0.0001985375213623047, 1.8828125) (0.00020173043823242188, 1.884765625) (0.000205637939453125, 1.88671875) (0.00021018702697753904, 1.888671875) (0.00021528034973144531, 1.890625) (0.000220774169921875, 1.892578125) (0.00022646998596191406, 1.89453125) (0.00023218542480468748, 1.896484375) (0.00023775384521484375, 1.8984375) (0.00024300384521484374, 1.900390625) (0.0002477782897949219, 1.90234375) (0.00025190565490722656, 1.904296875) (0.0002551898498535156, 1.90625) (0.0002574566650390625, 1.908203125) (0.00025855816650390624, 1.91015625) (0.0002583638916015625, 1.912109375) (0.00025678051757812496, 1.9140625) (0.000253727294921875, 1.916015625) (0.0002491256103515625, 1.91796875) (0.00024292987060546873, 1.919921875) (0.000235118896484375, 1.921875) (0.00022571156311035156, 1.923828125) (0.00021477967834472657, 1.92578125) (0.0002023993225097656, 1.927734375) (0.00018864489746093748, 1.9296875) (0.0001736062316894531, 1.931640625) (0.00015737211608886717, 1.93359375) (0.0001400414581298828, 1.935546875) (0.00012174089050292968, 1.9375) (0.00010259072875976562, 1.939453125) (8.269451141357421e-05, 1.94140625) (6.215498352050781e-05, 1.943359375) (4.105378723144531e-05, 1.9453125) (1.9462844848632813e-05, 1.947265625) (-2.530616283416748e-06, 1.94921875) (-2.4838472366333008e-05, 1.951171875) (-4.7375823974609375e-05, 1.953125) (-7.006903076171874e-05, 1.955078125) (-9.287071990966797e-05, 1.95703125) (-0.00011574588012695313, 1.958984375) (-0.00013865211486816407, 1.9609375) (-0.00016155133056640624, 1.962890625) (-0.00018440594482421873, 1.96484375) (-0.00020716949462890624, 1.966796875) (-0.00022981152343749998, 1.96875) (-0.00025230438232421874, 1.970703125) (-0.00027461663818359374, 1.97265625) (-0.00029673046875, 1.974609375) (-0.00031861517333984374, 1.9765625) (-0.00034022567749023437, 1.978515625) (-0.00036152288818359376, 1.98046875) (-0.0003824730224609375, 1.982421875) (-0.00040306689453124996, 1.984375) (-0.0004233306274414062, 1.986328125) (-0.0004432743225097656, 1.98828125) (-0.0004628873291015625, 1.990234375) (-0.00048218951416015624, 1.9921875) (-0.0005011655578613281, 1.994140625) (-0.000519851318359375, 1.99609375) (-0.0005384104614257812, 1.998046875) (-0.0005568437499999999, 2.0) (-0.000574999755859375, 2.001953125) (-0.0005926885986328124, 2.00390625) (-0.0006095267333984375, 2.005859375) (-0.000625143798828125, 2.0078125) (-0.0006393875122070312, 2.009765625) (-0.0006519040527343749, 2.01171875) (-0.0006621253662109375, 2.013671875) (-0.0006700494384765625, 2.015625) (-0.0006760546264648437, 2.017578125) (-0.0006806934814453124, 2.01953125) (-0.0006851151733398437, 2.021484375) (-0.0006904269409179687, 2.0234375) (-0.000697424072265625, 2.025390625) (-0.0007072413330078125, 2.02734375) (-0.0007211587524414062, 2.029296875) (-0.0007383600463867188, 2.03125) (-0.0007561929321289062, 2.033203125) (-0.0007733142700195312, 2.03515625) (-0.0007882080078125, 2.037109375) (-0.0008007379150390625, 2.0390625) (-0.0008134461669921874, 2.041015625) (-0.000822367919921875, 2.04296875) (-0.0008189156494140625, 2.044921875) (-0.0007976899414062499, 2.046875) (-0.0007540021362304687, 2.048828125) (-0.0006907471313476562, 2.05078125) (-0.0006198565673828125, 2.052734375) (-0.0005473387451171874, 2.0546875) (-0.00047314776611328126, 2.056640625) (-0.00039794299316406247, 2.05859375) (-0.0003214964904785156, 2.060546875) (-0.0002520399932861328, 2.0625) (-0.0002118968811035156, 2.064453125) (-0.0002200741271972656, 2.06640625) (-0.00028574896240234375, 2.068359375) (-0.000408760009765625, 2.0703125) (-0.0005696862792968749, 2.072265625) (-0.0007418135375976562, 2.07421875) (-0.0009035169677734375, 2.076171875) (-0.0010338206787109375, 2.078125) (-0.0011228186035156249, 2.080078125) (-0.0011734660644531249, 2.08203125) (-0.0011918656005859374, 2.083984375) (-0.001190759765625, 2.0859375) (-0.001182518798828125, 2.087890625) (-0.00117073291015625, 2.08984375) (-0.00115637744140625, 2.091796875) (-0.00113764697265625, 2.09375) (-0.001111939697265625, 2.095703125) (-0.0010819964599609374, 2.09765625) (-0.001052184326171875, 2.099609375) (-0.001025997802734375, 2.1015625) (-0.0010069215698242187, 2.103515625) (-0.0009962890625, 2.10546875) (-0.0009933682861328124, 2.107421875) (-0.0009967753906249999, 2.109375) (-0.0010041314697265625, 2.111328125) (-0.0010124603271484374, 2.11328125) (-0.0010192440185546874, 2.115234375) (-0.00102301220703125, 2.1171875) (-0.0010228380126953126, 2.119140625) (-0.0010178675537109376, 2.12109375) (-0.0010078321533203123, 2.123046875) (-0.0009929719848632813, 2.125) (-0.0009739726562499999, 2.126953125) (-0.0009523255004882812, 2.12890625) (-0.0009296485595703124, 2.130859375) (-0.0009068156127929687, 2.1328125) (-0.0008843687133789063, 2.134765625) (-0.0008627801513671875, 2.13671875) (-0.0008421953735351562, 2.138671875) (-0.0008227076416015625, 2.140625) (-0.000804333740234375, 2.142578125) (-0.0007866845092773437, 2.14453125) (-0.0007692761840820312, 2.146484375) (-0.0007518975830078125, 2.1484375) (-0.0007344608764648437, 2.150390625) (-0.0007169796752929688, 2.15234375) (-0.00069959375, 2.154296875) (-0.000682364013671875, 2.15625) (-0.0006653316040039063, 2.158203125) (-0.0006486300659179688, 2.16015625) (-0.000632400146484375, 2.162109375) (-0.0006167608642578125, 2.1640625) (-0.0006017987670898438, 2.166015625) (-0.0005875357666015624, 2.16796875) (-0.0005739715576171875, 2.169921875) (-0.0005611261596679687, 2.171875) (-0.0005490245361328125, 2.173828125) (-0.0005376885375976562, 2.17578125) (-0.0005271285400390625, 2.177734375) (-0.0005173325805664063, 2.1796875) (-0.0005082858276367187, 2.181640625) (-0.0004999739685058594, 2.18359375) (-0.0004923591308593749, 2.185546875) (-0.00048538946533203123, 2.1875) (-0.00047898239135742187, 2.189453125) (-0.00047302832031249995, 2.19140625) (-0.0004674238891601562, 2.193359375) (-0.00046205783081054686, 2.1953125) (-0.00045683154296875, 2.197265625) (-0.0004516681213378906, 2.19921875) (-0.0004464874267578125, 2.201171875) (-0.00044121484375, 2.203125) (-0.0004357908020019531, 2.205078125) (-0.0004301651611328125, 2.20703125) (-0.0004242948303222656, 2.208984375) (-0.0004181527404785156, 2.2109375) (-0.00041170358276367187, 2.212890625) (-0.0004049034729003906, 2.21484375) (-0.0003977476806640625, 2.216796875) (-0.000390260986328125, 2.21875) (-0.0003825021057128906, 2.220703125) (-0.00037456994628906246, 2.22265625) (-0.00036656573486328124, 2.224609375) (-0.00035859237670898434, 2.2265625) (-0.0003507580261230469, 2.228515625) (-0.0003431677551269531, 2.23046875) (-0.00033591708374023434, 2.232421875) (-0.0003290921630859375, 2.234375) (-0.00032275997924804685, 2.236328125) (-0.00031696093749999997, 2.23828125) (-0.0003117294006347656, 2.240234375) (-0.00030708709716796876, 2.2421875) (-0.00030304940795898436, 2.244140625) (-0.00029962936401367184, 2.24609375) (-0.0002967949523925781, 2.248046875) (-0.00029446929931640624, 2.25) (-0.00029253955078125, 2.251953125) (-0.00029084948730468747, 2.25390625) (-0.00028922015380859376, 2.255859375) (-0.00028745983886718747, 2.2578125) (-0.0002853555297851562, 2.259765625) (-0.00028267837524414063, 2.26171875) (-0.000279215087890625, 2.263671875) (-0.00027477127075195313, 2.265625) (-0.00026917108154296874, 2.267578125) (-0.0002622762145996094, 2.26953125) (-0.0002539690093994141, 2.271484375) (-0.0002441459655761719, 2.2734375) (-0.00023273191833496094, 2.275390625) (-0.00021968292236328123, 2.27734375) (-0.00020500218200683593, 2.279296875) (-0.00018875323486328125, 2.28125) (-0.0001710528564453125, 2.283203125) (-0.00015206350708007812, 2.28515625) (-0.00013198971557617186, 2.287109375) (-0.00011107427215576171, 2.2890625) (-8.959027099609374e-05, 2.291015625) (-6.783901977539062e-05, 2.29296875) (-4.612442398071289e-05, 2.294921875) (-2.472637367248535e-05, 2.296875) (-3.908932685852051e-06, 2.298828125) (1.6092369079589842e-05, 2.30078125) (3.5069976806640625e-05, 2.302734375) (5.2821846008300776e-05, 2.3046875) (6.916557312011718e-05, 2.306640625) (8.395761108398437e-05, 2.30859375) (9.709757995605468e-05, 2.310546875) (0.00010854378509521484, 2.3125) (0.00011832009887695313, 2.314453125) (0.00012649220275878906, 2.31640625) (0.00013316281127929687, 2.318359375) (0.00013849053955078123, 2.3203125) (0.00014266766357421873, 2.322265625) (0.00014591693115234374, 2.32421875) (0.0001484874572753906, 2.326171875) (0.0001506027069091797, 2.328125) (0.0001524630126953125, 2.330078125) (0.0001542559356689453, 2.33203125) (0.00015615020751953124, 2.333984375) (0.00015831539916992188, 2.3359375) (0.00016092590332031248, 2.337890625) (0.00016413250732421873, 2.33984375) (0.00016804449462890625, 2.341796875) (0.00017273085021972655, 2.34375) (0.0001782053985595703, 2.345703125) (0.0001844472198486328, 2.34765625) (0.00019141537475585936, 2.349609375) (0.00019901309204101562, 2.3515625) (0.0002071036682128906, 2.353515625) (0.0002155191650390625, 2.35546875) (0.00022405526733398437, 2.357421875) (0.00023252308654785156, 2.359375) (0.00024075906372070312, 2.361328125) (0.00024859864807128906, 2.36328125) (0.00025587521362304685, 2.365234375) (0.0002624269104003906, 2.3671875) (0.00026808062744140625, 2.369140625) (0.000272668212890625, 2.37109375) (0.00027606027221679686, 2.373046875) (0.00027814523315429685, 2.375) (0.0002788385009765625, 2.376953125) (0.0002780858154296875, 2.37890625) (0.00027584716796875, 2.380859375) (0.0002721227111816406, 2.3828125) (0.0002669537658691406, 2.384765625) (0.00026041552734375, 2.38671875) (0.00025261561584472654, 2.388671875) (0.0002436704406738281, 2.390625) (0.00023369117736816406, 2.392578125) (0.00022280279541015625, 2.39453125) (0.0002111533966064453, 2.396484375) (0.00019888348388671874, 2.3984375) (0.0001861380615234375, 2.400390625) (0.00017307228088378905, 2.40234375) (0.0001598197784423828, 2.404296875) (0.0001465170440673828, 2.40625) (0.00013330401611328125, 2.408203125) (0.00012029773712158202, 2.41015625) (0.00010760098266601562, 2.412109375) (9.530319213867187e-05, 2.4140625) (8.347000885009766e-05, 2.416015625) (7.214196014404297e-05, 2.41796875) (6.134194564819336e-05, 2.419921875) (5.107078552246094e-05, 2.421875) (4.131491851806641e-05, 2.423828125) (3.204671096801758e-05, 2.42578125) (2.3214826583862302e-05, 2.427734375) (1.4773035049438475e-05, 2.4296875) (6.6775746345520015e-06, 2.431640625) (-1.1288340091705322e-06, 2.43359375) (-8.69940185546875e-06, 2.435546875) (-1.6097349166870115e-05, 2.4375) (-2.3400295257568357e-05, 2.439453125) (-3.066920852661133e-05, 2.44140625) (-3.7950046539306636e-05, 2.443359375) (-4.529132080078125e-05, 2.4453125) (-5.273523712158203e-05, 2.447265625) (-6.031194686889648e-05, 2.44921875) (-6.804665374755859e-05, 2.451171875) (-7.594541931152343e-05, 2.453125) (-8.399626159667969e-05, 2.455078125) (-9.218212890624999e-05, 2.45703125) (-0.00010047562408447265, 2.458984375) (-0.00010885065460205078, 2.4609375) (-0.00011728480529785155, 2.462890625) (-0.00012574610900878907, 2.46484375) (-0.00013419889831542967, 2.466796875) (-0.00014260092163085938, 2.46875) (-0.00015090051269531248, 2.470703125) (-0.00015905728149414062, 2.47265625) (-0.0001670430145263672, 2.474609375) (-0.00017482655334472656, 2.4765625) (-0.00018237738037109373, 2.478515625) (-0.00018966952514648438, 2.48046875) (-0.0001966776123046875, 2.482421875) (-0.0002033880920410156, 2.484375) (-0.00020980050659179686, 2.486328125) (-0.00021591210937499999, 2.48828125) (-0.00022172012329101562, 2.490234375) (-0.00022722108459472654, 2.4921875) (-0.00023240826416015623, 2.494140625) (-0.00023728372192382812, 2.49609375) (-0.0002418580322265625, 2.498046875) (-0.00024614532470703125, 2.5) (-0.0002501642150878906, 2.501953125) (-0.0002539312133789062, 2.50390625) (-0.000257458984375, 2.505859375) (-0.00026076580810546876, 2.5078125) (-0.00026387512207031247, 2.509765625) (-0.00026680572509765624, 2.51171875) (-0.0002695737609863281, 2.513671875) (-0.0002721863708496094, 2.515625) (-0.00027464065551757814, 2.517578125) (-0.00027694152832031247, 2.51953125) (-0.0002790994262695312, 2.521484375) (-0.0002811280517578125, 2.5234375) (-0.00028304675292968747, 2.525390625) (-0.0002848640441894531, 2.52734375) (-0.00028657659912109375, 2.529296875) (-0.00028818206787109373, 2.53125) (-0.00028967657470703126, 2.533203125) (-0.0002910484008789062, 2.53515625) (-0.000292281982421875, 2.537109375) (-0.00029334521484374997, 2.5390625) (-0.000294191650390625, 2.541015625) (-0.00029479156494140624, 2.54296875) (-0.0002951305236816406, 2.544921875) (-0.000295208984375, 2.546875) (-0.0002950435180664062, 2.548828125) (-0.0002946409912109375, 2.55078125) (-0.00029400274658203124, 2.552734375) (-0.00029313272094726563, 2.5546875) (-0.0002920311279296875, 2.556640625) (-0.0002907090148925781, 2.55859375) (-0.00028918881225585937, 2.560546875) (-0.000287484130859375, 2.5625) (-0.000285609375, 2.564453125) (-0.0002836001281738281, 2.56640625) (-0.0002815050048828125, 2.568359375) (-0.0002794017333984375, 2.5703125) (-0.0002773931884765625, 2.572265625) (-0.0002755526733398437, 2.57421875) (-0.0002739276123046875, 2.576171875) (-0.00027254855346679687, 2.578125) (-0.000271424560546875, 2.580078125) (-0.00027057302856445313, 2.58203125) (-0.00027001388549804684, 2.583984375) (-0.0002697528076171875, 2.5859375) (-0.0002697974853515625, 2.587890625) (-0.0002701560974121094, 2.58984375) (-0.00027083651733398435, 2.591796875) (-0.000271864990234375, 2.59375) (-0.0002732664184570312, 2.595703125) (-0.000275031982421875, 2.59765625) (-0.000277131103515625, 2.599609375) (-0.0002795009765625, 2.6015625) (-0.0002820455322265625, 2.603515625) (-0.00028468978881835934, 2.60546875) (-0.00028737374877929687, 2.607421875) (-0.00029003863525390623, 2.609375) (-0.0002926397094726562, 2.611328125) (-0.00029512591552734375, 2.61328125) (-0.000297444091796875, 2.615234375) (-0.00029955072021484375, 2.6171875) (-0.00030138818359375, 2.619140625) (-0.0003028714904785156, 2.62109375) (-0.0003038912658691406, 2.623046875) (-0.00030431088256835934, 2.625) (-0.0003039865112304687, 2.626953125) (-0.00030280035400390625, 2.62890625) (-0.00030064974975585934, 2.630859375) (-0.00029744442749023435, 2.6328125) (-0.0002931229858398437, 2.634765625) (-0.0002876260986328125, 2.63671875) (-0.0002809009704589844, 2.638671875) (-0.00027290875244140626, 2.640625) (-0.00026360650634765624, 2.642578125) (-0.00025294729614257813, 2.64453125) (-0.000240882080078125, 2.646484375) (-0.000227375244140625, 2.6484375) (-0.00021242457580566407, 2.650390625) (-0.00019607533264160156, 2.65234375) (-0.00017841835021972655, 2.654296875) (-0.00015957337951660156, 2.65625) (-0.00013968113708496093, 2.658203125) (-0.00011888601684570312, 2.66015625) (-9.734178161621094e-05, 2.662109375) (-7.521957397460938e-05, 2.6640625) (-5.2680541992187496e-05, 2.666015625) (-2.9871673583984375e-05, 2.66796875) (-6.926792144775391e-06, 2.669921875) (1.6025192260742188e-05, 2.671875) (3.884590911865234e-05, 2.673828125) (6.137391662597656e-05, 2.67578125) (8.343017578125e-05, 2.677734375) (0.00010486474609374999, 2.6796875) (0.00012556297302246093, 2.681640625) (0.00014544732666015625, 2.68359375) (0.00016448092651367188, 2.685546875) (0.0001826418762207031, 2.6875) (0.00019992762756347655, 2.689453125) (0.00021635980224609373, 2.69140625) (0.0002319835510253906, 2.693359375) (0.00024686703491210934, 2.6953125) (0.00026107916259765626, 2.697265625) (0.0002746738586425781, 2.69921875) (0.00028769338989257813, 2.701171875) (0.0003001905822753906, 2.703125) (0.00031223291015624997, 2.705078125) (0.00032391552734374997, 2.70703125) (0.00033535751342773435, 2.708984375) (0.00034664816284179687, 2.7109375) (0.00035785147094726563, 2.712890625) (0.00036901657104492186, 2.71484375) (0.000380169677734375, 2.716796875) (0.00039133468627929686, 2.71875) (0.0004025273742675781, 2.720703125) (0.0004137394104003906, 2.72265625) (0.0004249419250488281, 2.724609375) (0.0004360987548828125, 2.7265625) (0.00044717443847656246, 2.728515625) (0.00045814483642578124, 2.73046875) (0.00046899609374999996, 2.732421875) (0.00047970162963867184, 2.734375) (0.0004902249755859375, 2.736328125) (0.0005005158386230469, 2.73828125) (0.0005105103759765624, 2.740234375) (0.0005201659545898438, 2.7421875) (0.0005294559936523437, 2.744140625) (0.0005383583984375, 2.74609375) (0.0005468618164062499, 2.748046875) (0.0005549569091796875, 2.75) (0.0005626378784179687, 2.751953125) (0.0005699146728515625, 2.75390625) (0.0005768101806640625, 2.755859375) (0.0005833453369140625, 2.7578125) (0.0005895389404296875, 2.759765625) (0.0005954058837890625, 2.76171875) (0.0006009554443359374, 2.763671875) (0.0006062047119140625, 2.765625) (0.000611176025390625, 2.767578125) (0.0006158942260742188, 2.76953125) (0.0006203878173828125, 2.771484375) (0.0006246776733398438, 2.7734375) (0.0006287775878906249, 2.775390625) (0.0006327008056640625, 2.77734375) (0.0006364569702148438, 2.779296875) (0.00064005322265625, 2.78125) (0.0006434950561523437, 2.783203125) (0.0006467817993164062, 2.78515625) (0.0006499072265625, 2.787109375) (0.0006528681030273437, 2.7890625) (0.0006556627197265624, 2.791015625) (0.0006582896728515625, 2.79296875) (0.000660749755859375, 2.794921875) (0.0006630408325195312, 2.796875) (0.0006651591796874999, 2.798828125) (0.0006671014404296874, 2.80078125) (0.0006688642578125, 2.802734375) (0.0006704448852539062, 2.8046875) (0.0006718414306640624, 2.806640625) (0.000673052001953125, 2.80859375) (0.0006740747070312499, 2.810546875) (0.000674908935546875, 2.8125) (0.0006755546874999999, 2.814453125) (0.0006760133056640625, 2.81640625) (0.0006762867431640624, 2.818359375) (0.0006763766479492187, 2.8203125) (0.000676283935546875, 2.822265625) (0.0006760098876953124, 2.82421875) (0.0006755556030273438, 2.826171875) (0.0006749225463867187, 2.828125) (0.00067411279296875, 2.830078125) (0.000673128662109375, 2.83203125) (0.00067197216796875, 2.833984375) (0.0006706469726562499, 2.8359375) (0.0006691567993164062, 2.837890625) (0.0006675064697265624, 2.83984375) (0.0006657011108398437, 2.841796875) (0.0006637467041015624, 2.84375) (0.0006616493530273437, 2.845703125) (0.0006594158325195312, 2.84765625) (0.0006570533447265625, 2.849609375) (0.000654569580078125, 2.8515625) (0.0006519725341796875, 2.853515625) (0.0006492708129882813, 2.85546875) (0.00064647314453125, 2.857421875) (0.0006435888061523437, 2.859375) (0.0006406273193359374, 2.861328125) (0.0006375982666015625, 2.86328125) (0.00063451123046875, 2.865234375) (0.0006313760986328124, 2.8671875) (0.00062820263671875, 2.869140625) (0.000625000732421875, 2.87109375) (0.000621780029296875, 2.873046875) (0.00061855029296875, 2.875) (0.0006153208007812499, 2.876953125) (0.0006121008911132812, 2.87890625) (0.000608899658203125, 2.880859375) (0.0006057259521484375, 2.8828125) (0.000602588623046875, 2.884765625) (0.000599495849609375, 2.88671875) (0.0005964558105468749, 2.888671875) (0.000593476318359375, 2.890625) (0.0005905646362304687, 2.892578125) (0.0005877278442382812, 2.89453125) (0.0005849723510742188, 2.896484375) (0.00058230419921875, 2.8984375) (0.0005797286376953125, 2.900390625) (0.0005772501831054687, 2.90234375) (0.0005748726806640625, 2.904296875) (0.0005725994873046875, 2.90625) (0.000570432861328125, 2.908203125) (0.00056837451171875, 2.91015625) (0.0005664253540039062, 2.912109375) (0.00056458544921875, 2.9140625) (0.0005628541870117187, 2.916015625) (0.0005612301025390624, 2.91796875) (0.0005597108154296875, 2.919921875) (0.0005582934570312499, 2.921875) (0.0005569741821289063, 2.923828125) (0.0005557484130859374, 2.92578125) (0.0005546110229492187, 2.927734375) (0.0005535559692382813, 2.9296875) (0.000552576904296875, 2.931640625) (0.00055166650390625, 2.93359375) (0.0005508172607421875, 2.935546875) (0.0005500209350585937, 2.9375) (0.0005492689208984375, 2.939453125) (0.0005485521240234375, 2.94140625) (0.0005478609619140625, 2.943359375) (0.0005471856079101562, 2.9453125) (0.000546515625, 2.947265625) (0.0005458406982421875, 2.94921875) (0.0005451497192382812, 2.951171875) (0.0005444317626953125, 2.953125) (0.000543675537109375, 2.955078125) (0.0005428699340820312, 2.95703125) (0.0005420035400390625, 2.958984375) (0.0005410655517578125, 2.9609375) (0.000540044677734375, 2.962890625) (0.000538930419921875, 2.96484375) (0.0005377124633789062, 2.966796875) (0.0005363809814453124, 2.96875) (0.0005349266967773437, 2.970703125) (0.0005333409423828125, 2.97265625) (0.0005316156005859375, 2.974609375) (0.000529743408203125, 2.9765625) (0.000527718017578125, 2.978515625) (0.0005255335693359375, 2.98046875) (0.0005231856079101563, 2.982421875) (0.00052067041015625, 2.984375) (0.0005179849853515625, 2.986328125) (0.000515127685546875, 2.98828125) (0.00051209765625, 2.990234375) (0.0005088951110839843, 2.9921875) (0.0005055213012695312, 2.994140625) (0.0005019782104492187, 2.99609375) (0.0004982692260742188, 2.998046875) (0.0004943982238769531, 3.0) (0.0004903702392578125, 3.001953125) (0.0004861910400390625, 3.00390625) (0.00048186743164062496, 3.005859375) (0.0004774069213867187, 3.0078125) (0.00047281784057617187, 3.009765625) (0.00046810913085937496, 3.01171875) (0.00046329049682617183, 3.013671875) (0.00045837216186523435, 3.015625) (0.00045336495971679686, 3.017578125) (0.00044828015136718746, 3.01953125) (0.0004431294250488281, 3.021484375) (0.000437924560546875, 3.0234375) (0.00043267767333984375, 3.025390625) (0.0004274007568359375, 3.02734375) (0.00042210592651367187, 3.029296875) (0.00041680505371093746, 3.03125) (0.0004115098876953125, 3.033203125) (0.0004062315979003906, 3.03515625) (0.0004009809265136719, 3.037109375) (0.00039576794433593746, 3.0390625) (0.000390602294921875, 3.041015625) (0.0003854928894042969, 3.04296875) (0.00038044766235351563, 3.044921875) (0.00037547360229492186, 3.046875) (0.0003705769348144531, 3.048828125) (0.00036576290893554684, 3.05078125) (0.00036103588867187497, 3.052734375) (0.00035639910888671873, 3.0546875) (0.00035185470581054686, 3.056640625) (0.00034740365600585937, 3.05859375) (0.0003430458984375, 3.060546875) (0.00033878027343749997, 3.0625) (0.000334604736328125, 3.064453125) (0.00033051620483398435, 3.06640625) (0.00032651046752929687, 3.068359375) (0.0003225823974609375, 3.0703125) (0.00031872613525390624, 3.072265625) (0.0003149348754882812, 3.07421875) (0.00031120126342773437, 3.076171875) (0.00030751715087890626, 3.078125) (0.0003038738098144531, 3.080078125) (0.0003002615966796875, 3.08203125) (0.00029667062377929684, 3.083984375) (0.00029309063720703125, 3.0859375) (0.0002895110473632812, 3.087890625) (0.0002859210205078125, 3.08984375) (0.0002823095092773437, 3.091796875) (0.00027866552734375, 3.09375) (0.0002749779357910156, 3.095703125) (0.00027123602294921875, 3.09765625) (0.0002674292602539062, 3.099609375) (0.0002635473937988281, 3.1015625) (0.00025958035278320313, 3.103515625) (0.00025551849365234376, 3.10546875) (0.0002513528442382812, 3.107421875) (0.00024707501220703126, 3.109375) (0.00024267716979980468, 3.111328125) (0.00023815219116210936, 3.11328125) (0.00023349345397949216, 3.115234375) (0.00022869520568847656, 3.1171875) (0.00022375302124023435, 3.119140625) (0.00021866329956054688, 3.12109375) (0.0002134228057861328, 3.123046875) (0.00020802947998046874, 3.125) (0.00020248239135742187, 3.126953125) (0.0001967818603515625, 3.12890625) (0.00019093045043945311, 3.130859375) (0.00018493173217773437, 3.1328125) (0.00017878945922851562, 3.134765625) (0.00017250881958007813, 3.13671875) (0.00016609667968749998, 3.138671875) (0.00015956065368652342, 3.140625) (0.00015291000366210938, 3.142578125) (0.00014615435791015625, 3.14453125) (0.00013930198669433592, 3.146484375) (0.000132362548828125, 3.1484375) (0.00012534732818603514, 3.150390625) (0.00011826917266845702, 3.15234375) (0.00011114493560791015, 3.154296875) (0.00010399182128906249, 3.15625) (9.682575988769531e-05, 3.158203125) (8.966277313232422e-05, 3.16015625) (8.25166015625e-05, 3.162109375) (7.540161895751953e-05, 3.1640625) (6.833625793457031e-05, 3.166015625) (6.133697509765625e-05, 3.16796875) (5.4415966033935544e-05, 3.169921875) (4.7587196350097656e-05, 3.171875) (4.086468124389648e-05, 3.173828125) (3.4267570495605464e-05, 3.17578125) (2.78270149230957e-05, 3.177734375) (2.1571441650390624e-05, 3.1796875) (1.5523056983947753e-05, 3.181640625) (9.700963020324706e-06, 3.18359375) (4.115345478057861e-06, 3.185546875) (-1.2241511344909668e-06, 3.1875) (-6.3033180236816406e-06, 3.189453125) (-1.1110815048217772e-05, 3.19140625) (-1.5635175704956053e-05, 3.193359375) (-1.9867761611938475e-05, 3.1953125) (-2.3811756134033204e-05, 3.197265625) (-2.746696090698242e-05, 3.19921875) (-3.082681083679199e-05, 3.201171875) (-3.389418792724609e-05, 3.203125) (-3.6678276062011714e-05, 3.205078125) (-3.92156982421875e-05, 3.20703125) (-4.1581722259521485e-05, 3.208984375) (-4.3847522735595704e-05, 3.2109375) (-4.607537841796875e-05, 3.212890625) (-4.831241607666015e-05, 3.21484375) (-5.056977844238281e-05, 3.216796875) (-5.287928009033203e-05, 3.21875) (-5.5297477722167966e-05, 3.220703125) (-5.785715866088867e-05, 3.22265625) (-6.061579132080078e-05, 3.224609375) (-6.362396240234374e-05, 3.2265625) (-6.687260437011719e-05, 3.228515625) (-7.04376220703125e-05, 3.23046875) (-7.444233703613281e-05, 3.232421875) (-7.885160827636719e-05, 3.234375) (-8.356387329101562e-05, 3.236328125) (-8.835109710693359e-05, 3.23828125) (-9.271687316894531e-05, 3.240234375) (-9.624068450927734e-05, 3.2421875) (-9.860549163818358e-05, 3.244140625) (-9.93275909423828e-05, 3.24609375) (-9.811788940429687e-05, 3.248046875) (-9.512162780761719e-05, 3.25) (-9.065170288085937e-05, 3.251953125) (-8.545264434814452e-05, 3.25390625) (-8.070901489257813e-05, 3.255859375) (-7.758804321289063e-05, 3.2578125) (-7.726985931396484e-05, 3.259765625) (-8.090519714355468e-05, 3.26171875) (-8.909509277343749e-05, 3.263671875) (-0.00010047074890136718, 3.265625) (-0.00011318173217773438, 3.267578125) (-0.00012629261016845704, 3.26953125) (-0.00013735293579101562, 3.271484375) (-0.00014600054931640624, 3.2734375) (-0.00015155462646484374, 3.275390625) (-0.00014728851318359374, 3.27734375) (-0.00013025448608398437, 3.279296875) (-9.931240844726562e-05, 3.28125) (-5.2884067535400385e-05, 3.283203125) (1.1168651580810546e-06, 3.28515625) (5.856856536865234e-05, 3.287109375) (0.00012272512054443358, 3.2890625) (0.0001916412353515625, 3.291015625) (0.00026419522094726564, 3.29296875) (0.00033281225585937496, 3.294921875) (0.000374641845703125, 3.296875) (0.0003700874938964844, 3.298828125) (0.00030919482421875, 3.30078125) (0.00019107312011718748, 3.302734375) (3.463457489013672e-05, 3.3046875) (-0.0001329349365234375, 3.306640625) (-0.00029006427001953124, 3.30859375) (-0.00041680633544921873, 3.310546875) (-0.0005039647827148438, 3.3125) (-0.0005547114868164062, 3.314453125) (-0.0005742864990234375, 3.31640625) (-0.000574076904296875, 3.318359375) (-0.000565993896484375, 3.3203125) (-0.00055407177734375, 3.322265625) (-0.000539725341796875, 3.32421875) (-0.0005205278930664062, 3.326171875) (-0.0004923898010253906, 3.328125) (-0.00045686383056640624, 3.330078125) (-0.00041767977905273433, 3.33203125) (-0.00037850131225585935, 3.333984375) (-0.0003435689697265625, 3.3359375) (-0.00031414743041992184, 3.337890625) (-0.00028977191162109375, 3.33984375) (-0.0002707090454101562, 3.341796875) (-0.0002563187255859375, 3.34375) (-0.00024524699401855466, 3.345703125) (-0.0002363178253173828, 3.34765625) (-0.00022807708740234375, 3.349609375) (-0.0002189941711425781, 3.3515625) (-0.00020845138549804686, 3.353515625) (-0.00019610162353515625, 3.35546875) (-0.00018117031860351561, 3.357421875) (-0.00016338761901855468, 3.359375) (-0.0001430369873046875, 3.361328125) (-0.00012054888916015624, 3.36328125) (-9.6798583984375e-05, 3.365234375) (-7.286087036132812e-05, 3.3671875) (-4.921464157104492e-05, 3.369140625) (-2.6098333358764648e-05, 3.37109375) (-3.893753051757812e-06, 3.373046875) (1.7301685333251953e-05, 3.375) (3.75223503112793e-05, 3.376953125) (5.681336593627929e-05, 3.37890625) (7.553601837158202e-05, 3.380859375) (9.418246459960937e-05, 3.3828125) (0.00011297642517089843, 3.384765625) (0.00013201634216308594, 3.38671875) (0.00015136016845703124, 3.388671875) (0.00017091046142578124, 3.390625) (0.0001905978088378906, 3.392578125) (0.00021037789916992188, 3.39453125) (0.00023009579467773435, 3.396484375) (0.00024960638427734376, 3.3984375) (0.00026884616088867185, 3.400390625) (0.00028777499389648435, 3.40234375) (0.00030638546752929685, 3.404296875) (0.00032468368530273435, 3.40625) (0.00034259991455078126, 3.408203125) (0.0003600943908691406, 3.41015625) (0.00037720654296875, 3.412109375) (0.0003938768920898437, 3.4140625) (0.00040993737792968747, 3.416015625) (0.0004250994873046875, 3.41796875) (0.0004390274658203125, 3.419921875) (0.0004515908508300781, 3.421875) (0.00046295028686523437, 3.423828125) (0.0004733262329101562, 3.42578125) (0.00048275527954101563, 3.427734375) (0.0004913181762695312, 3.4296875) (0.0004992533569335938, 3.431640625) (0.0005070835266113281, 3.43359375) (0.0005155601196289063, 3.435546875) (0.0005250689086914063, 3.4375) (0.0005354159545898437, 3.439453125) (0.0005462232666015625, 3.44140625) (0.0005574171142578125, 3.443359375) (0.000569034423828125, 3.4453125) (0.000581101806640625, 3.447265625) (0.0005933947143554687, 3.44921875) (0.0006052418212890624, 3.451171875) (0.00061634716796875, 3.453125) (0.0006270750122070312, 3.455078125) (0.0006378762207031249, 3.45703125) (0.0006489238281249999, 3.458984375) (0.0006603253173828124, 3.4609375) (0.00067208935546875, 3.462890625) (0.0006845318603515625, 3.46484375) (0.0006987515258789062, 3.466796875) (0.0007157593994140624, 3.46875) (0.00073640625, 3.470703125) (0.0007620667724609375, 3.47265625) (0.0007945938720703125, 3.474609375) (0.0008361341552734374, 3.4765625) (0.0008891503906249999, 3.478515625) (0.0009556458740234375, 3.48046875) (0.0010369018554687499, 3.482421875) (0.001134241455078125, 3.484375) (0.0012482264404296874, 3.486328125) (0.0013783195800781249, 3.48828125) (0.0015220788574218749, 3.490234375) (0.001674590087890625, 3.4921875) (0.0018315814208984375, 3.494140625) (0.0019895732421874998, 3.49609375) (0.002146192138671875, 3.498046875) (0.0023008369140625, 3.5) (0.002447864501953125, 3.501953125) (0.002577772216796875, 3.50390625) (0.002681934326171875, 3.505859375) (0.002751455078125, 3.5078125) (0.0027861865234375, 3.509765625) (0.0027943544921874997, 3.51171875) (0.002783430908203125, 3.513671875) (0.002762498046875, 3.515625) (0.0027363105468749998, 3.517578125) (0.002703537841796875, 3.51953125) (0.0026648408203124997, 3.521484375) (0.00262050634765625, 3.5234375) (0.0025709846191406247, 3.525390625) (0.00251900390625, 3.52734375) (0.0024655876464843747, 3.529296875) (0.00241019677734375, 3.53125) (0.0023523706054687497, 3.533203125) (0.00229097705078125, 3.53515625) (0.0022250009765624997, 3.537109375) (0.002154714111328125, 3.5390625) (0.0020808930664062497, 3.541015625) (0.0020044500732421876, 3.54296875) (0.0019266845703124998, 3.544921875) (0.001848895751953125, 3.546875) (0.0017722257080078124, 3.548828125) (0.0016979362792968748, 3.55078125) (0.0016272580566406248, 3.552734375) (0.0015609687499999999, 3.5546875) (0.0014995579833984374, 3.556640625) (0.001443328125, 3.55859375) (0.0013923417968749999, 3.560546875) (0.0013466619873046875, 3.5625) (0.0013063566894531249, 3.564453125) (0.0012713792724609375, 3.56640625) (0.001241622314453125, 3.568359375) (0.0012169678955078124, 3.5703125) (0.0011972762451171876, 3.572265625) (0.0011824000244140625, 3.57421875) (0.0011721829833984375, 3.576171875) (0.0011664049072265625, 3.578125) (0.00116478857421875, 3.580078125) (0.001167024658203125, 3.58203125) (0.0011727723388671874, 3.583984375) (0.0011816771240234375, 3.5859375) (0.0011933692626953124, 3.587890625) (0.001207451416015625, 3.58984375) (0.0012234942626953124, 3.591796875) (0.0012410379638671874, 3.59375) (0.0012596002197265625, 3.595703125) (0.00127867431640625, 3.59765625) (0.001297738525390625, 3.599609375) (0.00131625830078125, 3.6015625) (0.0013336770019531249, 3.603515625) (0.0013494354248046875, 3.60546875) (0.001362982177734375, 3.607421875) (0.0013737799072265624, 3.609375) (0.0013813223876953124, 3.611328125) (0.00138513818359375, 3.61328125) (0.001384794921875, 3.615234375) (0.0013799117431640623, 3.6171875) (0.001370167724609375, 3.619140625) (0.0013553087158203125, 3.62109375) (0.001335162841796875, 3.623046875) (0.001309639892578125, 3.625) (0.00127873193359375, 3.626953125) (0.00124252587890625, 3.62890625) (0.0012011937255859374, 3.630859375) (0.001154988525390625, 3.6328125) (0.001104255859375, 3.634765625) (0.0010494127197265624, 3.63671875) (0.0009909366455078126, 3.638671875) (0.0009293663940429687, 3.640625) (0.0008652761840820312, 3.642578125) (0.0007992625732421875, 3.64453125) (0.0007319448852539062, 3.646484375) (0.0006639407348632812, 3.6484375) (0.0005958573608398438, 3.650390625) (0.0005282901611328124, 3.65234375) (0.00046179705810546874, 3.654296875) (0.00039689343261718746, 3.65625) (0.0003340471801757812, 3.658203125) (0.0002736541748046875, 3.66015625) (0.00021604713439941404, 3.662109375) (0.0001615018615722656, 3.6640625) (0.0001102165069580078, 3.666015625) (6.231561279296874e-05, 3.66796875) (1.7855716705322265e-05, 3.669921875) (-2.318772506713867e-05, 3.671875) (-6.089390563964843e-05, 3.673828125) (-9.537552642822266e-05, 3.67578125) (-0.0001267981719970703, 3.677734375) (-0.00015536854553222656, 3.6796875) (-0.00018132902526855468, 3.681640625) (-0.00020496389770507812, 3.68359375) (-0.00022656944274902343, 3.685546875) (-0.0002464458312988281, 3.6875) (-0.00026489996337890624, 3.689453125) (-0.00028222930908203123, 3.69140625) (-0.0002987275390625, 3.693359375) (-0.0003146942443847656, 3.6953125) (-0.00033040789794921873, 3.697265625) (-0.0003461112060546875, 3.69921875) (-0.0003620191345214844, 3.701171875) (-0.00037830380249023434, 3.703125) (-0.00039511734008789063, 3.705078125) (-0.00041261871337890625, 3.70703125) (-0.0004309356994628906, 3.708984375) (-0.00045015435791015624, 3.7109375) (-0.00047032342529296873, 3.712890625) (-0.0004914506225585937, 3.71484375) (-0.0005135313110351562, 3.716796875) (-0.0005365570068359375, 3.71875) (-0.0005604948120117187, 3.720703125) (-0.0005852799072265625, 3.72265625) (-0.0006108165283203124, 3.724609375) (-0.0006369741821289063, 3.7265625) (-0.0006636141967773437, 3.728515625) (-0.0006906151123046875, 3.73046875) (-0.0007178505249023437, 3.732421875) (-0.0007451900024414062, 3.734375) (-0.000772487060546875, 3.736328125) (-0.0007995532836914062, 3.73828125) (-0.000826203125, 3.740234375) (-0.0008522799072265625, 3.7421875) (-0.0008776454467773437, 3.744140625) (-0.000902172119140625, 3.74609375) (-0.0009257217407226562, 3.748046875) (-0.0009481407470703125, 3.75) (-0.0009692932739257812, 3.751953125) (-0.0009890978393554688, 3.75390625) (-0.001007509765625, 3.755859375) (-0.001024513427734375, 3.7578125) (-0.001040101318359375, 3.759765625) (-0.0010542424316406249, 3.76171875) (-0.0010669291992187499, 3.763671875) (-0.00107819287109375, 3.765625) (-0.0010881029052734375, 3.767578125) (-0.0010967821044921874, 3.76953125) (-0.0011043709716796874, 3.771484375) (-0.001111, 3.7734375) (-0.0011168099365234374, 3.775390625) (-0.0011219786376953124, 3.77734375) (-0.00112671875, 3.779296875) (-0.0011312789306640624, 3.78125) (-0.00113590966796875, 3.783203125) (-0.00114081103515625, 3.78515625) (-0.001146168212890625, 3.787109375) (-0.0011521711425781249, 3.7890625) (-0.0011590252685546875, 3.791015625) (-0.001166981201171875, 3.79296875) (-0.0011762791748046873, 3.794921875) (-0.0011871195068359375, 3.796875) (-0.0011996755371093749, 3.798828125) (-0.00121409130859375, 3.80078125) (-0.0012304979248046874, 3.802734375) (-0.001249031982421875, 3.8046875) (-0.0012698059082031248, 3.806640625) (-0.001292865234375, 3.80859375) (-0.0013182167968749999, 3.810546875) (-0.0013458336181640625, 3.8125) (-0.0013756748046875, 3.814453125) (-0.001407737548828125, 3.81640625) (-0.00144200537109375, 3.818359375) (-0.0014784227294921874, 3.8203125) (-0.001516897705078125, 3.822265625) (-0.0015572802734375, 3.82421875) (-0.001599397705078125, 3.826171875) (-0.0016430864257812499, 3.828125) (-0.0016881728515625, 3.830078125) (-0.0017344604492187498, 3.83203125) (-0.00178173974609375, 3.833984375) (-0.00182977880859375, 3.8359375) (-0.0018783489990234375, 3.837890625) (-0.0019272758789062499, 3.83984375) (-0.0019763977050781248, 3.841796875) (-0.0020255524902343747, 3.84375) (-0.0020745771484375, 3.845703125) (-0.0021232731933593747, 3.84765625) (-0.002171450439453125, 3.849609375) (-0.002218959716796875, 3.8515625) (-0.00226567822265625, 3.853515625) (-0.00231151123046875, 3.85546875) (-0.0023563955078125, 3.857421875) (-0.002400279052734375, 3.859375) (-0.0024431328124999998, 3.861328125) (-0.0024849792480468747, 3.86328125) (-0.0025258625488281247, 3.865234375) (-0.00256584716796875, 3.8671875) (-0.00260501123046875, 3.869140625) (-0.00264340576171875, 3.87109375) (-0.0026810817871093747, 3.873046875) (-0.002718114013671875, 3.875) (-0.0027545883789062498, 3.876953125) (-0.0027906081542968747, 3.87890625) (-0.0028262802734374997, 3.880859375) (-0.00286168408203125, 3.8828125) (-0.0028968813476562497, 3.884765625) (-0.00293194482421875, 3.88671875) (-0.0029669267578124998, 3.888671875) (-0.003001858642578125, 3.890625) (-0.003036758056640625, 3.892578125) (-0.003071593505859375, 3.89453125) (-0.003106315673828125, 3.896484375) (-0.0031408740234375, 3.8984375) (-0.0031752060546875, 3.900390625) (-0.003209248779296875, 3.90234375) (-0.0032429374999999997, 3.904296875) (-0.0032761850585937497, 3.90625) (-0.0033088867187499997, 3.908203125) (-0.0033409509277343746, 3.91015625) (-0.0033722836914062498, 3.912109375) (-0.0034028007812499997, 3.9140625) (-0.0034324365234375, 3.916015625) (-0.0034610996093749997, 3.91796875) (-0.003488703125, 3.919921875) (-0.003515188232421875, 3.921875) (-0.00354050341796875, 3.923828125) (-0.003564628662109375, 3.92578125) (-0.00358756396484375, 3.927734375) (-0.00360929296875, 3.9296875) (-0.0036298051757812496, 3.931640625) (-0.0036491240234375, 3.93359375) (-0.00366728076171875, 3.935546875) (-0.003684340576171875, 3.9375) (-0.00370041064453125, 3.939453125) (-0.0037155673828125, 3.94140625) (-0.0037298906249999997, 3.943359375) (-0.0037434716796875, 3.9453125) (-0.003756373046875, 3.947265625) (-0.003768701904296875, 3.94921875) (-0.0037805949707031246, 3.951171875) (-0.00379215576171875, 3.953125) (-0.003803498291015625, 3.955078125) (-0.0038147126464843748, 3.95703125) (-0.0038258251953125, 3.958984375) (-0.00383693896484375, 3.9609375) (-0.0038482133789062498, 3.962890625) (-0.0038596435546874998, 3.96484375) (-0.003871108154296875, 3.966796875) (-0.0038822912597656248, 3.96875) (-0.0038926147460937497, 3.970703125) (-0.0039016052246093748, 3.97265625) (-0.003908924560546875, 3.974609375) (-0.00391409716796875, 3.9765625) (-0.0039166059570312495, 3.978515625) (-0.00391607568359375, 3.98046875) (-0.00391226025390625, 3.982421875) (-0.0039054833984375, 3.984375) (-0.0038966044921874997, 3.986328125) (-0.003886248779296875, 3.98828125) (-0.0038747836914062497, 3.990234375) (-0.00386236474609375, 3.9921875) (-0.0038489082031249997, 3.994140625) (-0.00383429833984375, 3.99609375) (-0.00381823291015625, 3.998046875) (-0.003799440185546875, 4.0) (-0.00377582080078125, 4.001953125) (-0.0037452839355468746, 4.00390625) (-0.00370573486328125, 4.005859375) (-0.0036557395019531248, 4.0078125) (-0.003594431884765625, 4.009765625) (-0.0035205156249999998, 4.01171875) (-0.0034326889648437497, 4.013671875) (-0.003330674560546875, 4.015625) (-0.0032149997558593747, 4.017578125) (-0.0030885798339843748, 4.01953125) (-0.002956975830078125, 4.021484375) (-0.00282442724609375, 4.0234375) (-0.00269464892578125, 4.025390625) (-0.00256698486328125, 4.02734375) (-0.002435850830078125, 4.029296875) (-0.002300882568359375, 4.03125) (-0.002166094970703125, 4.033203125) (-0.00204578759765625, 4.03515625) (-0.0019638006591796873, 4.037109375) (-0.001934385986328125, 4.0390625) (-0.001962056396484375, 4.041015625) (-0.0020357972412109373, 4.04296875) (-0.002127889404296875, 4.044921875) (-0.002215326171875, 4.046875) (-0.002279397705078125, 4.048828125) (-0.0023089453125, 4.05078125) (-0.0023075266113281247, 4.052734375) (-0.00227974853515625, 4.0546875) (-0.002232908203125, 4.056640625) (-0.0021768532714843748, 4.05859375) (-0.00211408740234375, 4.060546875) (-0.0020455010986328123, 4.0625) (-0.001970895263671875, 4.064453125) (-0.00188790283203125, 4.06640625) (-0.0017988854980468749, 4.068359375) (-0.001708543212890625, 4.0703125) (-0.001621109375, 4.072265625) (-0.001541259521484375, 4.07421875) (-0.001471305908203125, 4.076171875) (-0.0014116474609375, 4.078125) (-0.0013622308349609375, 4.080078125) (-0.00132182275390625, 4.08203125) (-0.0012884136962890624, 4.083984375) (-0.0012598492431640624, 4.0859375) (-0.0012338635253906249, 4.087890625) (-0.00120834814453125, 4.08984375) (-0.0011818337402343749, 4.091796875) (-0.0011531824951171875, 4.09375) (-0.0011217034912109375, 4.095703125) (-0.00108738134765625, 4.09765625) (-0.001050724609375, 4.099609375) (-0.001012614013671875, 4.1015625) (-0.0009741243896484375, 4.103515625) (-0.00093636083984375, 4.10546875) (-0.0009000340576171875, 4.107421875) (-0.0008655852050781249, 4.109375) (-0.0008332230224609374, 4.111328125) (-0.0008028426513671874, 4.11328125) (-0.0007742242431640625, 4.115234375) (-0.0007470352783203125, 4.1171875) (-0.0007208053588867187, 4.119140625) (-0.00069499560546875, 4.12109375) (-0.0006692268066406249, 4.123046875) (-0.0006432678833007813, 4.125) (-0.000616986328125, 4.126953125) (-0.0005903792724609375, 4.12890625) (-0.000563425048828125, 4.130859375) (-0.00053607177734375, 4.1328125) (-0.0005082971801757812, 4.134765625) (-0.00048009579467773436, 4.13671875) (-0.00045145333862304686, 4.138671875) (-0.0004223417358398437, 4.140625) (-0.0003927178955078125, 4.142578125) (-0.00036249322509765625, 4.14453125) (-0.00033157272338867186, 4.146484375) (-0.0002998912658691406, 4.1484375) (-0.00026739852905273436, 4.150390625) (-0.0002340751953125, 4.15234375) (-0.00019992030334472656, 4.154296875) (-0.00016491941833496094, 4.15625) (-0.00012905575561523438, 4.158203125) (-9.232356262207031e-05, 4.16015625) (-5.472912979125976e-05, 4.162109375) (-1.629554748535156e-05, 4.1640625) (2.293619155883789e-05, 4.166015625) (6.293511199951172e-05, 4.16796875) (0.00010368418884277343, 4.169921875) (0.00014514703369140623, 4.171875) (0.00018727676391601562, 4.173828125) (0.0002299959259033203, 4.17578125) (0.00027318634033203124, 4.177734375) (0.00031673846435546874, 4.1796875) (0.00036054541015625, 4.181640625) (0.0004045018310546875, 4.18359375) (0.0004485247802734375, 4.185546875) (0.0004925306396484374, 4.1875) (0.0005364346923828125, 4.189453125) (0.0005801692504882812, 4.19140625) (0.0006236690063476562, 4.193359375) (0.0006668665161132812, 4.1953125) (0.0007097052001953125, 4.197265625) (0.0007521119384765625, 4.19921875) (0.0007939927978515625, 4.201171875) (0.0008352682495117187, 4.203125) (0.0008758571166992187, 4.205078125) (0.0009156967773437499, 4.20703125) (0.0009547719726562499, 4.208984375) (0.0009930784912109375, 4.2109375) (0.001030632080078125, 4.212890625) (0.001067470947265625, 4.21484375) (0.0011036156005859374, 4.216796875) (0.00113908447265625, 4.21875) (0.0011738994140625, 4.220703125) (0.0012080731201171875, 4.22265625) (0.0012416308593749998, 4.224609375) (0.001274605224609375, 4.2265625) (0.001307017333984375, 4.228515625) (0.0013389029541015624, 4.23046875) (0.0013703248291015624, 4.232421875) (0.001401360595703125, 4.234375) (0.0014321181640625, 4.236328125) (0.0014627069091796875, 4.23828125) (0.00149319189453125, 4.240234375) (0.0015236109619140624, 4.2421875) (0.00155396875, 4.244140625) (0.001584241943359375, 4.24609375) (0.0016144134521484375, 4.248046875) (0.00164445068359375, 4.25) (0.0016742990722656249, 4.251953125) (0.0017038920898437499, 4.25390625) (0.001733142822265625, 4.255859375) (0.0017619716796874998, 4.2578125) (0.0017903143310546875, 4.259765625) (0.0018180952148437498, 4.26171875) (0.001845205810546875, 4.263671875) (0.0018714957275390623, 4.265625) (0.001896764892578125, 4.267578125) (0.001920796875, 4.26953125) (0.001943404541015625, 4.271484375) (0.001964417236328125, 4.2734375) (0.0019836827392578126, 4.275390625) (0.0020010603027343747, 4.27734375) (0.0020164095458984374, 4.279296875) (0.0020296309814453123, 4.28125) (0.002040664306640625, 4.283203125) (0.002049474853515625, 4.28515625) (0.0020560422363281247, 4.287109375) (0.00206032080078125, 4.2890625) (0.002062255859375, 4.291015625) (0.0020618115234374997, 4.29296875) (0.002058994384765625, 4.294921875) (0.002053859130859375, 4.296875) (0.0020465086669921874, 4.298828125) (0.0020370712890624997, 4.30078125) (0.0020256787109374998, 4.302734375) (0.0020124881591796874, 4.3046875) (0.0019976802978515624, 4.306640625) (0.001981455322265625, 4.30859375) (0.00196402490234375, 4.310546875) (0.00194556689453125, 4.3125) (0.0019262391357421874, 4.314453125) (0.0019061983642578125, 4.31640625) (0.0018856207275390624, 4.318359375) (0.0018647310791015624, 4.3203125) (0.00184377197265625, 4.322265625) (0.0018229725341796874, 4.32421875) (0.001802539794921875, 4.326171875) (0.00178266552734375, 4.328125) (0.0017635263671874999, 4.330078125) (0.0017452908935546875, 4.33203125) (0.0017281113281249999, 4.333984375) (0.0017120875244140625, 4.3359375) (0.00169727978515625, 4.337890625) (0.001683720703125, 4.33984375) (0.0016714293212890625, 4.341796875) (0.00166043505859375, 4.34375) (0.0016507520751953123, 4.345703125) (0.0016423647460937498, 4.34765625) (0.0016352110595703124, 4.349609375) (0.0016291723632812498, 4.3515625) (0.001624099365234375, 4.353515625) (0.0016198358154296873, 4.35546875) (0.00161621044921875, 4.357421875) (0.0016130257568359374, 4.359375) (0.0016100611572265624, 4.361328125) (0.00160707275390625, 4.36328125) (0.0016038164062499999, 4.365234375) (0.001600084716796875, 4.3671875) (0.0015956883544921874, 4.369140625) (0.0015904439697265625, 4.37109375) (0.0015841663818359374, 4.373046875) (0.001576670166015625, 4.375) (0.001567796630859375, 4.376953125) (0.0015574240722656249, 4.37890625) (0.001545467041015625, 4.380859375) (0.0015318737792968749, 4.3828125) (0.001516615234375, 4.384765625) (0.00149967236328125, 4.38671875) (0.00148105322265625, 4.388671875) (0.0014607999267578125, 4.390625) (0.00143897802734375, 4.392578125) (0.001415688720703125, 4.39453125) (0.001391047119140625, 4.396484375) (0.001365153076171875, 4.3984375) (0.00133811279296875, 4.400390625) (0.0013100440673828124, 4.40234375) (0.0012810692138671875, 4.404296875) (0.00125131103515625, 4.40625) (0.0012208699951171875, 4.408203125) (0.0011898106689453125, 4.41015625) (0.0011581817626953124, 4.412109375) (0.0011260283203124999, 4.4140625) (0.0010933900146484375, 4.416015625) (0.00106031298828125, 4.41796875) (0.00102683447265625, 4.419921875) (0.0009929774780273438, 4.421875) (0.000958766357421875, 4.423828125) (0.0009242142333984374, 4.42578125) (0.0008893325805664062, 4.427734375) (0.0008541466674804688, 4.4296875) (0.0008186800537109375, 4.431640625) (0.0007829473876953125, 4.43359375) (0.00074696923828125, 4.435546875) (0.0007107794189453125, 4.4375) (0.00067443798828125, 4.439453125) (0.0006380530395507812, 4.44140625) (0.0006017522583007813, 4.443359375) (0.0005656599121093749, 4.4453125) (0.000529904541015625, 4.447265625) (0.0004946074523925781, 4.44921875) (0.00045988897705078125, 4.451171875) (0.0004258776550292969, 4.453125) (0.00039269442749023436, 4.455078125) (0.00036044000244140625, 4.45703125) (0.00032919830322265624, 4.458984375) (0.0002990381469726562, 4.4609375) (0.0002700189208984375, 4.462890625) (0.00024220936584472654, 4.46484375) (0.00021567178344726563, 4.466796875) (0.00019043875122070312, 4.46875) (0.00016650736999511718, 4.470703125) (0.00014382229614257812, 4.47265625) (0.00012229721069335938, 4.474609375) (0.00010184252166748046, 4.4765625) (8.2357177734375e-05, 4.478515625) (6.372456741333008e-05, 4.48046875) (4.581616973876953e-05, 4.482421875) (2.8481807708740234e-05, 4.484375) (1.1562049865722656e-05, 4.486328125) (-5.076291561126709e-06, 4.48828125) (-2.1552690505981444e-05, 4.490234375) (-3.798939895629883e-05, 4.4921875) (-5.450966644287109e-05, 4.494140625) (-7.12598648071289e-05, 4.49609375) (-8.83949737548828e-05, 4.498046875) (-0.00010604186248779296, 4.5) (-0.0001242958755493164, 4.501953125) (-0.0001432201385498047, 4.50390625) (-0.00016286070251464842, 4.505859375) (-0.00018326663208007813, 4.5078125) (-0.00020448117065429686, 4.509765625) (-0.00022652638244628905, 4.51171875) (-0.00024940711975097654, 4.513671875) (-0.0002731094665527344, 4.515625) (-0.00029760992431640624, 4.517578125) (-0.0003229021606445312, 4.51953125) (-0.0003489781799316406, 4.521484375) (-0.00037581063842773437, 4.5234375) (-0.00040335491943359374, 4.525390625) (-0.00043153924560546873, 4.52734375) (-0.00046028265380859375, 4.529296875) (-0.0004895208129882812, 4.53125) (-0.0005192087402343749, 4.533203125) (-0.0005493170776367187, 4.53515625) (-0.0005798095092773437, 4.537109375) (-0.00061063525390625, 4.5390625) (-0.000641738037109375, 4.541015625) (-0.000673056640625, 4.54296875) (-0.0007045239868164062, 4.544921875) (-0.0007360657958984375, 4.546875) (-0.0007675877075195313, 4.548828125) (-0.0007989734497070312, 4.55078125) (-0.0008301102294921874, 4.552734375) (-0.0008608930053710937, 4.5546875) (-0.0008912236328125, 4.556640625) (-0.0009210115966796874, 4.55859375) (-0.0009501497802734375, 4.560546875) (-0.0009785133666992186, 4.5625) (-0.0010059610595703125, 4.564453125) (-0.0010323240966796875, 4.56640625) (-0.001057435302734375, 4.568359375) (-0.00108113232421875, 4.5703125) (-0.001103249755859375, 4.572265625) (-0.00112364501953125, 4.57421875) (-0.0011422017822265624, 4.576171875) (-0.0011588209228515624, 4.578125) (-0.0011734396972656249, 4.580078125) (-0.0011860267333984374, 4.58203125) (-0.0011965546875, 4.583984375) (-0.0012050096435546873, 4.5859375) (-0.0012113968505859374, 4.587890625) (-0.001215729736328125, 4.58984375) (-0.001218053466796875, 4.591796875) (-0.001218436279296875, 4.59375) (-0.0012169547119140625, 4.595703125) (-0.001213720947265625, 4.59765625) (-0.0012088654785156249, 4.599609375) (-0.0012025283203124998, 4.6015625) (-0.0011948671875, 4.603515625) (-0.0011860244140625, 4.60546875) (-0.0011761188964843749, 4.607421875) (-0.0011652672119140625, 4.609375) (-0.001153568115234375, 4.611328125) (-0.0011410928955078125, 4.61328125) (-0.0011279019775390624, 4.615234375) (-0.0011140333251953125, 4.6171875) (-0.001099490234375, 4.619140625) (-0.0010842664794921875, 4.62109375) (-0.001068336669921875, 4.623046875) (-0.0010516577148437498, 4.625) (-0.0010341976318359375, 4.626953125) (-0.0010159102783203124, 4.62890625) (-0.0009967330932617187, 4.630859375) (-0.0009765993041992186, 4.6328125) (-0.0009554322509765624, 4.634765625) (-0.0009331641845703125, 4.63671875) (-0.0009097421264648438, 4.638671875) (-0.0008851085815429687, 4.640625) (-0.00085920166015625, 4.642578125) (-0.0008319758300781249, 4.64453125) (-0.0008034082031249999, 4.646484375) (-0.0007735059204101563, 4.6484375) (-0.0007423206176757812, 4.650390625) (-0.000709922119140625, 4.65234375) (-0.0006763934326171875, 4.654296875) (-0.0006418366699218749, 4.65625) (-0.0006063435668945312, 4.658203125) (-0.0005700106811523438, 4.66015625) (-0.0005329498291015625, 4.662109375) (-0.0004952765808105468, 4.6640625) (-0.00045711163330078124, 4.666015625) (-0.0004185767822265625, 4.66796875) (-0.0003797947082519531, 4.669921875) (-0.00034089926147460936, 4.671875) (-0.00030204776000976563, 4.673828125) (-0.0002634050903320312, 4.67578125) (-0.0002251204376220703, 4.677734375) (-0.00018732131958007812, 4.6796875) (-0.00015010211181640625, 4.681640625) (-0.00011354232788085936, 4.68359375) (-7.771391296386718e-05, 4.685546875) (-4.267733383178711e-05, 4.6875) (-8.496579170227051e-06, 4.689453125) (2.4777606964111326e-05, 4.69140625) (5.711103439331054e-05, 4.693359375) (8.847723388671875e-05, 4.6953125) (0.0001188587646484375, 4.697265625) (0.00014824305725097655, 4.69921875) (0.00017662844848632812, 4.701171875) (0.0002040289306640625, 4.703125) (0.00023048542785644531, 4.705078125) (0.0002560606689453125, 4.70703125) (0.000280818115234375, 4.708984375) (0.00030481533813476563, 4.7109375) (0.0003280997619628906, 4.712890625) (0.00035072027587890626, 4.71484375) (0.0003727293090820312, 4.716796875) (0.00039418551635742185, 4.71875) (0.0004151564331054687, 4.720703125) (0.0004356949462890625, 4.72265625) (0.00045584466552734375, 4.724609375) (0.00047564483642578123, 4.7265625) (0.000495126953125, 4.728515625) (0.00051432373046875, 4.73046875) (0.0005332637329101563, 4.732421875) (0.0005519681396484375, 4.734375) (0.00057044775390625, 4.736328125) (0.0005887039184570312, 4.73828125) (0.000606735595703125, 4.740234375) (0.0006245477905273437, 4.7421875) (0.0006421530151367187, 4.744140625) (0.0006595628662109374, 4.74609375) (0.0006767910156249999, 4.748046875) (0.0006938416748046874, 4.75) (0.0007107061157226563, 4.751953125) (0.0007273840942382812, 4.75390625) (0.00074388037109375, 4.755859375) (0.00076020458984375, 4.7578125) (0.0007763734130859374, 4.759765625) (0.0007924012451171875, 4.76171875) (0.0008083006591796875, 4.763671875) (0.0008240836791992188, 4.765625) (0.0008397672729492187, 4.767578125) (0.0008553729858398438, 4.76953125) (0.0008709269409179687, 4.771484375) (0.0008864463500976562, 4.7734375) (0.0009019335327148438, 4.775390625) (0.0009173805541992187, 4.77734375) (0.0009327667846679688, 4.779296875) (0.000948079345703125, 4.78125) (0.0009633223876953124, 4.783203125) (0.000978501220703125, 4.78515625) (0.000993620910644531, 4.787109375) (0.00100868603515625, 4.7890625) (0.001023705322265625, 4.791015625) (0.0010386978759765624, 4.79296875) (0.0010536971435546874, 4.794921875) (0.0010687435302734374, 4.796875) (0.001083865966796875, 4.798828125) (0.0010990803222656249, 4.80078125) (0.001114392822265625, 4.802734375) (0.0011298214111328125, 4.8046875) (0.0011454027099609375, 4.806640625) (0.001161189453125, 4.80859375) (0.0011772493896484374, 4.810546875) (0.00119364208984375, 4.8125) (0.0012104132080078124, 4.814453125) (0.001227607421875, 4.81640625) (0.0012452655029296874, 4.818359375) (0.0012634140625, 4.8203125) (0.001282052490234375, 4.822265625) (0.0013011491699218749, 4.82421875) (0.001320640380859375, 4.826171875) (0.001340446044921875, 4.828125) (0.0013604970703125, 4.830078125) (0.00138073583984375, 4.83203125) (0.00140110302734375, 4.833984375) (0.0014215225830078125, 4.8359375) (0.0014418972167968749, 4.837890625) (0.0014621138916015625, 4.83984375) (0.0014820451660156248, 4.841796875) (0.001501563232421875, 4.84375) (0.0015205347900390624, 4.845703125) (0.0015388096923828125, 4.84765625) (0.001556238037109375, 4.849609375) (0.001572696044921875, 4.8515625) (0.001588093994140625, 4.853515625) (0.001602381591796875, 4.85546875) (0.001615540771484375, 4.857421875) (0.0016275672607421875, 4.859375) (0.0016384523925781248, 4.861328125) (0.001648191162109375, 4.86328125) (0.0016567907714843749, 4.865234375) (0.0016642763671875, 4.8671875) (0.0016706872558593748, 4.869140625) (0.001676070068359375, 4.87109375) (0.0016804835205078124, 4.873046875) (0.0016839963378906249, 4.875) (0.0016866978759765624, 4.876953125) (0.00168870947265625, 4.87890625) (0.00169015087890625, 4.880859375) (0.0016911184082031249, 4.8828125) (0.001691685791015625, 4.884765625) (0.001691902587890625, 4.88671875) (0.0016918074951171875, 4.888671875) (0.00169144677734375, 4.890625) (0.0016908648681640624, 4.892578125) (0.0016900974121093748, 4.89453125) (0.0016891710205078124, 4.896484375) (0.001688105224609375, 4.8984375) (0.001686919189453125, 4.900390625) (0.0016856406249999999, 4.90234375) (0.00168429052734375, 4.904296875) (0.001682880126953125, 4.90625) (0.0016814056396484375, 4.908203125) (0.0016798375244140625, 4.91015625) (0.0016781529541015623, 4.912109375) (0.001676349365234375, 4.9140625) (0.00167442578125, 4.916015625) (0.001672385498046875, 4.91796875) (0.0016702099609375, 4.919921875) (0.001667840087890625, 4.921875) (0.0016652156982421874, 4.923828125) (0.0016622799072265623, 4.92578125) (0.0016589858398437499, 4.927734375) (0.0016553099365234373, 4.9296875) (0.0016512045898437499, 4.931640625) (0.0016465893554687499, 4.93359375) (0.001641404052734375, 4.935546875) (0.0016355982666015625, 4.9375) (0.001629136474609375, 4.939453125) (0.0016220579833984374, 4.94140625) (0.0016143206787109375, 4.943359375) (0.0016057753906249998, 4.9453125) (0.00159642138671875, 4.947265625) (0.00158636474609375, 4.94921875) (0.0015758383789062499, 4.951171875) (0.0015653251953125, 4.953125) (0.00155522314453125, 4.955078125) (0.0015457362060546874, 4.95703125) (0.0015373134765625, 4.958984375) (0.0015305455322265624, 4.9609375) (0.0015256114501953125, 4.962890625) (0.0015224509277343748, 4.96484375) (0.0015205942382812499, 4.966796875) (0.0015189818115234374, 4.96875) (0.0015167655029296875, 4.970703125) (0.0015133900146484375, 4.97265625) (0.0015078568115234373, 4.974609375) (0.001498911865234375, 4.9765625) (0.001487317138671875, 4.978515625) (0.00147546875, 4.98046875) (0.0014656435546875, 4.982421875) (0.0014612188720703125, 4.984375) (0.001461382080078125, 4.986328125) (0.001460603759765625, 4.98828125) (0.0014585968017578124, 4.990234375) (0.0014573034667968749, 4.9921875) (0.0014629632568359374, 4.994140625) (0.001489731201171875, 4.99609375) (0.00154312744140625, 4.998046875) (0.001622241943359375, 5.0) (0.0017234613037109374, 5.001953125) (0.001833173095703125, 5.00390625) (0.001939372314453125, 5.005859375) (0.002030354736328125, 5.0078125) (0.0020905615234375, 5.009765625) (0.002107853515625, 5.01171875) (0.00207336865234375, 5.013671875) (0.0019860172119140623, 5.015625) (0.0018532652587890624, 5.017578125) (0.001689938720703125, 5.01953125) (0.0015162006835937498, 5.021484375) (0.001350669189453125, 5.0234375) (0.0012121009521484374, 5.025390625) (0.0011134326171875, 5.02734375) (0.00105590771484375, 5.029296875) (0.0010344700927734374, 5.03125) (0.0010356995849609375, 5.033203125) (0.00104489208984375, 5.03515625) (0.0010562940673828124, 5.037109375) (0.0010683391113281249, 5.0390625) (0.001083305419921875, 5.041015625) (0.001104603759765625, 5.04296875) (0.0011297718505859375, 5.044921875) (0.0011543006591796874, 5.046875) (0.0011744097900390623, 5.048828125) (0.00118627587890625, 5.05078125) (0.0011884708251953125, 5.052734375) (0.0011817340087890624, 5.0546875) (0.001167376708984375, 5.056640625) (0.0011477861328125, 5.05859375) (0.0011259724121093749, 5.060546875) (0.0011043770751953124, 5.0625) (0.001084400634765625, 5.064453125) (0.0010668941650390624, 5.06640625) (0.00105259130859375, 5.068359375) (0.001041736083984375, 5.0703125) (0.0010341383056640624, 5.072265625) (0.0010291403808593749, 5.07421875) (0.001025316650390625, 5.076171875) (0.0010211657104492186, 5.078125) (0.0010159215698242188, 5.080078125) (0.0010091990966796874, 5.08203125) (0.0010007247314453124, 5.083984375) (0.0009905146484375, 5.0859375) (0.0009786500244140625, 5.087890625) (0.0009653049316406249, 5.08984375) (0.000951042236328125, 5.091796875) (0.0009365372314453124, 5.09375) (0.0009221839599609375, 5.095703125) (0.0009082115478515624, 5.09765625) (0.0008947345581054687, 5.099609375) (0.000881733154296875, 5.1015625) (0.0008692539062499999, 5.103515625) (0.0008573808593749999, 5.10546875) (0.0008460938720703125, 5.107421875) (0.0008353257446289062, 5.109375) (0.0008250269775390625, 5.111328125) (0.0008151503295898438, 5.11328125) (0.0008056779174804687, 5.115234375) (0.0007966146240234375, 5.1171875) (0.0007879132690429687, 5.119140625) (0.0007794885253906249, 5.12109375) (0.0007712561645507812, 5.123046875) (0.0007631304321289062, 5.125) (0.000755044921875, 5.126953125) (0.0007469580078124999, 5.12890625) (0.0007388349609375, 5.130859375) (0.0007306447143554687, 5.1328125) (0.000722361572265625, 5.134765625) (0.000713961669921875, 5.13671875) (0.0007054267578124999, 5.138671875) (0.0006967491455078125, 5.140625) (0.0006879271240234374, 5.142578125) (0.0006789610595703125, 5.14453125) (0.0006698545532226563, 5.146484375) (0.0006606153564453124, 5.1484375) (0.0006512626953125, 5.150390625) (0.0006418280029296875, 5.15234375) (0.0006323426513671874, 5.154296875) (0.000622834716796875, 5.15625) (0.0006133258056640624, 5.158203125) (0.000603830322265625, 5.16015625) (0.0005943599243164062, 5.162109375) (0.0005849248046875, 5.1640625) (0.0005755324096679687, 5.166015625) (0.0005661872558593749, 5.16796875) (0.0005568944091796875, 5.169921875) (0.000547658935546875, 5.171875) (0.0005384865112304687, 5.173828125) (0.0005293848876953125, 5.17578125) (0.0005203607177734375, 5.177734375) (0.0005114194335937499, 5.1796875) (0.0005025648193359375, 5.181640625) (0.0004937982788085938, 5.18359375) (0.0004851212463378906, 5.185546875) (0.0004765357666015625, 5.1875) (0.0004680443115234375, 5.189453125) (0.0004596498413085937, 5.19140625) (0.00045135504150390623, 5.193359375) (0.0004431627502441406, 5.1953125) (0.0004350760803222656, 5.197265625) (0.0004270989990234375, 5.19921875) (0.0004192342529296875, 5.201171875) (0.0004114830322265625, 5.203125) (0.00040384552001953124, 5.205078125) (0.00039632034301757813, 5.20703125) (0.0003889055480957031, 5.208984375) (0.0003815986938476562, 5.2109375) (0.0003743961181640625, 5.212890625) (0.000367293212890625, 5.21484375) (0.0003602849426269531, 5.216796875) (0.00035336590576171874, 5.21875) (0.00034653024291992187, 5.220703125) (0.00033977203369140623, 5.22265625) (0.0003330845336914062, 5.224609375) (0.000326460693359375, 5.2265625) (0.00031989306640625, 5.228515625) (0.00031337408447265624, 5.23046875) (0.00030689605712890623, 5.232421875) (0.0003004510498046875, 5.234375) (0.0002940310363769531, 5.236328125) (0.00028762802124023435, 5.23828125) (0.00028123388671875, 5.240234375) (0.00027484078979492184, 5.2421875) (0.0002684409484863281, 5.244140625) (0.0002620267639160156, 5.24609375) (0.0002555908203125, 5.248046875) (0.00024912582397460935, 5.25) (0.0002426246643066406, 5.251953125) (0.0002360805969238281, 5.25390625) (0.00022948712158203123, 5.255859375) (0.00022283795166015623, 5.2578125) (0.0002161270751953125, 5.259765625) (0.00020934864807128906, 5.26171875) (0.00020249728393554686, 5.263671875) (0.00019556803894042968, 5.265625) (0.00018855627441406248, 5.267578125) (0.00018145793151855467, 5.26953125) (0.00017426931762695312, 5.271484375) (0.00016698728942871093, 5.2734375) (0.00015960919189453125, 5.275390625) (0.00015213298034667968, 5.27734375) (0.0001445570068359375, 5.279296875) (0.0001368800048828125, 5.28125) (0.0001291011505126953, 5.283203125) (0.00012122000122070313, 5.28515625) (0.00011323661041259765, 5.287109375) (0.00010515148162841796, 5.2890625) (9.696548461914062e-05, 5.291015625) (8.867988586425781e-05, 5.29296875) (8.029640197753906e-05, 5.294921875) (7.181713104248046e-05, 5.296875) (6.324461364746094e-05, 5.298828125) (5.458173370361328e-05, 5.30078125) (4.583172607421875e-05, 5.302734375) (3.6998180389404295e-05, 5.3046875) (2.8084999084472655e-05, 5.306640625) (1.9096446990966794e-05, 5.30859375) (1.003715991973877e-05, 5.310546875) (9.121475219726562e-07, 5.3125) (-8.273223876953124e-06, 5.314453125) (-1.751321983337402e-05, 5.31640625) (-2.6801719665527342e-05, 5.318359375) (-3.613224792480469e-05, 5.3203125) (-4.549796295166016e-05, 5.322265625) (-5.48917007446289e-05, 5.32421875) (-6.430601501464844e-05, 5.326171875) (-7.373317718505858e-05, 5.328125) (-8.316525268554686e-05, 5.330078125) (-9.259407043457031e-05, 5.33203125) (-0.00010201129150390624, 5.333984375) (-0.00011140836334228515, 5.3359375) (-0.0001207767105102539, 5.337890625) (-0.00013010763549804687, 5.33984375) (-0.00013939239501953126, 5.341796875) (-0.00014862225341796874, 5.34375) (-0.00015778854370117188, 5.345703125) (-0.00016688270568847655, 5.34765625) (-0.00017589634704589843, 5.349609375) (-0.00018482125854492188, 5.3515625) (-0.00019364950561523436, 5.353515625) (-0.00020237344360351562, 5.35546875) (-0.00021098570251464844, 5.357421875) (-0.00021947930908203123, 5.359375) (-0.00022784768676757812, 5.361328125) (-0.0002360846710205078, 5.36328125) (-0.00024418457031249996, 5.365234375) (-0.0002521421966552734, 5.3671875) (-0.000259952880859375, 5.369140625) (-0.000267612548828125, 5.37109375) (-0.00027511785888671876, 5.373046875) (-0.0002824659423828125, 5.375) (-0.0002896548156738281, 5.376953125) (-0.0002966831359863281, 5.37890625) (-0.0003035502014160156, 5.380859375) (-0.0003102561645507812, 5.3828125) (-0.00031680187988281246, 5.384765625) (-0.00032318890380859374, 5.38671875) (-0.0003294196166992187, 5.388671875) (-0.00033549700927734373, 5.390625) (-0.0003414248657226562, 5.392578125) (-0.0003472076721191406, 5.39453125) (-0.00035285064697265626, 5.396484375) (-0.00035835955810546873, 5.3984375) (-0.00036374096679687496, 5.400390625) (-0.0003690018310546875, 5.40234375) (-0.000374149658203125, 5.404296875) (-0.00037919244384765626, 5.40625) (-0.0003841384582519531, 5.408203125) (-0.000388996337890625, 5.41015625) (-0.0003937747802734375, 5.412109375) (-0.00039848278808593746, 5.4140625) (-0.00040312936401367186, 5.416015625) (-0.00040772360229492186, 5.41796875) (-0.0004122745056152344, 5.419921875) (-0.00041679095458984375, 5.421875) (-0.00042128173828124996, 5.423828125) (-0.00042575537109374996, 5.42578125) (-0.00043021994018554684, 5.427734375) (-0.0004346833190917969, 5.4296875) (-0.0004391526794433594, 5.431640625) (-0.0004436348266601562, 5.43359375) (-0.000448135986328125, 5.435546875) (-0.0004526617431640625, 5.4375) (-0.0004572168273925781, 5.439453125) (-0.00046180548095703123, 5.44140625) (-0.00046643099975585936, 5.443359375) (-0.00047109619140624996, 5.4453125) (-0.00047580279541015625, 5.447265625) (-0.00048055187988281246, 5.44921875) (-0.00048534362792968747, 5.451171875) (-0.0004901773681640624, 5.453125) (-0.0004950516662597656, 5.455078125) (-0.0004999642028808593, 5.45703125) (-0.0005049117736816406, 5.458984375) (-0.0005098904418945312, 5.4609375) (-0.0005148956298828125, 5.462890625) (-0.000519921875, 5.46484375) (-0.0005249633789062499, 5.466796875) (-0.000530013427734375, 5.46875) (-0.0005350654296874999, 5.470703125) (-0.0005401118774414062, 5.47265625) (-0.0005451451416015624, 5.474609375) (-0.0005501573486328125, 5.4765625) (-0.0005551404418945312, 5.478515625) (-0.0005600862426757813, 5.48046875) (-0.0005649865112304687, 5.482421875) (-0.0005698330078124999, 5.484375) (-0.00057461767578125, 5.486328125) (-0.0005793326416015625, 5.48828125) (-0.00058397021484375, 5.490234375) (-0.0005885231933593749, 5.4921875) (-0.0005929848022460937, 5.494140625) (-0.0005973487548828124, 5.49609375) (-0.0006016092529296875, 5.498046875) (-0.0006057610473632812, 5.5) (-0.0006097996826171874, 5.501953125) (-0.0006137213745117187, 5.50390625) (-0.00061752294921875, 5.505859375) (-0.0006212020263671875, 5.5078125) (-0.0006247571411132812, 5.509765625) (-0.0006281873779296874, 5.51171875) (-0.000631492919921875, 5.513671875) (-0.0006346748657226562, 5.515625) (-0.0006377349853515624, 5.517578125) (-0.0006406759033203125, 5.51953125) (-0.0006435012207031249, 5.521484375) (-0.000646215087890625, 5.5234375) (-0.0006488225708007812, 5.525390625) (-0.0006513292236328124, 5.52734375) (-0.0006537412109375, 5.529296875) (-0.0006560652465820312, 5.53125) (-0.000658308349609375, 5.533203125) (-0.0006604781494140624, 5.53515625) (-0.0006625822143554687, 5.537109375) (-0.0006646285400390625, 5.5390625) (-0.0006666253051757812, 5.541015625) (-0.0006685805664062499, 5.54296875) (-0.00067050244140625, 5.544921875) (-0.0006723989868164062, 5.546875) (-0.0006742780151367188, 5.548828125) (-0.0006761470336914062, 5.55078125) (-0.0006780133056640625, 5.552734375) (-0.0006798834838867187, 5.5546875) (-0.0006817640380859375, 5.556640625) (-0.0006836607055664062, 5.55859375) (-0.0006855786743164063, 5.560546875) (-0.000687522705078125, 5.5625) (-0.0006894964599609374, 5.564453125) (-0.0006915032348632813, 5.56640625) (-0.00069354541015625, 5.568359375) (-0.0006956243896484375, 5.5703125) (-0.0006977410888671875, 5.572265625) (-0.00069989501953125, 5.57421875) (-0.0007020853271484374, 5.576171875) (-0.0007043094482421875, 5.578125) (-0.0007065645751953125, 5.580078125) (-0.0007088465576171875, 5.58203125) (-0.0007111505126953124, 5.583984375) (-0.0007134705810546874, 5.5859375) (-0.0007158002319335937, 5.587890625) (-0.0007181318359375, 5.58984375) (-0.0007204573974609375, 5.591796875) (-0.0007227681884765624, 5.59375) (-0.0007250547485351562, 5.595703125) (-0.0007273071899414062, 5.59765625) (-0.000729515380859375, 5.599609375) (-0.00073166845703125, 5.6015625) (-0.0007337556152343749, 5.603515625) (-0.000735765625, 5.60546875) (-0.0007376873779296874, 5.607421875) (-0.000739509521484375, 5.609375) (-0.000741220947265625, 5.611328125) (-0.0007428105468749999, 5.61328125) (-0.0007442674560546875, 5.615234375) (-0.0007455809326171875, 5.6171875) (-0.0007467406005859375, 5.619140625) (-0.0007477364501953125, 5.62109375) (-0.0007485588989257812, 5.623046875) (-0.0007491986083984375, 5.625) (-0.0007496470947265625, 5.626953125) (-0.0007498961181640624, 5.62890625) (-0.0007499385986328125, 5.630859375) (-0.0007497674560546874, 5.6328125) (-0.000749376953125, 5.634765625) (-0.0007487621459960937, 5.63671875) (-0.0007479185180664063, 5.638671875) (-0.0007468428344726562, 5.640625) (-0.00074553271484375, 5.642578125) (-0.0007439866943359375, 5.64453125) (-0.0007422041015624999, 5.646484375) (-0.0007401854248046875, 5.6484375) (-0.0007379321899414062, 5.650390625) (-0.0007354465332031249, 5.65234375) (-0.00073273193359375, 5.654296875) (-0.0007297926025390624, 5.65625) (-0.0007266334228515624, 5.658203125) (-0.0007232603149414063, 5.66015625) (-0.0007196802978515624, 5.662109375) (-0.0007159005126953124, 5.6640625) (-0.0007119290771484375, 5.666015625) (-0.00070777490234375, 5.66796875) (-0.0007034470825195312, 5.669921875) (-0.0006989556884765625, 5.671875) (-0.0006943109130859374, 5.673828125) (-0.000689523681640625, 5.67578125) (-0.000684605224609375, 5.677734375) (-0.0006795673217773438, 5.6796875) (-0.0006744218139648437, 5.681640625) (-0.0006691812133789063, 5.68359375) (-0.0006638580322265625, 5.685546875) (-0.000658465087890625, 5.6875) (-0.0006530155029296874, 5.689453125) (-0.0006475223388671874, 5.69140625) (-0.0006419989013671874, 5.693359375) (-0.0006364581909179687, 5.6953125) (-0.0006309133911132812, 5.697265625) (-0.0006253777465820312, 5.69921875) (-0.0006198642578125, 5.701171875) (-0.000614385498046875, 5.703125) (-0.0006089541625976562, 5.705078125) (-0.000603582275390625, 5.70703125) (-0.0005982816772460937, 5.708984375) (-0.0005930638427734374, 5.7109375) (-0.000587939453125, 5.712890625) (-0.0005829190063476562, 5.71484375) (-0.0005780121459960937, 5.716796875) (-0.0005732279663085937, 5.71875) (-0.0005685751342773437, 5.720703125) (-0.0005640613403320313, 5.72265625) (-0.0005596939086914062, 5.724609375) (-0.0005554792480468749, 5.7265625) (-0.0005514233398437499, 5.728515625) (-0.00054753125, 5.73046875) (-0.0005438073120117188, 5.732421875) (-0.0005402551879882812, 5.734375) (-0.000536877685546875, 5.736328125) (-0.0005336770019531249, 5.73828125) (-0.0005306542358398437, 5.740234375) (-0.000527809814453125, 5.7421875) (-0.0005251433105468749, 5.744140625) (-0.0005226536254882813, 5.74609375) (-0.0005203387451171874, 5.748046875) (-0.00051819580078125, 5.75) (-0.00051622119140625, 5.751953125) (-0.0005144105224609374, 5.75390625) (-0.0005127586059570312, 5.755859375) (-0.0005112596435546874, 5.7578125) (-0.0005099068298339844, 5.759765625) (-0.0005086927490234375, 5.76171875) (-0.0005076094970703124, 5.763671875) (-0.0005066483459472656, 5.765625) (-0.0005058000183105468, 5.767578125) (-0.000505054931640625, 5.76953125) (-0.0005044030151367188, 5.771484375) (-0.000503833740234375, 5.7734375) (-0.0005033364868164063, 5.775390625) (-0.0005029004516601562, 5.77734375) (-0.0005025145874023437, 5.779296875) (-0.0005021679077148437, 5.78125) (-0.0005018494873046874, 5.783203125) (-0.0005015482788085937, 5.78515625) (-0.0005012535705566406, 5.787109375) (-0.0005009548034667969, 5.7890625) (-0.0005006416625976562, 5.791015625) (-0.0005003043823242188, 5.79296875) (-0.0004999335937499999, 5.794921875) (-0.0004995203857421875, 5.796875) (-0.0004990565795898437, 5.798828125) (-0.0004985345458984375, 5.80078125) (-0.000497947509765625, 5.802734375) (-0.0004972893676757812, 5.8046875) (-0.0004965548706054688, 5.806640625) (-0.0004957396240234374, 5.80859375) (-0.0004948399658203125, 5.810546875) (-0.000493853271484375, 5.8125) (-0.0004927777099609375, 5.814453125) (-0.0004916126708984375, 5.81640625) (-0.0004903582763671875, 5.818359375) (-0.0004890157165527343, 5.8203125) (-0.0004875872802734375, 5.822265625) (-0.00048607614135742186, 5.82421875) (-0.000484486572265625, 5.826171875) (-0.0004828237915039062, 5.828125) (-0.0004810939025878906, 5.830078125) (-0.0004793035583496094, 5.83203125) (-0.00047746057128906247, 5.833984375) (-0.00047557321166992185, 5.8359375) (-0.00047365051269531247, 5.837890625) (-0.0004717021179199219, 5.83984375) (-0.0004697380676269531, 5.841796875) (-0.00046776885986328124, 5.84375) (-0.0004658053283691406, 5.845703125) (-0.0004638586730957031, 5.84765625) (-0.00046194012451171874, 5.849609375) (-0.0004600611572265625, 5.8515625) (-0.00045823284912109374, 5.853515625) (-0.00045646643066406245, 5.85546875) (-0.0004547725830078125, 5.857421875) (-0.0004531617736816406, 5.859375) (-0.00045164398193359373, 5.861328125) (-0.0004502285766601562, 5.86328125) (-0.0004489243469238281, 5.865234375) (-0.00044773934936523434, 5.8671875) (-0.000446680908203125, 5.869140625) (-0.00044575567626953125, 5.87109375) (-0.0004449692993164062, 5.873046875) (-0.00044432666015624997, 5.875) (-0.00044383160400390624, 5.876953125) (-0.0004434869995117187, 5.87890625) (-0.00044329455566406245, 5.880859375) (-0.00044325512695312497, 5.8828125) (-0.00044336825561523436, 5.884765625) (-0.00044363262939453124, 5.88671875) (-0.00044404559326171873, 5.888671875) (-0.00044460369873046873, 5.890625) (-0.00044530230712890625, 5.892578125) (-0.00044613586425781246, 5.89453125) (-0.0004470979309082031, 5.896484375) (-0.0004481810607910156, 5.8984375) (-0.0004493770141601562, 5.900390625) (-0.00045067663574218747, 5.90234375) (-0.00045207028198242184, 5.904296875) (-0.00045354742431640623, 5.90625) (-0.00045509701538085936, 5.908203125) (-0.0004567074279785156, 5.91015625) (-0.00045836682128906246, 5.912109375) (-0.00046006286621093746, 5.9140625) (-0.00046178332519531247, 5.916015625) (-0.00046351574707031247, 5.91796875) (-0.0004652478332519531, 5.919921875) (-0.0004669674377441406, 5.921875) (-0.0004686626586914062, 5.923828125) (-0.00047032183837890623, 5.92578125) (-0.0004719338684082031, 5.927734375) (-0.00047348803710937497, 5.9296875) (-0.00047497409057617186, 5.931640625) (-0.0004763825988769531, 5.93359375) (-0.0004777045593261719, 5.935546875) (-0.00047893170166015623, 5.9375) (-0.00048005645751953124, 5.939453125) (-0.0004810724487304687, 5.94140625) (-0.0004819736938476562, 5.943359375) (-0.00048275549316406245, 5.9453125) (-0.00048341369628906246, 5.947265625) (-0.00048394528198242184, 5.94921875) (-0.0004843480834960937, 5.951171875) (-0.0004846207275390625, 5.953125) (-0.0004847629699707031, 5.955078125) (-0.00048477520751953124, 5.95703125) (-0.00048465887451171874, 5.958984375) (-0.0004844162902832031, 5.9609375) (-0.0004840504150390625, 5.962890625) (-0.00048356527709960935, 5.96484375) (-0.00048296551513671873, 5.966796875) (-0.000482256591796875, 5.96875) (-0.0004814443969726562, 5.970703125) (-0.0004805356750488281, 5.97265625) (-0.00047953735351562496, 5.974609375) (-0.00047845690917968747, 5.9765625) (-0.0004773019714355469, 5.978515625) (-0.0004760804443359375, 5.98046875) (-0.0004748001098632812, 5.982421875) (-0.0004734688720703125, 5.984375) (-0.00047209448242187496, 5.986328125) (-0.0004706847229003906, 5.98828125) (-0.0004692470092773437, 5.990234375) (-0.0004677886047363281, 5.9921875) (-0.00046631637573242183, 5.994140625) (-0.0004648367614746094, 5.99609375) (-0.00046335595703124997, 5.998046875) (-0.00046187957763671873, 6.0) (-0.000460412841796875, 6.001953125) (-0.0004589602661132812, 6.00390625) (-0.00045752593994140625, 6.005859375) (-0.0004561131896972656, 6.0078125) (-0.0004547249755859375, 6.009765625) (-0.0004533636474609375, 6.01171875) (-0.000452031005859375, 6.013671875) (-0.00045072814941406246, 6.015625) (-0.0004494556274414062, 6.017578125) (-0.00044821331787109374, 6.01953125) (-0.00044700048828125, 6.021484375) (-0.0004458157958984375, 6.0234375) (-0.00044465731811523434, 6.025390625) (-0.00044352239990234373, 6.02734375) (-0.00044240771484374997, 6.029296875) (-0.0004413093566894531, 6.03125) (-0.00044022314453125, 6.033203125) (-0.000439144287109375, 6.03515625) (-0.0004380679016113281, 6.037109375) (-0.00043698876953125, 6.0390625) (-0.0004359013977050781, 6.041015625) (-0.00043480029296875, 6.04296875) (-0.0004336800537109375, 6.044921875) (-0.0004325354614257812, 6.046875) (-0.000431361328125, 6.048828125) (-0.00043015292358398435, 6.05078125) (-0.0004289055480957031, 6.052734375) (-0.00042761495971679685, 6.0546875) (-0.0004262776184082031, 6.056640625) (-0.00042489044189453125, 6.05859375) (-0.00042345089721679686, 6.060546875) (-0.0004219569702148437, 6.0625) (-0.0004204071655273437, 6.064453125) (-0.00041880072021484375, 6.06640625) (-0.0004171376953125, 6.068359375) (-0.0004154190673828125, 6.0703125) (-0.0004136460266113281, 6.072265625) (-0.00041182067871093747, 6.07421875) (-0.0004099458618164062, 6.076171875) (-0.00040802508544921873, 6.078125) (-0.00040606249999999996, 6.080078125) (-0.00040406271362304684, 6.08203125) (-0.00040203027343749996, 6.083984375) (-0.00039996969604492186, 6.0859375) (-0.00039788616943359375, 6.087890625) (-0.00039578524780273434, 6.08984375) (-0.0003936725463867187, 6.091796875) (-0.000391553955078125, 6.09375) (-0.00038943539428710935, 6.095703125) (-0.00038732336425781246, 6.09765625) (-0.0003852256164550781, 6.099609375) (-0.0003831496276855469, 6.1015625) (-0.00038110235595703124, 6.103515625) (-0.00037908966064453126, 6.10546875) (-0.00037711486816406246, 6.107421875) (-0.00037517987060546875, 6.109375) (-0.00037328656005859376, 6.111328125) (-0.00037143734741210935, 6.11328125) (-0.000369635498046875, 6.115234375) (-0.0003678851318359375, 6.1171875) (-0.00036618823242187497, 6.119140625) (-0.000364545654296875, 6.12109375) (-0.0003629608154296875, 6.123046875) (-0.0003614354248046875, 6.125) (-0.00035996923828125, 6.126953125) (-0.00035855624389648434, 6.12890625) (-0.000357179443359375, 6.130859375) (-0.0003558183898925781, 6.1328125) (-0.0003544533996582031, 6.134765625) (-0.00035306689453125, 6.13671875) (-0.0003516446228027344, 6.138671875) (-0.00035017367553710933, 6.140625) (-0.0003486378173828125, 6.142578125) (-0.000347017578125, 6.14453125) (-0.00034529412841796875, 6.146484375) (-0.0003434452209472656, 6.1484375) (-0.0003414525146484375, 6.150390625) (-0.00033930059814453125, 6.15234375) (-0.00033696713256835937, 6.154296875) (-0.0003344365844726562, 6.15625) (-0.000331701416015625, 6.158203125) (-0.0003287774353027344, 6.16015625) (-0.0003257174072265625, 6.162109375) (-0.00032258514404296876, 6.1640625) (-0.000319449462890625, 6.166015625) (-0.00031636920166015623, 6.16796875) (-0.00031337973022460937, 6.169921875) (-0.0003105234375, 6.171875) (-0.00030786370849609373, 6.173828125) (-0.0003054668579101562, 6.17578125) (-0.000303406982421875, 6.177734375) (-0.00030176791381835935, 6.1796875) (-0.0003005710754394531, 6.181640625) (-0.00029986288452148435, 6.18359375) (-0.0002997818603515625, 6.185546875) (-0.00030033746337890623, 6.1875) (-0.0003014384765625, 6.189453125) (-0.0003028712463378906, 6.19140625) (-0.00030411932373046875, 6.193359375) (-0.00030468084716796874, 6.1953125) (-0.0003042778625488281, 6.197265625) (-0.00030250775146484373, 6.19921875) (-0.000298861328125, 6.201171875) (-0.0002932966613769531, 6.203125) (-0.0002859888000488281, 6.205078125) (-0.0002774566040039062, 6.20703125) (-0.0002691026916503906, 6.208984375) (-0.000262024169921875, 6.2109375) (-0.00025667880249023435, 6.212890625) (-0.0002540301208496094, 6.21484375) (-0.0002550617065429687, 6.216796875) (-0.00025966314697265625, 6.21875) (-0.0002672882385253906, 6.220703125) (-0.0002756953125, 6.22265625) (-0.00028019421386718746, 6.224609375) (-0.00027722979736328123, 6.2265625) (-0.00026515045166015624, 6.228515625) (-0.0002443712921142578, 6.23046875) (-0.00021701025390624999, 6.232421875) (-0.00018504833984375, 6.234375) (-0.0001483942413330078, 6.236328125) (-0.0001017005615234375, 6.23828125) (-4.013929367065429e-05, 6.240234375) (3.97969970703125e-05, 6.2421875) (0.0001413677520751953, 6.244140625) (0.0002557997589111328, 6.24609375) (0.0003684365234375, 6.248046875) (0.00046350473022460935, 6.25) (0.0005172861938476562, 6.251953125) (0.000514564208984375, 6.25390625) (0.00045237127685546875, 6.255859375) (0.0003332332763671875, 6.2578125) (0.00017520680236816406, 6.259765625) (2.350013732910156e-06, 6.26171875) (-0.0001647659912109375, 6.263671875) (-0.0003056350708007812, 6.265625) (-0.000408466796875, 6.267578125) (-0.0004699813232421875, 6.26953125) (-0.000492224853515625, 6.271484375) (-0.00048262399291992185, 6.2734375) (-0.0004494627075195312, 6.275390625) (-0.00040240283203125, 6.27734375) (-0.0003501107788085937, 6.279296875) (-0.000301242431640625, 6.28125) (-0.0002641199035644531, 6.283203125) (-0.0002409195861816406, 6.28515625) (-0.0002293032531738281, 6.287109375) (-0.0002224967041015625, 6.2890625) (-0.00021336216735839842, 6.291015625) (-0.00020038584899902343, 6.29296875) (-0.0001862499084472656, 6.294921875) (-0.0001758663330078125, 6.296875) (-0.0001719835510253906, 6.298828125) (-0.0001733484649658203, 6.30078125) (-0.00017703218078613282, 6.302734375) (-0.00017994309997558592, 6.3046875) (-0.00018080560302734375, 6.306640625) (-0.00017956845092773437, 6.30859375) (-0.00017599249267578125, 6.310546875) (-0.00017028599548339843, 6.3125) (-0.00016293724060058594, 6.314453125) (-0.00015478131103515623, 6.31640625) (-0.00014713273620605468, 6.318359375) (-0.00014076600646972657, 6.3203125) (-0.00013578436279296875, 6.322265625) (-0.00013224179077148438, 6.32421875) (-0.0001302535400390625, 6.326171875) (-0.00012984521484374998, 6.328125) (-0.0001309620361328125, 6.330078125) (-0.00013321551513671874, 6.33203125) (-0.00013587965393066406, 6.333984375) (-0.00013846719360351563, 6.3359375) (-0.0001407572479248047, 6.337890625) (-0.00014263229370117188, 6.33984375) (-0.00014406893920898437, 6.341796875) (-0.0001449867401123047, 6.34375) (-0.0001452595672607422, 6.345703125) (-0.0001448553466796875, 6.34765625) (-0.00014384530639648436, 6.349609375) (-0.000142298583984375, 6.3515625) (-0.0001402713623046875, 6.353515625) (-0.0001377900390625, 6.35546875) (-0.00013484217834472655, 6.357421875) (-0.00013146701049804687, 6.359375) (-0.0001277429428100586, 6.361328125) (-0.0001237680892944336, 6.36328125) (-0.00011966361236572265, 6.365234375) (-0.00011552016448974609, 6.3671875) (-0.00011140241241455078, 6.369140625) (-0.00010736310577392577, 6.37109375) (-0.000103442138671875, 6.373046875) (-9.968119049072265e-05, 6.375) (-9.611840057373047e-05, 6.376953125) (-9.277485656738281e-05, 6.37890625) (-8.965341186523437e-05, 6.380859375) (-8.67493667602539e-05, 6.3828125) (-8.405266571044921e-05, 6.384765625) (-8.15578155517578e-05, 6.38671875) (-7.926302337646484e-05, 6.388671875) (-7.71504898071289e-05, 6.390625) (-7.519361114501953e-05, 6.392578125) (-7.335707855224608e-05, 6.39453125) (-7.159796142578124e-05, 6.396484375) (-6.988612365722656e-05, 6.3984375) (-6.82007598876953e-05, 6.400390625) (-6.652337646484374e-05, 6.40234375) (-6.484010314941405e-05, 6.404296875) (-6.313761138916015e-05, 6.40625) (-6.140309906005859e-05, 6.408203125) (-5.963046264648437e-05, 6.41015625) (-5.7818656921386715e-05, 6.412109375) (-5.596404266357421e-05, 6.4140625) (-5.406161499023437e-05, 6.416015625) (-5.210408782958984e-05, 6.41796875) (-5.008198928833008e-05, 6.419921875) (-4.798999404907226e-05, 6.421875) (-4.5825012207031246e-05, 6.423828125) (-4.3584144592285154e-05, 6.42578125) (-4.126553344726562e-05, 6.427734375) (-3.8865760803222655e-05, 6.4296875) (-3.638026428222656e-05, 6.431640625) 