(-5.970204162597656e-05, 0.0) (-8.680732727050781e-05, 0.001953125) (-0.00011302953338623047, 0.00390625) (-0.0001266001739501953, 0.005859375) (-0.00012307029724121092, 0.0078125) (-0.00010111290740966797, 0.009765625) (-6.645509338378906e-05, 0.01171875) (-3.1951488494873044e-05, 0.013671875) (-7.816410064697265e-06, 0.015625) (-5.83432674407959e-07, 0.017578125) (-1.0072537422180176e-05, 0.01953125) (-2.8188465118408203e-05, 0.021484375) (-4.511277389526367e-05, 0.0234375) (-5.388210296630859e-05, 0.025390625) (-5.2548522949218745e-05, 0.02734375) (-4.4101905822753906e-05, 0.029296875) (-3.356808853149414e-05, 0.03125) (-2.4302139282226562e-05, 0.033203125) (-1.713623809814453e-05, 0.03515625) (-1.1305825233459473e-05, 0.037109375) (-5.495006561279297e-06, 0.0390625) (7.33357310295105e-07, 0.041015625) (6.995288372039795e-06, 0.04296875) (1.3007577896118164e-05, 0.044921875) (1.871886444091797e-05, 0.046875) (2.422391128540039e-05, 0.048828125) (2.9877338409423827e-05, 0.05078125) (3.536767578125e-05, 0.052734375) (3.9672966003417966e-05, 0.0546875) (4.3092784881591795e-05, 0.056640625) (4.654376983642578e-05, 0.05859375) (5.163069152832031e-05, 0.060546875) (6.123423767089844e-05, 0.0625) (7.489688110351562e-05, 0.064453125) (8.965049743652343e-05, 0.06640625) (0.00010248851013183593, 0.068359375) (0.00010919486999511718, 0.0703125) (0.00010976010131835938, 0.072265625) (0.0001080810089111328, 0.07421875) (0.00010714945983886718, 0.076171875) (0.00011028135681152343, 0.078125) (0.00011782257080078125, 0.080078125) (0.00012680602264404295, 0.08203125) (0.00013546823120117187, 0.083984375) (0.000142516845703125, 0.0859375) (0.00014764151000976563, 0.087890625) (0.00015203236389160155, 0.08984375) (0.00015616770935058592, 0.091796875) (0.0001600027160644531, 0.09375) (0.00016355413818359374, 0.095703125) (0.00016662008666992186, 0.09765625) (0.0001691549377441406, 0.099609375) (0.000171303955078125, 0.1015625) (0.00017309609985351562, 0.103515625) (0.0001744932861328125, 0.10546875) (0.00017549049377441406, 0.107421875) (0.00017608851623535156, 0.109375) (0.0001762764892578125, 0.111328125) (0.00017604310607910155, 0.11328125) (0.00017537014770507812, 0.115234375) (0.00017422877502441404, 0.1171875) (0.00017261341857910156, 0.119140625) (0.00017054241943359374, 0.12109375) (0.00016802618408203124, 0.123046875) (0.00016507028198242186, 0.125) (0.00016168408203125, 0.126953125) (0.00015787725830078124, 0.12890625) (0.00015366351318359375, 0.130859375) (0.00014906301879882811, 0.1328125) (0.00014409359741210937, 0.134765625) (0.00013876873779296875, 0.13671875) (0.00013310447692871093, 0.138671875) (0.00012711888122558592, 0.140625) (0.00012083238220214843, 0.142578125) (0.00011426889038085937, 0.14453125) (0.00010745381927490234, 0.146484375) (0.00010041212463378906, 0.1484375) (9.316706848144531e-05, 0.150390625) (8.574394989013672e-05, 0.15234375) (7.816919708251952e-05, 0.154296875) (7.046904754638671e-05, 0.15625) (6.267671966552735e-05, 0.158203125) (5.482710266113281e-05, 0.16015625) (4.695258331298828e-05, 0.162109375) (3.908820343017578e-05, 0.1640625) (3.126236724853516e-05, 0.166015625) (2.3489284515380858e-05, 0.16796875) (1.578514766693115e-05, 0.169921875) (8.172709465026855e-06, 0.171875) (6.509885787963867e-07, 0.173828125) (-6.790175914764404e-06, 0.17578125) (-1.4154770851135253e-05, 0.177734375) (-2.1461910247802734e-05, 0.1796875) (-2.8682600021362302e-05, 0.181640625) (-3.571395492553711e-05, 0.18359375) (-4.244448089599609e-05, 0.185546875) (-4.8782165527343746e-05, 0.1875) (-5.4608772277832026e-05, 0.189453125) (-5.977638244628906e-05, 0.19140625) (-6.426416015625e-05, 0.193359375) (-6.811597442626953e-05, 0.1953125) (-7.136454010009765e-05, 0.197265625) (-7.433753967285156e-05, 0.19921875) (-7.700111389160156e-05, 0.201171875) (-7.868325805664062e-05, 0.203125) (-7.963172912597657e-05, 0.205078125) (-8.044764709472655e-05, 0.20703125) (-8.273700714111328e-05, 0.208984375) (-9.018700408935546e-05, 0.2109375) (-0.00010330861663818358, 0.212890625) (-0.00011932497406005859, 0.21484375) (-0.00013315447998046875, 0.216796875) (-0.00013573709106445313, 0.21875) (-0.00012363375854492186, 0.220703125) (-0.00010106349182128906, 0.22265625) (-7.55308837890625e-05, 0.224609375) (-5.883571624755859e-05, 0.2265625) (-5.725198364257812e-05, 0.228515625) (-6.797901916503906e-05, 0.23046875) (-8.575956726074218e-05, 0.232421875) (-0.00010428927612304688, 0.234375) (-0.000120078857421875, 0.236328125) (-0.0001345965118408203, 0.23828125) (-0.0001497758331298828, 0.240234375) (-0.00016315989685058592, 0.2421875) (-0.00017022520446777342, 0.244140625) (-0.0001659215087890625, 0.24609375) (-0.00014527566528320311, 0.248046875) (-0.00011155420684814453, 0.25) (-7.294843292236328e-05, 0.251953125) (-3.8574310302734375e-05, 0.25390625) (-1.9496154785156247e-05, 0.255859375) (-1.855953025817871e-05, 0.2578125) (-3.24682388305664e-05, 0.259765625) (-5.613158416748046e-05, 0.26171875) (-7.99170913696289e-05, 0.263671875) (-9.877861022949218e-05, 0.265625) (-0.00011050127410888672, 0.267578125) (-0.00011163627624511718, 0.26953125) (-0.00010397950744628905, 0.271484375) (-8.9576904296875e-05, 0.2734375) (-7.155775451660156e-05, 0.275390625) (-5.724931335449218e-05, 0.27734375) (-4.989113235473632e-05, 0.279296875) (-4.978544235229492e-05, 0.28125) (-5.509639739990234e-05, 0.283203125) (-6.0268707275390625e-05, 0.28515625) (-6.300467681884765e-05, 0.287109375) (-6.42233428955078e-05, 0.2890625) (-6.595769500732421e-05, 0.291015625) (-7.225682830810546e-05, 0.29296875) (-8.322746276855469e-05, 0.294921875) (-9.518618774414062e-05, 0.296875) (-0.00010459587097167968, 0.298828125) (-0.00010681236267089843, 0.30078125) (-0.0001014508819580078, 0.302734375) (-9.275814819335937e-05, 0.3046875) (-8.38910140991211e-05, 0.306640625) (-7.821206665039063e-05, 0.30859375) (-7.618989562988281e-05, 0.310546875) (-7.441081237792968e-05, 0.3125) (-7.075079345703125e-05, 0.314453125) (-6.377746200561523e-05, 0.31640625) (-5.3099273681640624e-05, 0.318359375) (-4.014658737182617e-05, 0.3203125) (-2.5711532592773437e-05, 0.322265625) (-1.0127041816711425e-05, 0.32421875) (6.100404739379883e-06, 0.326171875) (2.2636104583740232e-05, 0.328125) (3.946250152587891e-05, 0.330078125) (5.710700988769531e-05, 0.33203125) (7.628509521484375e-05, 0.333984375) (9.713452911376953e-05, 0.3359375) (0.0001179409408569336, 0.337890625) (0.00013583511352539062, 0.33984375) (0.00014887124633789062, 0.341796875) (0.0001577040557861328, 0.34375) (0.00016717436218261717, 0.345703125) (0.0001829034729003906, 0.34765625) (0.0002078253173828125, 0.349609375) (0.0002407559814453125, 0.3515625) (0.00027341168212890625, 0.353515625) (0.0002957598876953125, 0.35546875) (0.0003005596313476562, 0.357421875) (0.0002834682922363281, 0.359375) (0.00024751458740234373, 0.361328125) (0.00019893705749511717, 0.36328125) (0.00014297380065917968, 0.365234375) (8.410151672363281e-05, 0.3671875) (2.3368806838989257e-05, 0.369140625) (-3.8034477233886715e-05, 0.37109375) (-9.766002655029297e-05, 0.373046875) (-0.0001515668029785156, 0.375) (-0.00019450643920898436, 0.376953125) (-0.00022536085510253904, 0.37890625) (-0.00024468527221679687, 0.380859375) (-0.000254240478515625, 0.3828125) (-0.00025741802978515626, 0.384765625) (-0.0002545463562011719, 0.38671875) (-0.00024601507568359376, 0.388671875) (-0.00023378765869140625, 0.390625) (-0.0002194439697265625, 0.392578125) (-0.00020538815307617186, 0.39453125) (-0.00019350541687011719, 0.396484375) (-0.0001841709442138672, 0.3984375) (-0.000177340087890625, 0.400390625) (-0.00017277308654785155, 0.40234375) (-0.00017011827087402343, 0.404296875) (-0.00016865237426757812, 0.40625) (-0.00016738125610351562, 0.408203125) (-0.00016571337890625, 0.41015625) (-0.00016318417358398437, 0.412109375) (-0.00016021679687499999, 0.4140625) (-0.00015831134033203123, 0.416015625) (-0.00015743775939941406, 0.41796875) (-0.000156653076171875, 0.419921875) (-0.0001544491729736328, 0.421875) (-0.00014768338012695312, 0.423828125) (-0.00013672698974609375, 0.42578125) (-0.00012517786407470702, 0.427734375) (-0.0001164522247314453, 0.4296875) (-0.00011533131408691405, 0.431640625) (-0.00012201510620117187, 0.43359375) (-0.00013161419677734375, 0.435546875) (-0.0001402562255859375, 0.4375) (-0.00014376187133789063, 0.439453125) (-0.0001412189025878906, 0.44140625) (-0.00013603987121582031, 0.443359375) (-0.00013036949157714842, 0.4453125) (-0.0001257576446533203, 0.447265625) (-0.0001226338653564453, 0.44921875) (-0.00011935640716552734, 0.451171875) (-0.00011519979858398437, 0.453125) (-0.00011028804016113281, 0.455078125) (-0.00010459040069580077, 0.45703125) (-9.854254150390624e-05, 0.458984375) (-9.19865493774414e-05, 0.4609375) (-8.372026062011718e-05, 0.462890625) (-7.3843505859375e-05, 0.46484375) (-6.345901489257813e-05, 0.466796875) (-5.414026641845703e-05, 0.46875) (-4.894398498535156e-05, 0.470703125) (-4.8066558837890626e-05, 0.47265625) (-4.849557495117187e-05, 0.474609375) (-4.731001281738281e-05, 0.4765625) (-4.032991027832031e-05, 0.478515625) (-2.689888763427734e-05, 0.48046875) (-1.1096587181091308e-05, 0.482421875) (3.987828731536865e-06, 0.484375) (1.5159656524658202e-05, 0.486328125) (2.1452987670898437e-05, 0.48828125) (2.5871164321899414e-05, 0.490234375) (3.0390136718749998e-05, 0.4921875) (3.604641342163086e-05, 0.494140625) (4.384469223022461e-05, 0.49609375) (5.304944610595703e-05, 0.498046875) (6.233745574951172e-05, 0.5) (7.154458618164063e-05, 0.501953125) (7.935305786132813e-05, 0.50390625) (8.442869567871094e-05, 0.505859375) (8.846507263183593e-05, 0.5078125) (9.234466552734375e-05, 0.509765625) (9.769523620605468e-05, 0.51171875) (0.0001068747329711914, 0.513671875) (0.00011778112792968749, 0.515625) (0.0001286873321533203, 0.517578125) (0.00013845423889160155, 0.51953125) (0.00014498902893066406, 0.521484375) (0.000150198486328125, 0.5234375) (0.00015599325561523438, 0.525390625) (0.00016200839233398436, 0.52734375) (0.00016887542724609375, 0.529296875) (0.00017485867309570313, 0.53125) (0.00017784782409667967, 0.533203125) (0.00017961842346191407, 0.53515625) (0.00018121273803710936, 0.537109375) (0.00018433737182617187, 0.5390625) (0.0001914156494140625, 0.541015625) (0.00020047320556640624, 0.54296875) (0.0002098344268798828, 0.544921875) (0.00021841891479492187, 0.546875) (0.00022433570861816405, 0.548828125) (0.00022888253784179686, 0.55078125) (0.00023336444091796873, 0.552734375) (0.00023800102233886717, 0.5546875) (0.0002435537567138672, 0.556640625) (0.0002494915771484375, 0.55859375) (0.0002551390686035156, 0.560546875) (0.00026053497314453125, 0.5625) (0.000265526611328125, 0.564453125) (0.0002701090087890625, 0.56640625) (0.0002743845520019531, 0.568359375) (0.00027826800537109373, 0.5703125) (0.0002816251220703125, 0.572265625) (0.0002843431396484375, 0.57421875) (0.0002862950439453125, 0.576171875) (0.00028733554077148434, 0.578125) (0.00028742022705078126, 0.580078125) (0.00028655169677734374, 0.58203125) (0.000284602783203125, 0.583984375) (0.0002814976806640625, 0.5859375) (0.00027734112548828124, 0.587890625) (0.0002722709045410156, 0.58984375) (0.00026653961181640623, 0.591796875) (0.0002601180725097656, 0.59375) (0.00025240023803710935, 0.595703125) (0.00024300512695312498, 0.59765625) (0.00023254025268554688, 0.599609375) (0.0002234454345703125, 0.6015625) (0.00021904168701171873, 0.603515625) (0.00022162911987304686, 0.60546875) (0.0002308413848876953, 0.607421875) (0.00024143238830566405, 0.609375) (0.00024692346191406247, 0.611328125) (0.00024296203613281248, 0.61328125) (0.00022830111694335936, 0.615234375) (0.00020905517578125, 0.6171875) (0.00019352844238281248, 0.619140625) (0.0001870222625732422, 0.62109375) (0.00019260183715820312, 0.623046875) (0.00020649081420898437, 0.625) (0.00022138870239257812, 0.626953125) (0.0002328864288330078, 0.62890625) (0.00023865725708007812, 0.630859375) (0.00023987341308593748, 0.6328125) (0.0002412954864501953, 0.634765625) (0.00024593991088867187, 0.63671875) (0.0002532064208984375, 0.638671875) (0.0002620682678222656, 0.640625) (0.00026963531494140624, 0.642578125) (0.0002732265014648437, 0.64453125) (0.0002748695373535156, 0.646484375) (0.0002761252136230469, 0.6484375) (0.00027833493041992186, 0.650390625) (0.0002835440368652344, 0.65234375) (0.00029023861694335936, 0.654296875) (0.00029700192260742185, 0.65625) (0.00030362484741210935, 0.658203125) (0.00030938592529296873, 0.66015625) (0.00031483468627929685, 0.662109375) (0.0003205870971679687, 0.6640625) (0.00032654220581054686, 0.666015625) (0.0003326383056640625, 0.66796875) (0.00033916757202148435, 0.669921875) (0.0003468968505859375, 0.671875) (0.00035558514404296875, 0.673828125) (0.000364408935546875, 0.67578125) (0.00037187677001953125, 0.677734375) (0.00037510992431640623, 0.6796875) (0.00037436849975585934, 0.681640625) (0.0003721344604492187, 0.68359375) (0.0003708638000488281, 0.685546875) (0.00037522442626953124, 0.6875) (0.0003857922973632812, 0.689453125) (0.00039994134521484376, 0.69140625) (0.00041597824096679687, 0.693359375) (0.00042956506347656246, 0.6953125) (0.00043943896484375, 0.697265625) (0.0004462061767578125, 0.69921875) (0.00044925335693359373, 0.701171875) (0.00045051791381835936, 0.703125) (0.00045059991455078123, 0.705078125) (0.0004511003723144531, 0.70703125) (0.0004544143371582031, 0.708984375) (0.0004608275451660156, 0.7109375) (0.000471119384765625, 0.712890625) (0.0004831205139160156, 0.71484375) (0.0004943110046386718, 0.716796875) (0.0005037894287109374, 0.71875) (0.0005101089477539062, 0.720703125) (0.0005144203491210937, 0.72265625) (0.000518054931640625, 0.724609375) (0.0005211394653320313, 0.7265625) (0.0005242989501953125, 0.728515625) (0.0005270708007812499, 0.73046875) (0.0005288839111328125, 0.732421875) (0.0005298754272460937, 0.734375) (0.0005299864501953124, 0.736328125) (0.000529304443359375, 0.73828125) (0.0005280274658203125, 0.740234375) (0.000526167236328125, 0.7421875) (0.0005238090820312499, 0.744140625) (0.000521146728515625, 0.74609375) (0.0005183401489257813, 0.748046875) (0.0005155848388671874, 0.75) (0.000513155029296875, 0.751953125) (0.0005113284301757812, 0.75390625) (0.0005104698486328125, 0.755859375) (0.0005110326538085938, 0.7578125) (0.0005133121948242187, 0.759765625) (0.0005174439697265625, 0.76171875) (0.0005234031372070312, 0.763671875) (0.0005309696044921875, 0.765625) (0.0005399803466796875, 0.767578125) (0.0005503929443359375, 0.76953125) (0.000562049560546875, 0.771484375) (0.0005746684570312499, 0.7734375) (0.000588156982421875, 0.775390625) (0.0006026022949218749, 0.77734375) (0.0006184498901367188, 0.779296875) (0.0006365558471679687, 0.78125) (0.0006573740844726563, 0.783203125) (0.0006807835083007813, 0.78515625) (0.000706444091796875, 0.787109375) (0.0007337570800781249, 0.7890625) (0.0007617657470703125, 0.791015625) (0.0007893402709960938, 0.79296875) (0.000814836181640625, 0.794921875) (0.0008359857177734375, 0.796875) (0.0008510343017578125, 0.798828125) (0.0008589286499023438, 0.80078125) (0.00085903125, 0.802734375) (0.000851398681640625, 0.8046875) (0.0008364940185546874, 0.806640625) (0.0008148728637695312, 0.80859375) (0.000787589599609375, 0.810546875) (0.0007561546630859375, 0.8125) (0.000721840087890625, 0.814453125) (0.0006858330078125, 0.81640625) (0.0006491981201171875, 0.818359375) (0.0006124973754882812, 0.8203125) (0.0005763833618164062, 0.822265625) (0.0005415999755859375, 0.82421875) (0.0005087554016113281, 0.826171875) (0.00047882977294921874, 0.828125) (0.0004528280029296875, 0.830078125) (0.0004313255615234375, 0.83203125) (0.00041488543701171873, 0.833984375) (0.00040400213623046873, 0.8359375) (0.0003985856323242187, 0.837890625) (0.0003985263671875, 0.83984375) (0.00040349462890625, 0.841796875) (0.0004120498657226562, 0.84375) (0.00042271908569335937, 0.845703125) (0.00043426904296874996, 0.84765625) (0.0004451880493164062, 0.849609375) (0.00045441204833984375, 0.8515625) (0.00046143151855468746, 0.853515625) (0.00046545050048828125, 0.85546875) (0.0004658703918457031, 0.857421875) (0.0004631085815429687, 0.859375) (0.0004576537475585937, 0.861328125) (0.00045016561889648434, 0.86328125) (0.0004417960815429687, 0.865234375) (0.00043318218994140625, 0.8671875) (0.0004245433959960937, 0.869140625) (0.00041640390014648435, 0.87109375) (0.00040938031005859375, 0.873046875) (0.00040358932495117186, 0.875) (0.0003990350952148437, 0.876953125) (0.0003955952453613281, 0.87890625) (0.00039213885498046874, 0.880859375) (0.0003879298400878906, 0.8828125) (0.0003835780029296875, 0.884765625) (0.00037914532470703123, 0.88671875) (0.0003757055053710937, 0.888671875) (0.0003746309204101562, 0.890625) (0.0003743078002929687, 0.892578125) (0.0003738394775390625, 0.89453125) (0.0003720017395019531, 0.896484375) (0.00036682318115234373, 0.8984375) (0.00036027145385742187, 0.900390625) (0.0003539897766113281, 0.90234375) (0.00034905322265625, 0.904296875) (0.00034728314208984373, 0.90625) (0.0003473675842285156, 0.908203125) (0.0003479239501953125, 0.91015625) (0.000348547119140625, 0.912109375) (0.00034833663940429685, 0.9140625) (0.0003476998291015625, 0.916015625) (0.0003471916198730469, 0.91796875) (0.0003466924133300781, 0.919921875) (0.0003462750854492187, 0.921875) (0.00034587561035156247, 0.923828125) (0.0003453546142578125, 0.92578125) (0.00034477511596679684, 0.927734375) (0.00034418572998046876, 0.9296875) (0.0003435622253417969, 0.931640625) (0.00034290435791015626, 0.93359375) (0.00034221347045898434, 0.935546875) (0.0003414759521484375, 0.9375) (0.00034067626953125, 0.939453125) (0.00033979644775390623, 0.94140625) (0.0003388134765625, 0.943359375) (0.00033770770263671874, 0.9453125) (0.000336476806640625, 0.947265625) (0.00033511593627929686, 0.94921875) (0.0003336085510253906, 0.951171875) (0.0003319381713867187, 0.953125) (0.00033008792114257813, 0.955078125) (0.0003280420532226562, 0.95703125) (0.000325787841796875, 0.958984375) (0.00032330917358398435, 0.9609375) (0.00032058319091796876, 0.962890625) (0.0003175848388671875, 0.96484375) (0.00031429147338867187, 0.966796875) (0.0003106835632324219, 0.96875) (0.0003067436218261719, 0.970703125) (0.0003024545593261719, 0.97265625) (0.0002977986450195312, 0.974609375) (0.000292758056640625, 0.9765625) (0.000287316650390625, 0.978515625) (0.00028146063232421873, 0.98046875) (0.00027517633056640625, 0.982421875) (0.00026844995117187496, 0.984375) (0.00026126763916015626, 0.986328125) (0.0002536163330078125, 0.98828125) (0.0002454845275878906, 0.990234375) (0.00023686346435546873, 0.9921875) (0.00022774670410156248, 0.994140625) (0.0002181295623779297, 0.99609375) (0.0002080096740722656, 0.998046875) (0.00019738714599609375, 1.0) (0.00018626449584960937, 1.001953125) (0.00017464662170410157, 1.00390625) (0.00016254080200195313, 1.005859375) (0.0001499558868408203, 1.0078125) (0.0001369022979736328, 1.009765625) (0.000123392822265625, 1.01171875) (0.00010944226837158202, 1.013671875) (9.50678482055664e-05, 1.015625) (8.028949737548828e-05, 1.017578125) (6.512931823730468e-05, 1.01953125) (4.9611606597900385e-05, 1.021484375) (3.37634048461914e-05, 1.0234375) (1.76141300201416e-05, 1.025390625) (1.1951532363891602e-06, 1.02734375) (-1.5460206031799316e-05, 1.029296875) (-3.231774139404297e-05, 1.03125) (-4.934254455566406e-05, 1.033203125) (-6.649856567382812e-05, 1.03515625) (-8.374932861328124e-05, 1.037109375) (-0.00010105794525146483, 1.0390625) (-0.00011838690948486328, 1.041015625) (-0.00013569850158691405, 1.04296875) (-0.00015295477294921875, 1.044921875) (-0.00017011717224121094, 1.046875) (-0.00018714724731445313, 1.048828125) (-0.00020400753784179687, 1.05078125) (-0.00022066156005859375, 1.052734375) (-0.000237073974609375, 1.0546875) (-0.00025321151733398434, 1.056640625) (-0.00026904351806640624, 1.05859375) (-0.00028454229736328123, 1.060546875) (-0.0002996838989257812, 1.0625) (-0.00031444757080078124, 1.064453125) (-0.00032881369018554685, 1.06640625) (-0.0003427644958496094, 1.068359375) (-0.0003562843017578125, 1.0703125) (-0.0003693590698242187, 1.072265625) (-0.0003819767456054687, 1.07421875) (-0.00039412670898437497, 1.076171875) (-0.00040579794311523435, 1.078125) (-0.00041698104858398435, 1.080078125) (-0.000427670654296875, 1.08203125) (-0.0004378656005859375, 1.083984375) (-0.0004475705871582031, 1.0859375) (-0.00045679449462890625, 1.087890625) (-0.00046554672241210936, 1.08984375) (-0.0004738388977050781, 1.091796875) (-0.00048168432617187496, 1.09375) (-0.0004890971069335937, 1.095703125) (-0.0004960942077636718, 1.09765625) (-0.0005026934814453125, 1.099609375) (-0.0005089078979492187, 1.1015625) (-0.0005147498779296875, 1.103515625) (-0.00052023583984375, 1.10546875) (-0.00052538427734375, 1.107421875) (-0.0005302238159179687, 1.109375) (-0.00053478955078125, 1.111328125) (-0.00053910693359375, 1.11328125) (-0.000543197265625, 1.115234375) (-0.0005470773925781249, 1.1171875) (-0.00055075, 1.119140625) (-0.00055421875, 1.12109375) (-0.00055748876953125, 1.123046875) (-0.0005605459594726562, 1.125) (-0.0005633723754882812, 1.126953125) (-0.0005659538574218749, 1.12890625) (-0.0005682554931640625, 1.130859375) (-0.000570260986328125, 1.1328125) (-0.0005720018310546875, 1.134765625) (-0.0005735, 1.13671875) (-0.0005747728271484375, 1.138671875) (-0.0005758363037109375, 1.140625) (-0.0005766633911132812, 1.142578125) (-0.0005772317504882812, 1.14453125) (-0.0005775908813476562, 1.146484375) (-0.0005778054809570312, 1.1484375) (-0.0005778330078124999, 1.150390625) (-0.0005776141967773437, 1.15234375) (-0.0005772076416015625, 1.154296875) (-0.0005766387329101563, 1.15625) (-0.0005759792480468749, 1.158203125) (-0.0005755278930664062, 1.16015625) (-0.0005749116821289062, 1.162109375) (-0.0005737508544921874, 1.1640625) (-0.0005727947998046875, 1.166015625) (-0.00057225732421875, 1.16796875) (-0.0005734421386718749, 1.169921875) (-0.0005779373168945312, 1.171875) (-0.00058401708984375, 1.173828125) (-0.0005904339599609375, 1.17578125) (-0.00059527099609375, 1.177734375) (-0.000595838134765625, 1.1796875) (-0.0005938912353515625, 1.181640625) (-0.0005911126708984375, 1.18359375) (-0.000588660888671875, 1.185546875) (-0.0005884361572265625, 1.1875) (-0.000589142822265625, 1.189453125) (-0.0005894299316406249, 1.19140625) (-0.000589163818359375, 1.193359375) (-0.0005880468749999999, 1.1953125) (-0.00058691357421875, 1.197265625) (-0.000586275634765625, 1.19921875) (-0.0005857949829101562, 1.201171875) (-0.00058514404296875, 1.203125) (-0.0005835769042968749, 1.205078125) (-0.0005804551391601562, 1.20703125) (-0.0005752496948242187, 1.208984375) (-0.0005670025634765624, 1.2109375) (-0.000555169677734375, 1.212890625) (-0.0005397694091796875, 1.21484375) (-0.0005208553466796874, 1.216796875) (-0.0004987655639648438, 1.21875) (-0.0004740589599609375, 1.220703125) (-0.00044718316650390623, 1.22265625) (-0.00041901397705078125, 1.224609375) (-0.0003908666381835937, 1.2265625) (-0.0003635098266601562, 1.228515625) (-0.00033735601806640625, 1.23046875) (-0.0003131181640625, 1.232421875) (-0.00029174932861328123, 1.234375) (-0.0002746386108398437, 1.236328125) (-0.00026333831787109376, 1.23828125) (-0.00025868536376953124, 1.240234375) (-0.0002610162353515625, 1.2421875) (-0.0002711392822265625, 1.244140625) (-0.00029024154663085934, 1.24609375) (-0.00031849829101562497, 1.248046875) (-0.0003545339660644531, 1.25) (-0.0003959972229003906, 1.251953125) (-0.00044029583740234375, 1.25390625) (-0.0004875343017578125, 1.255859375) (-0.0005405901489257812, 1.2578125) (-0.00060002099609375, 1.259765625) (-0.0006631008911132813, 1.26171875) (-0.0007225289306640625, 1.263671875) (-0.0007674617919921874, 1.265625) (-0.0007921082763671875, 1.267578125) (-0.0007964483642578124, 1.26953125) (-0.0007854416503906249, 1.271484375) (-0.000768171875, 1.2734375) (-0.0007502630615234374, 1.275390625) (-0.0007336973876953124, 1.27734375) (-0.00071826416015625, 1.279296875) (-0.0007011631469726562, 1.28125) (-0.000681017333984375, 1.283203125) (-0.0006585577392578125, 1.28515625) (-0.0006353616333007813, 1.287109375) (-0.0006141992187499999, 1.2890625) (-0.0005976031494140624, 1.291015625) (-0.0005864073486328125, 1.29296875) (-0.0005801915283203125, 1.294921875) (-0.0005781712036132812, 1.296875) (-0.0005799354248046875, 1.298828125) (-0.000585507568359375, 1.30078125) (-0.0005949560546875, 1.302734375) (-0.0006076153564453124, 1.3046875) (-0.0006208936157226562, 1.306640625) (-0.0006316466674804687, 1.30859375) (-0.0006386414794921875, 1.310546875) (-0.0006420029296875, 1.3125) (-0.0006445556640625, 1.314453125) (-0.0006512994384765625, 1.31640625) (-0.0006634031982421874, 1.318359375) (-0.0006781553955078124, 1.3203125) (-0.0006885782470703125, 1.322265625) (-0.0006839875488281249, 1.32421875) (-0.0006598408203125, 1.326171875) (-0.0006203073730468749, 1.328125) (-0.0005771273193359374, 1.330078125) (-0.0005466081542968749, 1.33203125) (-0.0005376400146484374, 1.333984375) (-0.000548447021484375, 1.3359375) (-0.00056919091796875, 1.337890625) (-0.0005862162475585937, 1.33984375) (-0.0005920763549804687, 1.341796875) (-0.0005868242797851562, 1.34375) (-0.00057477099609375, 1.345703125) (-0.00056187255859375, 1.34765625) (-0.0005507762451171875, 1.349609375) (-0.0005412830810546875, 1.3515625) (-0.00053258544921875, 1.353515625) (-0.0005237255859375, 1.35546875) (-0.0005142401123046875, 1.357421875) (-0.000503644775390625, 1.359375) (-0.0004915943298339844, 1.361328125) (-0.00047862115478515625, 1.36328125) (-0.00046691339111328125, 1.365234375) (-0.000459589599609375, 1.3671875) (-0.0004581059265136719, 1.369140625) (-0.00046088317871093747, 1.37109375) (-0.0004631119689941406, 1.373046875) (-0.00045932247924804686, 1.375) (-0.0004468874816894531, 1.376953125) (-0.0004274830627441406, 1.37890625) (-0.000406513916015625, 1.380859375) (-0.0003891760864257812, 1.3828125) (-0.000377874755859375, 1.384765625) (-0.0003713214721679687, 1.38671875) (-0.00036518658447265624, 1.388671875) (-0.0003564358520507812, 1.390625) (-0.0003447389221191406, 1.392578125) (-0.00033259240722656247, 1.39453125) (-0.0003244767761230469, 1.396484375) (-0.0003225005187988281, 1.3984375) (-0.0003249862060546875, 1.400390625) (-0.0003272380981445312, 1.40234375) (-0.00032383453369140623, 1.404296875) (-0.0003122976684570312, 1.40625) (-0.000295085205078125, 1.408203125) (-0.00027791687011718746, 1.41015625) (-0.0002651542053222656, 1.412109375) (-0.00025871545410156247, 1.4140625) (-0.00025632431030273435, 1.416015625) (-0.00025320819091796876, 1.41796875) (-0.0002483430023193359, 1.419921875) (-0.00024194544982910154, 1.421875) (-0.00023595663452148438, 1.423828125) (-0.00023368865966796873, 1.42578125) (-0.0002338280029296875, 1.427734375) (-0.00023470407104492187, 1.4296875) (-0.00023511820983886718, 1.431640625) (-0.00023312974548339842, 1.43359375) (-0.00023009869384765623, 1.435546875) (-0.00022750680541992188, 1.4375) (-0.00022569146728515624, 1.439453125) (-0.00022544393920898438, 1.44140625) (-0.00022629101562499998, 1.443359375) (-0.00022762083435058593, 1.4453125) (-0.0002295299835205078, 1.447265625) (-0.00023190959167480467, 1.44921875) (-0.00023475500488281248, 1.451171875) (-0.00023814868164062498, 1.453125) (-0.00024198876953124998, 1.455078125) (-0.0002462010345458984, 1.45703125) (-0.00025078927612304686, 1.458984375) (-0.00025573175048828126, 1.4609375) (-0.00026099298095703125, 1.462890625) (-0.00026654559326171875, 1.46484375) (-0.0002723629455566406, 1.466796875) (-0.00027841818237304684, 1.46875) (-0.00028469378662109376, 1.470703125) (-0.00029116247558593747, 1.47265625) (-0.0002977708740234375, 1.474609375) (-0.00030446942138671873, 1.4765625) (-0.00031121450805664063, 1.478515625) (-0.00031796844482421876, 1.48046875) (-0.00032470953369140624, 1.482421875) (-0.0003314014587402344, 1.484375) (-0.000337988525390625, 1.486328125) (-0.0003444478759765625, 1.48828125) (-0.0003507799377441406, 1.490234375) (-0.00035697775268554683, 1.4921875) (-0.00036304074096679684, 1.494140625) (-0.0003689373779296875, 1.49609375) (-0.0003745901184082031, 1.498046875) (-0.00037996807861328125, 1.5) (-0.00038509869384765626, 1.501953125) (-0.0003899033203125, 1.50390625) (-0.0003942007141113281, 1.505859375) (-0.0003979333801269531, 1.5078125) (-0.0004011204223632812, 1.509765625) (-0.0004037469787597656, 1.51171875) (-0.0004059946594238281, 1.513671875) (-0.0004075521240234375, 1.515625) (-0.0004074397583007812, 1.517578125) (-0.0004059116821289062, 1.51953125) (-0.0004039317932128906, 1.521484375) (-0.00040286413574218747, 1.5234375) (-0.00040541387939453124, 1.525390625) (-0.0004114988403320312, 1.52734375) (-0.0004182261352539062, 1.529296875) (-0.00042341693115234373, 1.53125) (-0.0004237459716796875, 1.533203125) (-0.0004182176208496094, 1.53515625) (-0.00041027691650390624, 1.537109375) (-0.00040149353027343746, 1.5390625) (-0.0003933892822265625, 1.541015625) (-0.00038825964355468747, 1.54296875) (-0.00038453222656249997, 1.544921875) (-0.00038220397949218746, 1.546875) (-0.00038245764160156246, 1.548828125) (-0.00038292135620117185, 1.55078125) (-0.0003830130004882812, 1.552734375) (-0.00038211041259765625, 1.5546875) (-0.0003782570190429687, 1.556640625) (-0.0003729008178710937, 1.55859375) (-0.0003673001708984375, 1.560546875) (-0.00036173370361328123, 1.5625) (-0.00035722042846679687, 1.564453125) (-0.00035332046508789063, 1.56640625) (-0.00034935614013671874, 1.568359375) (-0.00034542013549804685, 1.5703125) (-0.00034140411376953124, 1.572265625) (-0.00033730957031249996, 1.57421875) (-0.0003332457580566406, 1.576171875) (-0.0003291258544921875, 1.578125) (-0.00032486239624023434, 1.580078125) (-0.0003204730529785156, 1.58203125) (-0.0003159725646972656, 1.583984375) (-0.00031134466552734376, 1.5859375) (-0.0003065997009277344, 1.587890625) (-0.00030178497314453125, 1.58984375) (-0.0002969378662109375, 1.591796875) (-0.000292093017578125, 1.59375) (-0.0002872814331054687, 1.595703125) (-0.00028248834228515623, 1.59765625) (-0.00027774267578125, 1.599609375) (-0.00027316119384765625, 1.6015625) (-0.00026888616943359376, 1.603515625) (-0.00026507672119140623, 1.60546875) (-0.000261840087890625, 1.607421875) (-0.000259197998046875, 1.609375) (-0.00025713671875, 1.611328125) (-0.00025566836547851563, 1.61328125) (-0.00025484393310546875, 1.615234375) (-0.00025465348815917967, 1.6171875) (-0.00025495166015625, 1.619140625) (-0.0002554297485351562, 1.62109375) (-0.0002557625579833984, 1.623046875) (-0.0002557970275878906, 1.625) (-0.0002555994415283203, 1.626953125) (-0.0002552936401367187, 1.62890625) (-0.00025477801513671875, 1.630859375) (-0.0002538770904541016, 1.6328125) (-0.000252504638671875, 1.634765625) (-0.0002507699737548828, 1.63671875) (-0.0002490081024169922, 1.638671875) (-0.0002473525695800781, 1.640625) (-0.00024549281311035155, 1.642578125) (-0.0002429515380859375, 1.64453125) (-0.0002394569854736328, 1.646484375) (-0.00023476708984375, 1.6484375) (-0.00022862631225585936, 1.650390625) (-0.00022067364501953123, 1.65234375) (-0.00021020402526855469, 1.654296875) (-0.00019670069885253905, 1.65625) (-0.00018012069702148437, 1.658203125) (-0.00016051768493652343, 1.66015625) (-0.00013791532897949218, 1.662109375) (-0.0001126781005859375, 1.6640625) (-8.545301818847656e-05, 1.666015625) (-5.707882308959961e-05, 1.66796875) (-2.8802764892578125e-05, 1.669921875) (-1.8370237350463867e-06, 1.671875) (2.2840869903564453e-05, 1.673828125) (4.391539764404297e-05, 1.67578125) (5.981720733642578e-05, 1.677734375) (6.94877471923828e-05, 1.6796875) (7.23880615234375e-05, 1.681640625) (6.824275970458985e-05, 1.68359375) (5.7199523925781244e-05, 1.685546875) (3.948339462280273e-05, 1.6875) (1.5186940193176268e-05, 1.689453125) (-1.4853094100952148e-05, 1.69140625) (-4.9023307800292966e-05, 1.693359375) (-8.590359497070312e-05, 1.6953125) (-0.0001242454071044922, 1.697265625) (-0.0001627103576660156, 1.69921875) (-0.00020014894104003906, 1.701171875) (-0.000235241455078125, 1.703125) (-0.0002661792602539062, 1.705078125) (-0.0002917356262207031, 1.70703125) (-0.00031147457885742185, 1.708984375) (-0.000324945068359375, 1.7109375) (-0.00033203997802734375, 1.712890625) (-0.00033315142822265624, 1.71484375) (-0.0003286766662597656, 1.716796875) (-0.00031946600341796873, 1.71875) (-0.00030712829589843747, 1.720703125) (-0.00029304205322265624, 1.72265625) (-0.00027835498046875, 1.724609375) (-0.0002644710998535156, 1.7265625) (-0.0002522549285888672, 1.728515625) (-0.00024207061767578123, 1.73046875) (-0.0002343645782470703, 1.732421875) (-0.0002291649169921875, 1.734375) (-0.00022605545043945311, 1.736328125) (-0.00022483636474609375, 1.73828125) (-0.00022502938842773436, 1.740234375) (-0.0002257161865234375, 1.7421875) (-0.00022647947692871093, 1.744140625) (-0.00022715679931640623, 1.74609375) (-0.00022747647094726562, 1.748046875) (-0.00022752084350585936, 1.75) (-0.00022733892822265623, 1.751953125) (-0.00022652885437011717, 1.75390625) (-0.00022514505004882812, 1.755859375) (-0.00022362945556640625, 1.7578125) (-0.00022191003417968748, 1.759765625) (-0.00022053915405273437, 1.76171875) (-0.0002199358215332031, 1.763671875) (-0.00021899429321289062, 1.765625) (-0.0002174619140625, 1.767578125) (-0.00021432862854003907, 1.76953125) (-0.00020796902465820312, 1.771484375) (-0.00020005181884765624, 1.7734375) (-0.000191332275390625, 1.775390625) (-0.00018252406311035154, 1.77734375) (-0.0001762511749267578, 1.779296875) (-0.00017147502136230467, 1.78125) (-0.0001680690002441406, 1.783203125) (-0.0001676614532470703, 1.78515625) (-0.00016852963256835937, 1.787109375) (-0.00017018446350097657, 1.7890625) (-0.0001708432159423828, 1.791015625) (-0.0001655899963378906, 1.79296875) (-0.0001531784210205078, 1.794921875) (-0.00013397030639648438, 1.796875) (-0.0001109041748046875, 1.798828125) (-9.075102233886718e-05, 1.80078125) (-7.735692596435547e-05, 1.802734375) (-7.243772125244141e-05, 1.8046875) (-7.385063934326172e-05, 1.806640625) (-7.547621154785156e-05, 1.80859375) (-7.41638412475586e-05, 1.810546875) (-6.778452301025391e-05, 1.8125) (-5.767101287841797e-05, 1.814453125) (-4.8449188232421874e-05, 1.81640625) (-4.0510456085205074e-05, 1.818359375) (-3.398139190673828e-05, 1.8203125) (-2.7579113006591797e-05, 1.822265625) (-1.798799133300781e-05, 1.82421875) (-6.65460205078125e-06, 1.826171875) (4.769014835357666e-06, 1.828125) (1.5187509536743164e-05, 1.830078125) (2.2514965057373046e-05, 1.83203125) (2.8028968811035156e-05, 1.833984375) (3.3244277954101564e-05, 1.8359375) (3.85070686340332e-05, 1.837890625) (4.461958694458008e-05, 1.83984375) (5.1100982666015625e-05, 1.841796875) (5.731217956542969e-05, 1.84375) (6.334110260009765e-05, 1.845703125) (6.908946228027343e-05, 1.84765625) (7.456694030761719e-05, 1.849609375) (7.985443115234375e-05, 1.8515625) (8.484712219238281e-05, 1.853515625) (8.947601318359375e-05, 1.85546875) (9.375319671630859e-05, 1.857421875) (9.767147064208984e-05, 1.859375) (0.00010121205902099609, 1.861328125) (0.00010436365509033203, 1.86328125) (0.00010712040710449218, 1.865234375) (0.00010947827148437499, 1.8671875) (0.00011144172668457031, 1.869140625) (0.00011301660919189452, 1.87109375) (0.00011419141387939452, 1.873046875) (0.0001149562759399414, 1.875) (0.00011531077575683593, 1.876953125) (0.00011525479125976561, 1.87890625) (0.00011479136657714843, 1.880859375) (0.00011392681884765625, 1.8828125) (0.00011266621398925781, 1.884765625) (0.00011101506042480468, 1.88671875) (0.00010898245239257812, 1.888671875) (0.0001065794677734375, 1.890625) (0.00010381890106201171, 1.892578125) (0.00010071526336669922, 1.89453125) (9.728355407714843e-05, 1.896484375) (9.353800201416016e-05, 1.8984375) (8.94936294555664e-05, 1.900390625) (8.516921997070312e-05, 1.90234375) (8.058720397949218e-05, 1.904296875) (7.577376556396484e-05, 1.90625) (7.075595092773437e-05, 1.908203125) (6.555755615234375e-05, 1.91015625) (6.0199378967285156e-05, 1.912109375) (5.470210266113281e-05, 1.9140625) (4.908914566040039e-05, 1.916015625) (4.338579177856445e-05, 1.91796875) (3.7617984771728514e-05, 1.919921875) (3.1809696197509764e-05, 1.921875) (2.5984556198120117e-05, 1.923828125) (2.0170936584472655e-05, 1.92578125) (1.4395767211914062e-05, 1.927734375) (8.683478355407714e-06, 1.9296875) (3.056176424026489e-06, 1.931640625) (-2.467628479003906e-06, 1.93359375) (-7.868338584899902e-06, 1.935546875) (-1.3126317977905274e-05, 1.9375) (-1.822575569152832e-05, 1.939453125) (-2.314983558654785e-05, 1.94140625) (-2.7851119995117187e-05, 1.943359375) (-3.223795318603516e-05, 1.9453125) (-3.62071533203125e-05, 1.947265625) (-3.968977355957031e-05, 1.94921875) (-4.2674110412597656e-05, 1.951171875) (-4.520008087158203e-05, 1.953125) (-4.7312442779541016e-05, 1.955078125) (-4.9015277862548824e-05, 1.95703125) (-5.036681365966797e-05, 1.958984375) (-5.158983612060547e-05, 1.9609375) (-5.2912635803222656e-05, 1.962890625) (-5.438801574707031e-05, 1.96484375) (-5.587171173095703e-05, 1.966796875) (-5.6978866577148434e-05, 1.96875) (-5.771649169921875e-05, 1.970703125) (-5.866337585449219e-05, 1.97265625) (-6.0147705078125e-05, 1.974609375) (-6.178153228759765e-05, 1.9765625) (-6.143554306030274e-05, 1.978515625) (-5.637335968017578e-05, 1.98046875) (-4.5290660858154294e-05, 1.982421875) (-2.910970115661621e-05, 1.984375) (-1.2467389106750488e-05, 1.986328125) (-6.497045755386352e-07, 1.98828125) (2.0754189491271973e-06, 1.990234375) (-7.311460018157959e-06, 1.9921875) (-2.691935348510742e-05, 1.994140625) (-5.2950103759765624e-05, 1.99609375) (-7.877110290527344e-05, 1.998046875) (-9.412806701660156e-05, 2.0) (-9.294436645507813e-05, 2.001953125) (-7.282470703125e-05, 2.00390625) (-3.79752197265625e-05, 2.005859375) (-7.961764335632324e-07, 2.0078125) (2.7976486206054687e-05, 2.009765625) (4.1616432189941403e-05, 2.01171875) (3.9749023437499996e-05, 2.013671875) (2.9829010009765625e-05, 2.015625) (2.04761962890625e-05, 2.017578125) (1.7347330093383788e-05, 2.01953125) (2.1620426177978514e-05, 2.021484375) (3.0711528778076173e-05, 2.0234375) (3.946238327026367e-05, 2.025390625) (4.427885437011719e-05, 2.02734375) (4.587176513671875e-05, 2.029296875) (4.504330444335937e-05, 2.03125) (4.507207489013672e-05, 2.033203125) (4.959111785888672e-05, 2.03515625) (5.782435226440429e-05, 2.037109375) (7.050810241699219e-05, 2.0390625) (8.600929260253906e-05, 2.041015625) (9.988368988037108e-05, 2.04296875) (0.00011023617553710936, 2.044921875) (0.00011333297729492187, 2.046875) (0.00010781742858886718, 2.048828125) (9.630013275146483e-05, 2.05078125) (8.169133758544922e-05, 2.052734375) (6.869789886474609e-05, 2.0546875) (6.085375595092773e-05, 2.056640625) (6.0189979553222657e-05, 2.05859375) (6.750691986083984e-05, 2.060546875) (8.190659332275391e-05, 2.0625) (0.00010161117553710937, 2.064453125) (0.00012119001770019531, 2.06640625) (0.00013394262695312498, 2.068359375) (0.00013474493408203124, 2.0703125) (0.00012043203735351561, 2.072265625) (9.506112670898437e-05, 2.07421875) (6.804837036132812e-05, 2.076171875) (4.772772598266601e-05, 2.078125) (4.087725448608398e-05, 2.080078125) (4.784449768066406e-05, 2.08203125) (6.240957641601562e-05, 2.083984375) (7.957646942138672e-05, 2.0859375) (9.607366943359375e-05, 2.087890625) (0.00011247677612304686, 2.08984375) (0.0001333304901123047, 2.091796875) (0.00016111590576171875, 2.09375) (0.00019602188110351561, 2.095703125) (0.00023573382568359375, 2.09765625) (0.00027608538818359375, 2.099609375) (0.0003144259033203125, 2.1015625) (0.00034897363281249997, 2.103515625) (0.000380094482421875, 2.10546875) (0.0004106384582519531, 2.107421875) (0.00044208264160156246, 2.109375) (0.00047441992187499996, 2.111328125) (0.0005020879821777343, 2.11328125) (0.0005130682983398437, 2.115234375) (0.0004968014831542969, 2.1171875) (0.0004470400390625, 2.119140625) (0.00036871160888671874, 2.12109375) (0.0002772948608398437, 2.123046875) (0.0001889723663330078, 2.125) (0.00011778060913085937, 2.126953125) (6.737159729003906e-05, 2.12890625) (3.29585075378418e-05, 2.130859375) (8.80983543395996e-06, 2.1328125) (-1.1734721183776855e-05, 2.134765625) (-2.97875919342041e-05, 2.13671875) (-4.291017913818359e-05, 2.138671875) (-5.0053657531738276e-05, 2.140625) (-5.177367401123047e-05, 2.142578125) (-5.258075332641601e-05, 2.14453125) (-5.865951538085937e-05, 2.146484375) (-7.362789916992187e-05, 2.1484375) (-9.538714599609374e-05, 2.150390625) (-0.00011729234313964844, 2.15234375) (-0.00013102360534667968, 2.154296875) (-0.00013066525268554688, 2.15625) (-0.00011703992462158202, 2.158203125) (-9.542355346679687e-05, 2.16015625) (-7.28631591796875e-05, 2.162109375) (-5.504375457763672e-05, 2.1640625) (-4.300299072265625e-05, 2.166015625) (-3.4634918212890624e-05, 2.16796875) (-2.7332942962646482e-05, 2.169921875) (-2.0235790252685547e-05, 2.171875) (-1.540989875793457e-05, 2.173828125) (-1.6711013793945312e-05, 2.17578125) (-2.6483762741088866e-05, 2.177734375) (-4.2787803649902345e-05, 2.1796875) (-6.00861701965332e-05, 2.181640625) (-7.197487640380859e-05, 2.18359375) (-7.435191345214843e-05, 2.185546875) (-6.831851196289063e-05, 2.1875) (-5.925354766845703e-05, 2.189453125) (-5.235931015014648e-05, 2.19140625) (-5.0571334838867185e-05, 2.193359375) (-5.3522655487060545e-05, 2.1953125) (-5.783269500732422e-05, 2.197265625) (-6.093086242675781e-05, 2.19921875) (-6.21353530883789e-05, 2.201171875) (-6.17869529724121e-05, 2.203125) (-6.111216735839844e-05, 2.205078125) (-6.0831928253173824e-05, 2.20703125) (-6.061919784545898e-05, 2.208984375) (-5.99643325805664e-05, 2.2109375) (-5.880683135986328e-05, 2.212890625) (-5.672402191162109e-05, 2.21484375) (-5.3340492248535154e-05, 2.216796875) (-4.9462654113769526e-05, 2.21875) (-4.5341327667236326e-05, 2.220703125) (-4.201945495605469e-05, 2.22265625) (-4.156294631958008e-05, 2.224609375) (-4.295734405517578e-05, 2.2265625) (-4.447293090820312e-05, 2.228515625) (-4.434008026123047e-05, 2.23046875) (-3.9045753479003904e-05, 2.232421875) (-2.8942779541015623e-05, 2.234375) (-1.744506072998047e-05, 2.236328125) (-6.862617969512939e-06, 2.23828125) (-8.06179940700531e-07, 2.240234375) (-3.442291021347046e-07, 2.2421875) (-2.0213079452514645e-06, 2.244140625) (-3.738776206970215e-06, 2.24609375) (-3.443282604217529e-06, 2.248046875) (4.1357886791229244e-07, 2.25) (5.772603511810302e-06, 2.251953125) (1.1278631210327148e-05, 2.25390625) (1.652424430847168e-05, 2.255859375) (2.065812301635742e-05, 2.2578125) (2.4322452545166016e-05, 2.259765625) (2.8099571228027343e-05, 2.26171875) (3.178785705566406e-05, 2.263671875) (3.548056030273437e-05, 2.265625) (3.912671279907227e-05, 2.267578125) (4.2575859069824214e-05, 2.26953125) (4.591161346435547e-05, 2.271484375) (4.920242309570312e-05, 2.2734375) (5.241580200195312e-05, 2.275390625) (5.554073333740234e-05, 2.27734375) (5.858130645751953e-05, 2.279296875) (6.15172119140625e-05, 2.28125) (6.432675170898437e-05, 2.283203125) (6.69917755126953e-05, 2.28515625) (6.948297119140625e-05, 2.287109375) (7.17679214477539e-05, 2.2890625) (7.383113098144531e-05, 2.291015625) (7.567287445068359e-05, 2.29296875) (7.729655456542968e-05, 2.294921875) (7.869198608398437e-05, 2.296875) (7.984666442871094e-05, 2.298828125) (8.07658462524414e-05, 2.30078125) (8.143856811523437e-05, 2.302734375) (8.185614776611328e-05, 2.3046875) (8.203319549560547e-05, 2.306640625) (8.193133544921875e-05, 2.30859375) (8.147669982910156e-05, 2.310546875) (8.065504455566406e-05, 2.3125) (7.946989440917969e-05, 2.314453125) (7.78427505493164e-05, 2.31640625) (7.573651885986327e-05, 2.318359375) (7.324931335449218e-05, 2.3203125) (7.035662841796875e-05, 2.322265625) (6.710552215576172e-05, 2.32421875) (6.385682678222656e-05, 2.326171875) (6.013227844238281e-05, 2.328125) (5.5368347167968746e-05, 2.330078125) (5.026157760620117e-05, 2.33203125) (4.4819278717041016e-05, 2.333984375) (4.052631378173828e-05, 2.3359375) (3.980764389038086e-05, 2.337890625) (4.080730056762695e-05, 2.33984375) (4.153460693359375e-05, 2.341796875) (3.880332946777344e-05, 2.34375) (2.770478057861328e-05, 2.345703125) (1.0247142791748046e-05, 2.34765625) (-9.216012954711913e-06, 2.349609375) (-2.5784942626953123e-05, 2.3515625) (-3.3139526367187496e-05, 2.353515625) (-3.1479978561401365e-05, 2.35546875) (-2.4445470809936522e-05, 2.357421875) (-1.617158317565918e-05, 2.359375) (-1.1346529006958008e-05, 2.361328125) (-1.1394311904907226e-05, 2.36328125) (-1.688210868835449e-05, 2.365234375) (-2.849105072021484e-05, 2.3671875) (-4.6486339569091794e-05, 2.369140625) (-7.086503601074218e-05, 2.37109375) (-9.748014831542969e-05, 2.373046875) (-0.00011907170104980469, 2.375) (-0.00012895645141601563, 2.376953125) (-0.00012266837310791014, 2.37890625) (-0.00010319241333007811, 2.380859375) (-8.056714630126952e-05, 2.3828125) (-6.509019470214844e-05, 2.384765625) (-6.414469146728515e-05, 2.38671875) (-7.829539489746093e-05, 2.388671875) (-9.98385772705078e-05, 2.390625) (-0.00011951055908203124, 2.392578125) (-0.00013178140258789063, 2.39453125) (-0.00013497384643554688, 2.396484375) (-0.0001331551055908203, 2.3984375) (-0.00013231153869628905, 2.400390625) (-0.00013351676940917968, 2.40234375) (-0.0001365287170410156, 2.404296875) (-0.00013918173217773437, 2.40625) (-0.00013794418334960937, 2.408203125) (-0.00013440460205078124, 2.41015625) (-0.00013044293212890624, 2.412109375) (-0.00012734294128417968, 2.4140625) (-0.00012720379638671875, 2.416015625) (-0.00012858929443359374, 2.41796875) (-0.00012990338134765623, 2.419921875) (-0.0001307669677734375, 2.421875) (-0.00013030911254882812, 2.423828125) (-0.00012900698852539062, 2.42578125) (-0.00012750637817382813, 2.427734375) (-0.00012570849609375, 2.4296875) (-0.0001237385025024414, 2.431640625) (-0.00012162373352050781, 2.43359375) (-0.0001192886734008789, 2.435546875) (-0.0001168400650024414, 2.4375) (-0.00011437271118164062, 2.439453125) (-0.00011190637207031249, 2.44140625) (-0.00010947445678710937, 2.443359375) (-0.00010711886596679687, 2.4453125) (-0.00010483377075195312, 2.447265625) (-0.00010256535339355469, 2.44921875) (-0.00010028306579589844, 2.451171875) (-9.799319458007812e-05, 2.453125) (-9.562783813476562e-05, 2.455078125) (-9.302589416503906e-05, 2.45703125) (-9.016205596923827e-05, 2.458984375) (-8.712184906005858e-05, 2.4609375) (-8.390499877929687e-05, 2.462890625) (-8.067903900146484e-05, 2.46484375) (-7.711104583740234e-05, 2.466796875) (-7.209987640380859e-05, 2.46875) (-6.580953979492188e-05, 2.470703125) (-5.925691986083984e-05, 2.47265625) (-5.403409194946289e-05, 2.474609375) (-5.320145034790039e-05, 2.4765625) (-5.6742179870605464e-05, 2.478515625) (-6.160675048828124e-05, 2.48046875) (-6.484098815917968e-05, 2.482421875) (-6.225420761108398e-05, 2.484375) (-5.3498336791992185e-05, 2.486328125) (-4.2771530151367184e-05, 2.48828125) (-3.327241134643555e-05, 2.490234375) (-2.835506248474121e-05, 2.4921875) (-2.8759212493896482e-05, 2.494140625) (-3.137355041503906e-05, 2.49609375) (-3.420687866210937e-05, 2.498046875) (-3.591851425170898e-05, 2.5) (-3.582978057861328e-05, 2.501953125) (-3.498798370361328e-05, 2.50390625) (-3.403318405151367e-05, 2.505859375) (-3.294657135009766e-05, 2.5078125) (-3.173903274536133e-05, 2.509765625) (-3.0392261505126953e-05, 2.51171875) (-2.88835334777832e-05, 2.513671875) (-2.7340045928955076e-05, 2.515625) (-2.6274412155151367e-05, 2.517578125) (-2.595730209350586e-05, 2.51953125) (-2.6171119689941407e-05, 2.521484375) (-2.693619918823242e-05, 2.5234375) (-2.8151655197143554e-05, 2.525390625) (-2.914691162109375e-05, 2.52734375) (-2.9654788970947264e-05, 2.529296875) (-2.8917354583740233e-05, 2.53125) (-2.489261245727539e-05, 2.533203125) (-1.6400030136108397e-05, 2.53515625) (-3.5152628421783446e-06, 2.537109375) (1.2143980026245117e-05, 2.5390625) (2.7375701904296873e-05, 2.541015625) (3.982299041748047e-05, 2.54296875) (4.992494201660156e-05, 2.544921875) (6.210915374755859e-05, 2.546875) (8.113520050048828e-05, 2.548828125) (0.0001097354507446289, 2.55078125) (0.00014873825073242187, 2.552734375) (0.00019268670654296874, 2.5546875) (0.00023418331909179685, 2.556640625) (0.00026712225341796875, 2.55859375) (0.0002823218383789062, 2.560546875) (0.00027375421142578126, 2.5625) (0.0002399013671875, 2.564453125) (0.00018004765319824218, 2.56640625) (0.00010063911437988281, 2.568359375) (1.2852831840515137e-05, 2.5703125) (-7.394691467285157e-05, 2.572265625) (-0.0001485947265625, 2.57421875) (-0.0002025404815673828, 2.576171875) (-0.00023501597595214843, 2.578125) (-0.0002469639434814453, 2.580078125) (-0.00024393734741210937, 2.58203125) (-0.00023603218078613281, 2.583984375) (-0.0002278788146972656, 2.5859375) (-0.00022199652099609373, 2.587890625) (-0.00021885162353515623, 2.58984375) (-0.00021345834350585937, 2.591796875) (-0.00020435276794433593, 2.59375) (-0.00019247294616699218, 2.595703125) (-0.00017810227966308593, 2.59765625) (-0.00016463690185546874, 2.599609375) (-0.00015390420532226563, 2.6015625) (-0.00014560299682617186, 2.603515625) (-0.00013997760009765625, 2.60546875) (-0.00013586228942871092, 2.607421875) (-0.0001319694061279297, 2.609375) (-0.00012780455017089842, 2.611328125) (-0.00012294135284423828, 2.61328125) (-0.00011737770843505859, 2.615234375) (-0.00011135820007324218, 2.6171875) (-0.000105078369140625, 2.619140625) (-9.871963500976562e-05, 2.62109375) (-9.24888687133789e-05, 2.623046875) (-8.666663360595702e-05, 2.625) (-8.154187774658203e-05, 2.626953125) (-7.722042846679687e-05, 2.62890625) (-7.367980957031249e-05, 2.630859375) (-7.080471801757813e-05, 2.6328125) (-6.837960815429688e-05, 2.634765625) (-6.624738311767577e-05, 2.63671875) (-6.426031494140624e-05, 2.638671875) (-6.221858596801758e-05, 2.640625) (-5.9964443206787104e-05, 2.642578125) (-5.738215637207031e-05, 2.64453125) (-5.439076232910156e-05, 2.646484375) (-5.0976837158203126e-05, 2.6484375) (-4.715407180786132e-05, 2.650390625) (-4.29173583984375e-05, 2.65234375) (-3.8272758483886716e-05, 2.654296875) (-3.323905181884765e-05, 2.65625) (-2.7831249237060547e-05, 2.658203125) (-2.2089912414550782e-05, 2.66015625) (-1.605807876586914e-05, 2.662109375) (-9.76610279083252e-06, 2.6640625) (-3.261010646820068e-06, 2.666015625) (3.4088973999023434e-06, 2.66796875) (1.019036865234375e-05, 2.669921875) (1.7016124725341798e-05, 2.671875) (2.3838443756103516e-05, 2.673828125) (3.0628417968749996e-05, 2.67578125) (3.736255645751953e-05, 2.677734375) (4.403054046630859e-05, 2.6796875) (5.062770080566406e-05, 2.681640625) (5.714485931396484e-05, 2.68359375) (6.358311462402344e-05, 2.685546875) (6.995238494873047e-05, 2.6875) (7.625310516357421e-05, 2.689453125) (8.24866485595703e-05, 2.69140625) (8.865328979492187e-05, 2.693359375) (9.474505615234375e-05, 2.6953125) (0.00010076237487792968, 2.697265625) (0.00010671229553222656, 2.69921875) (0.00011259539794921875, 2.701171875) (0.00011841304016113281, 2.703125) (0.00012417045593261718, 2.705078125) (0.0001298626251220703, 2.70703125) (0.0001354858856201172, 2.708984375) (0.000141042236328125, 2.7109375) (0.00014651116943359375, 2.712890625) (0.00015186015319824218, 2.71484375) (0.0001570736389160156, 2.716796875) (0.00016213200378417967, 2.71875) (0.0001669991760253906, 2.720703125) (0.00017166046142578123, 2.72265625) (0.00017609130859375, 2.724609375) (0.00018024487304687498, 2.7265625) (0.00018413343811035155, 2.728515625) (0.00018780430603027344, 2.73046875) (0.0001912509307861328, 2.732421875) (0.0001944560546875, 2.734375) (0.00019748330688476563, 2.736328125) (0.00020036566162109375, 2.73828125) (0.00020302235412597656, 2.740234375) (0.00020549221801757813, 2.7421875) (0.00020773187255859375, 2.744140625) (0.0002093681945800781, 2.74609375) (0.00021089849853515624, 2.748046875) (0.000212887939453125, 2.75) (0.00021457647705078124, 2.751953125) (0.00021592601013183593, 2.75390625) (0.00021523675537109374, 2.755859375) (0.00020987129211425781, 2.7578125) (0.0002018766632080078, 2.759765625) (0.0001933548889160156, 2.76171875) (0.00018761767578125, 2.763671875) (0.00018992123413085935, 2.765625) (0.00019778736877441405, 2.767578125) (0.0002065402374267578, 2.76953125) (0.0002120587921142578, 2.771484375) (0.00020828486633300781, 2.7734375) (0.0001966894073486328, 2.775390625) (0.0001825683898925781, 2.77734375) (0.00016928073120117185, 2.779296875) (0.00016117259216308594, 2.78125) (0.00015815301513671874, 2.783203125) (0.0001566333770751953, 2.78515625) (0.00015513497924804688, 2.787109375) (0.00015214892578124998, 2.7890625) (0.00014764157104492186, 2.791015625) (0.00014405352783203125, 2.79296875) (0.00014159382629394532, 2.794921875) (0.00013905258178710937, 2.796875) (0.00013490788269042967, 2.798828125) (0.0001253984375, 2.80078125) (0.0001097108154296875, 2.802734375) (9.156036376953125e-05, 2.8046875) (7.534941101074218e-05, 2.806640625) (6.745328521728515e-05, 2.80859375) (7.107387542724609e-05, 2.810546875) (8.161231994628906e-05, 2.8125) (9.277423858642578e-05, 2.814453125) (9.790739440917968e-05, 2.81640625) (9.275306701660156e-05, 2.818359375) (8.118077087402343e-05, 2.8203125) (6.871824645996093e-05, 2.822265625) (5.883551788330078e-05, 2.82421875) (5.358696746826172e-05, 2.826171875) (4.9457550048828124e-05, 2.828125) (4.337767791748047e-05, 2.830078125) (3.5938919067382814e-05, 2.83203125) (2.8217941284179688e-05, 2.833984375) (2.4732330322265624e-05, 2.8359375) (2.720568084716797e-05, 2.837890625) (3.3607048034667964e-05, 2.83984375) (4.256850051879883e-05, 2.841796875) (4.922058868408203e-05, 2.84375) (5.1573482513427734e-05, 2.845703125) (5.0555255889892574e-05, 2.84765625) (4.5572555541992187e-05, 2.849609375) (4.0038009643554684e-05, 2.8515625) (3.6175216674804684e-05, 2.853515625) (3.415373611450195e-05, 2.85546875) (3.5561439514160154e-05, 2.857421875) (3.8896778106689454e-05, 2.859375) (4.255758285522461e-05, 2.861328125) (4.6332450866699216e-05, 2.86328125) (4.928799057006836e-05, 2.865234375) (5.179530334472656e-05, 2.8671875) (5.4503299713134766e-05, 2.869140625) (5.729630279541015e-05, 2.87109375) (6.0255062103271485e-05, 2.873046875) (6.33294448852539e-05, 2.875) (6.640330505371094e-05, 2.876953125) (6.96185302734375e-05, 2.87890625) (7.30946044921875e-05, 2.880859375) (7.684616088867187e-05, 2.8828125) (8.087326049804688e-05, 2.884765625) (8.514640045166015e-05, 2.88671875) (8.964308166503905e-05, 2.888671875) (9.43595199584961e-05, 2.890625) (9.92942886352539e-05, 2.892578125) (0.00010444755554199218, 2.89453125) (0.00010980010223388672, 2.896484375) (0.00011532410430908202, 2.8984375) (0.00012101446533203124, 2.900390625) (0.000126878662109375, 2.90234375) (0.0001329094543457031, 2.904296875) (0.00013909222412109376, 2.90625) (0.00014534799194335936, 2.908203125) (0.0001515186767578125, 2.91015625) (0.00015747692871093748, 2.912109375) (0.00016313156127929686, 2.9140625) (0.00016841680908203125, 2.916015625) (0.00017333851623535154, 2.91796875) (0.00017788351440429687, 2.919921875) (0.00018198597717285155, 2.921875) (0.0001856759796142578, 2.923828125) (0.00018905422973632813, 2.92578125) (0.0001922863311767578, 2.927734375) (0.00019566351318359374, 2.9296875) (0.00019940769958496092, 2.931640625) (0.00020358541870117187, 2.93359375) (0.00020827072143554686, 2.935546875) (0.0002135537872314453, 2.9375) (0.00021938177490234373, 2.939453125) (0.00022568663024902341, 2.94140625) (0.00023228347778320312, 2.943359375) (0.00023867758178710937, 2.9453125) (0.0002444221038818359, 2.947265625) (0.00024922233581542967, 2.94921875) (0.00025289511108398435, 2.951171875) (0.00025553500366210934, 2.953125) (0.00025774691772460935, 2.955078125) (0.0002603679809570312, 2.95703125) (0.0002641834106445312, 2.958984375) (0.0002702312622070312, 2.9609375) (0.00027956195068359375, 2.962890625) (0.00029316436767578126, 2.96484375) (0.00031204144287109374, 2.966796875) (0.0003366421203613281, 2.96875) (0.00036624060058593747, 2.970703125) (0.00039938577270507813, 2.97265625) (0.00043473205566406245, 2.974609375) (0.00047079345703125, 2.9765625) (0.0005060028076171875, 2.978515625) (0.000538531005859375, 2.98046875) (0.0005658283081054688, 2.982421875) (0.00058563330078125, 2.984375) (0.0005968994750976562, 2.986328125) (0.0005993229370117188, 2.98828125) (0.0005928103027343749, 2.990234375) (0.0005772412719726562, 2.9921875) (0.000552884521484375, 2.994140625) (0.0005212144165039062, 2.99609375) (0.0004840701904296875, 2.998046875) (0.00044318658447265624, 3.0) (0.00039910791015625, 3.001953125) (0.0003507389221191406, 3.00390625) (0.000299758056640625, 3.005859375) (0.0002505770416259766, 3.0078125) (0.00020806820678710936, 3.009765625) (0.00017789501953124998, 3.01171875) (0.00016071926879882812, 3.013671875) (0.00015226998901367186, 3.015625) (0.00014915092468261717, 3.017578125) (0.0001478417053222656, 3.01953125) (0.000147390380859375, 3.021484375) (0.00015002975463867187, 3.0234375) (0.0001558994140625, 3.025390625) (0.00016404588317871094, 3.02734375) (0.00017356588745117186, 3.029296875) (0.00018326281738281248, 3.03125) (0.00019417962646484373, 3.033203125) (0.00020879278564453125, 3.03515625) (0.00022790496826171873, 3.037109375) (0.0002496836242675781, 3.0390625) (0.00026913970947265624, 3.041015625) (0.00028035092163085937, 3.04296875) (0.000280559814453125, 3.044921875) (0.00027171685791015624, 3.046875) (0.00025973052978515624, 3.048828125) (0.00025067726135253904, 3.05078125) (0.00024753857421874997, 3.052734375) (0.00024961190795898437, 3.0546875) (0.0002537850036621094, 3.056640625) (0.0002578431701660156, 3.05859375) (0.00026119857788085935, 3.060546875) (0.0002643141479492187, 3.0625) (0.0002681767578125, 3.064453125) (0.0002728011169433594, 3.06640625) (0.00027773605346679685, 3.068359375) (0.00028279058837890625, 3.0703125) (0.00028773040771484375, 3.072265625) (0.0002924643859863281, 3.07421875) (0.0002970773620605469, 3.076171875) (0.0003015699462890625, 3.078125) (0.000306058837890625, 3.080078125) (0.0003108934326171875, 3.08203125) (0.00031628851318359373, 3.083984375) (0.0003222939758300781, 3.0859375) (0.00032890478515625, 3.087890625) (0.0003360348510742187, 3.08984375) (0.0003436182861328125, 3.091796875) (0.0003516554870605469, 3.09375) (0.0003601107482910156, 3.095703125) (0.00036888388061523435, 3.09765625) (0.00037788604736328123, 3.099609375) (0.00038702282714843747, 3.1015625) (0.0003962222290039062, 3.103515625) (0.00040548486328125, 3.10546875) (0.00041478744506835935, 3.107421875) (0.0004240793151855469, 3.109375) (0.0004333244934082031, 3.111328125) (0.00044246371459960934, 3.11328125) (0.0004514753723144531, 3.115234375) (0.00046043185424804684, 3.1171875) (0.00046939971923828125, 3.119140625) (0.00047837554931640623, 3.12109375) (0.00048742025756835935, 3.123046875) (0.0004966626586914063, 3.125) (0.0005060883178710937, 3.126953125) (0.0005156588134765625, 3.12890625) (0.000525370849609375, 3.130859375) (0.0005348863525390624, 3.1328125) (0.0005443858642578124, 3.134765625) (0.0005548650512695312, 3.13671875) (0.0005661261596679688, 3.138671875) (0.0005773619384765625, 3.140625) (0.0005867133178710937, 3.142578125) (0.0005902526245117187, 3.14453125) (0.0005876426391601562, 3.146484375) (0.0005824459838867187, 3.1484375) (0.0005799427490234375, 3.150390625) (0.000587798583984375, 3.15234375) (0.0006079867553710937, 3.154296875) (0.000634786376953125, 3.15625) (0.0006600479736328125, 3.158203125) (0.0006746317138671874, 3.16015625) (0.0006751207275390625, 3.162109375) (0.0006664376220703124, 3.1640625) (0.00065614892578125, 3.166015625) (0.00065098828125, 3.16796875) (0.00065382568359375, 3.169921875) (0.0006622822875976562, 3.171875) (0.0006720623168945312, 3.173828125) (0.000680322265625, 3.17578125) (0.0006860048217773437, 3.177734375) (0.0006896640014648438, 3.1796875) (0.0006926131591796875, 3.181640625) (0.0006952105712890624, 3.18359375) (0.0006972198486328125, 3.185546875) (0.0006986098022460938, 3.1875) (0.0006992799072265625, 3.189453125) (0.0006992905883789062, 3.19140625) (0.0006990322875976562, 3.193359375) (0.0006981693115234375, 3.1953125) (0.0006964067382812499, 3.197265625) (0.0006945423583984375, 3.19921875) (0.0006926994018554687, 3.201171875) (0.0006921281738281249, 3.203125) (0.0006940976562499999, 3.205078125) (0.0006968870849609375, 3.20703125) (0.0007000506591796874, 3.208984375) (0.000701445556640625, 3.2109375) (0.0006977332153320313, 3.212890625) (0.0006897422485351562, 3.21484375) (0.0006762965698242187, 3.216796875) (0.000658219970703125, 3.21875) (0.0006401299438476562, 3.220703125) (0.00062364013671875, 3.22265625) (0.0006138999633789063, 3.224609375) (0.0006155120849609375, 3.2265625) (0.0006270433959960938, 3.228515625) (0.0006473289794921875, 3.23046875) (0.0006692297973632812, 3.232421875) (0.0006820431518554688, 3.234375) (0.0006806067504882813, 3.236328125) (0.0006617432250976562, 3.23828125) (0.0006294230346679687, 3.240234375) (0.0005948084716796874, 3.2421875) (0.0005665703125, 3.244140625) (0.000550450927734375, 3.24609375) (0.0005475752563476562, 3.248046875) (0.0005544074096679687, 3.25) (0.000568744140625, 3.251953125) (0.0005922392578125, 3.25390625) (0.0006267198486328124, 3.255859375) (0.0006705013427734375, 3.2578125) (0.0007157581787109375, 3.259765625) (0.0007469169311523437, 3.26171875) (0.000748370849609375, 3.263671875) (0.0007120972900390625, 3.265625) (0.0006411558227539063, 3.267578125) (0.0005513211059570313, 3.26953125) (0.0004638981323242187, 3.271484375) (0.000397423095703125, 3.2734375) (0.0003637367553710937, 3.275390625) (0.0003644764404296875, 3.27734375) (0.00039385028076171873, 3.279296875) (0.00044529052734375, 3.28125) (0.0005104287719726562, 3.283203125) (0.0005807213134765625, 3.28515625) (0.0006475447387695312, 3.287109375) (0.0006973049316406249, 3.2890625) (0.000718770751953125, 3.291015625) (0.0007081124267578125, 3.29296875) (0.0006699686279296875, 3.294921875) (0.0006205321044921875, 3.296875) (0.0005785941162109374, 3.298828125) (0.0005556605834960937, 3.30078125) (0.00055366650390625, 3.302734375) (0.000564372802734375, 3.3046875) (0.0005754788208007812, 3.306640625) (0.00057949853515625, 3.30859375) (0.0005752371215820313, 3.310546875) (0.0005663801879882812, 3.3125) (0.00055843896484375, 3.314453125) (0.0005548590698242188, 3.31640625) (0.0005560330200195312, 3.318359375) (0.000559713134765625, 3.3203125) (0.0005639952392578124, 3.322265625) (0.0005659598388671875, 3.32421875) (0.0005630707397460937, 3.326171875) (0.0005577240600585937, 3.328125) (0.0005512135009765625, 3.330078125) (0.0005472142333984375, 3.33203125) (0.0005510716552734375, 3.333984375) (0.0005588712768554687, 3.3359375) (0.0005669855346679687, 3.337890625) (0.0005712091674804688, 3.33984375) (0.0005646093139648437, 3.341796875) (0.0005519844970703125, 3.34375) (0.0005399685668945313, 3.345703125) (0.0005323790893554687, 3.34765625) (0.0005362073974609375, 3.349609375) (0.0005494947509765625, 3.3515625) (0.0005668463134765625, 3.353515625) (0.0005870734252929687, 3.35546875) (0.0006053022460937499, 3.357421875) (0.0006179583129882812, 3.359375) (0.00062348828125, 3.361328125) (0.0006180484619140625, 3.36328125) (0.0006009550170898438, 3.365234375) (0.0005754977416992188, 3.3671875) (0.0005455119018554687, 3.369140625) (0.0005143590698242187, 3.37109375) (0.0004845835266113281, 3.373046875) (0.0004571379699707031, 3.375) (0.00043295028686523435, 3.376953125) (0.00041482345581054684, 3.37890625) (0.0004050738830566406, 3.380859375) (0.0004043009338378906, 3.3828125) (0.0004109256286621094, 3.384765625) (0.00042112152099609376, 3.38671875) (0.000430549560546875, 3.388671875) (0.00043439230346679686, 3.390625) (0.0004304738464355469, 3.392578125) (0.000420173095703125, 3.39453125) (0.00040523431396484374, 3.396484375) (0.0003899695434570312, 3.3984375) (0.00037648495483398435, 3.400390625) (0.0003605942077636719, 3.40234375) (0.00034159970092773436, 3.404296875) (0.0003216927490234375, 3.40625) (0.00030638009643554686, 3.408203125) (0.00030939154052734376, 3.41015625) (0.00033560565185546874, 3.412109375) (0.000376073486328125, 3.4140625) (0.00041574462890625, 3.416015625) (0.000432921875, 3.41796875) (0.0004177840881347656, 3.419921875) (0.0003825754699707031, 3.421875) (0.0003488319702148437, 3.423828125) (0.0003404262084960937, 3.42578125) (0.00037045492553710934, 3.427734375) (0.0004295208129882812, 3.4296875) (0.0004954453125, 3.431640625) (0.0005447793579101563, 3.43359375) (0.0005587999267578124, 3.435546875) (0.0005331640625, 3.4375) (0.00047570019531249997, 3.439453125) (0.0003966806030273437, 3.44140625) (0.0003066140747070312, 3.443359375) (0.00021092208862304686, 3.4453125) (0.00011013353729248047, 3.447265625) (5.6097345352172846e-06, 3.44921875) (-9.825750732421875e-05, 3.451171875) (-0.00019288607788085936, 3.453125) (-0.0002705973510742187, 3.455078125) (-0.00032784246826171874, 3.45703125) (-0.0003671552734375, 3.458984375) (-0.00039660800170898436, 3.4609375) (-0.0004216758728027344, 3.462890625) (-0.00044410275268554685, 3.46484375) (-0.00046290191650390623, 3.466796875) (-0.0004747098388671875, 3.46875) (-0.00047918585205078125, 3.470703125) (-0.0004789875183105469, 3.47265625) (-0.00047711337280273436, 3.474609375) (-0.0004769761047363281, 3.4765625) (-0.0004810283203125, 3.478515625) (-0.0004904328918457031, 3.48046875) (-0.0005057957763671875, 3.482421875) (-0.0005271100463867187, 3.484375) (-0.0005537501220703125, 3.486328125) (-0.0005844508056640625, 3.48828125) (-0.0006179053955078125, 3.490234375) (-0.000652741455078125, 3.4921875) (-0.0006871519165039062, 3.494140625) (-0.0007196368408203124, 3.49609375) (-0.0007492347412109375, 3.498046875) (-0.0007752789306640624, 3.5) (-0.0007977048950195312, 3.501953125) (-0.0008170021362304687, 3.50390625) (-0.0008336424560546875, 3.505859375) (-0.0008483150634765624, 3.5078125) (-0.0008620802001953125, 3.509765625) (-0.0008756536865234375, 3.51171875) (-0.0008894301147460937, 3.513671875) (-0.0009036754150390624, 3.515625) (-0.000918296142578125, 3.517578125) (-0.0009330798950195312, 3.51953125) (-0.0009478909912109375, 3.521484375) (-0.0009624251098632812, 3.5234375) (-0.0009762647705078124, 3.525390625) (-0.0009891845703124999, 3.52734375) (-0.001001072021484375, 3.529296875) (-0.0010118956298828124, 3.53125) (-0.0010217638549804688, 3.533203125) (-0.0010307475585937499, 3.53515625) (-0.0010388764648437499, 3.537109375) (-0.0010462371826171874, 3.5390625) (-0.0010529190673828125, 3.541015625) (-0.001058999267578125, 3.54296875) (-0.001064551513671875, 3.544921875) (-0.0010696192626953125, 3.546875) (-0.0010742349853515624, 3.548828125) (-0.00107844091796875, 3.55078125) (-0.001082273681640625, 3.552734375) (-0.0010857789306640624, 3.5546875) (-0.001089, 3.556640625) (-0.00109193212890625, 3.55859375) (-0.0010945791015625, 3.560546875) (-0.00109697314453125, 3.5625) (-0.0010991359863281249, 3.564453125) (-0.0011011072998046874, 3.56640625) (-0.0011029569091796875, 3.568359375) (-0.0011047171630859374, 3.5703125) (-0.001106417236328125, 3.572265625) (-0.0011082020263671875, 3.57421875) (-0.00111018798828125, 3.576171875) (-0.0011122733154296874, 3.578125) (-0.0011144000244140626, 3.580078125) (-0.0011165816650390624, 3.58203125) (-0.0011185775146484375, 3.583984375) (-0.00112070947265625, 3.5859375) (-0.00112338525390625, 3.587890625) (-0.001125963623046875, 3.58984375) (-0.0011283505859374999, 3.591796875) (-0.0011297724609375, 3.59375) (-0.0011285643310546874, 3.595703125) (-0.0011251009521484375, 3.59765625) (-0.0011199833984375, 3.599609375) (-0.00111541357421875, 3.6015625) (-0.001116482666015625, 3.603515625) (-0.001126673828125, 3.60546875) (-0.0011469989013671875, 3.607421875) (-0.0011731328125, 3.609375) (-0.0011945225830078125, 3.611328125) (-0.001200747314453125, 3.61328125) (-0.0011860074462890626, 3.615234375) (-0.001155540771484375, 3.6171875) (-0.001124480712890625, 3.619140625) (-0.0011081074218749999, 3.62109375) (-0.001116611328125, 3.623046875) (-0.001145936767578125, 3.625) (-0.0011805343017578125, 3.626953125) (-0.0012063099365234374, 3.62890625) (-0.00121330126953125, 3.630859375) (-0.001203634765625, 3.6328125) (-0.0011882873535156249, 3.634765625) (-0.0011745848388671875, 3.63671875) (-0.0011669910888671875, 3.638671875) (-0.001162857666015625, 3.640625) (-0.00115627685546875, 3.642578125) (-0.00114705126953125, 3.64453125) (-0.001136906494140625, 3.646484375) (-0.0011316226806640625, 3.6484375) (-0.00113690087890625, 3.650390625) (-0.0011516778564453125, 3.65234375) (-0.001173599853515625, 3.654296875) (-0.001195894287109375, 3.65625) (-0.0012096278076171875, 3.658203125) (-0.00121059912109375, 3.66015625) (-0.001195019287109375, 3.662109375) (-0.00116481494140625, 3.6640625) (-0.001128557373046875, 3.666015625) (-0.001096113037109375, 3.66796875) (-0.0010795507812499999, 3.669921875) (-0.001086553466796875, 3.671875) (-0.00111790625, 3.673828125) (-0.0011665123291015624, 3.67578125) (-0.0012186933593749999, 3.677734375) (-0.0012610377197265624, 3.6796875) (-0.0012816072998046875, 3.681640625) (-0.00127712255859375, 3.68359375) (-0.0012524796142578125, 3.685546875) (-0.0012141619873046875, 3.6875) (-0.001170973388671875, 3.689453125) (-0.00112753369140625, 3.69140625) (-0.0010830767822265625, 3.693359375) (-0.001037042236328125, 3.6953125) (-0.000989122314453125, 3.697265625) (-0.0009397148437499999, 3.69921875) (-0.0008911580810546875, 3.701171875) (-0.0008447539062499999, 3.703125) (-0.0007984239501953124, 3.705078125) (-0.0007527869262695312, 3.70703125) (-0.00071157275390625, 3.708984375) (-0.0006802604370117187, 3.7109375) (-0.0006687169189453125, 3.712890625) (-0.0006797689208984374, 3.71484375) (-0.0007066213989257812, 3.716796875) (-0.0007381148071289062, 3.71875) (-0.0007566465454101562, 3.720703125) (-0.0007518117065429687, 3.72265625) (-0.0007248814697265625, 3.724609375) (-0.0006823703613281249, 3.7265625) (-0.0006390546875, 3.728515625) (-0.0006070001831054687, 3.73046875) (-0.0005897562866210937, 3.732421875) (-0.0005877337646484375, 3.734375) (-0.0005944168701171875, 3.736328125) (-0.0006018478393554687, 3.73828125) (-0.0006066403808593749, 3.740234375) (-0.0006063162841796875, 3.7421875) (-0.0006017186279296875, 3.744140625) (-0.0005960301513671874, 3.74609375) (-0.0005902699584960937, 3.748046875) (-0.0005851160278320313, 3.75) (-0.0005806534423828124, 3.751953125) (-0.0005758351440429688, 3.75390625) (-0.0005704901123046875, 3.755859375) (-0.0005647391357421874, 3.7578125) (-0.0005586217041015625, 3.759765625) (-0.0005524683837890625, 3.76171875) (-0.0005462523193359375, 3.763671875) (-0.0005404476318359375, 3.765625) (-0.000535521484375, 3.767578125) (-0.0005306464233398437, 3.76953125) (-0.0005255255126953125, 3.771484375) (-0.000518646240234375, 3.7734375) (-0.0005081463623046875, 3.775390625) (-0.0004957536010742188, 3.77734375) (-0.0004826581420898437, 3.779296875) (-0.00047083566284179687, 3.78125) (-0.00046331442260742187, 3.783203125) (-0.0004579627990722656, 3.78515625) (-0.0004521571044921875, 3.787109375) (-0.0004440557861328125, 3.7890625) (-0.00043160321044921873, 3.791015625) (-0.0004187933349609375, 3.79296875) (-0.0004128319091796875, 3.794921875) (-0.0004189666748046875, 3.796875) (-0.0004394371337890625, 3.798828125) (-0.0004682798461914062, 3.80078125) (-0.0004917083129882812, 3.802734375) (-0.0004962891235351562, 3.8046875) (-0.00047390133666992186, 3.806640625) (-0.0004272503662109375, 3.80859375) (-0.00037211553955078123, 3.810546875) (-0.0003286928405761719, 3.8125) (-0.0003140167541503906, 3.814453125) (-0.00033501657104492184, 3.81640625) (-0.00038273645019531246, 3.818359375) (-0.00043904156494140625, 3.8203125) (-0.00048407818603515623, 3.822265625) (-0.00050264794921875, 3.82421875) (-0.0004927601928710937, 3.826171875) (-0.00046217706298828123, 3.828125) (-0.00042286679077148436, 3.830078125) (-0.00038746697998046873, 3.83203125) (-0.00036124377441406247, 3.833984375) (-0.0003430711975097656, 3.8359375) (-0.00032853027343749996, 3.837890625) (-0.00031186614990234374, 3.83984375) (-0.0002916302185058594, 3.841796875) (-0.0002690872497558594, 3.84375) (-0.00024736973571777343, 3.845703125) (-0.00022958258056640624, 3.84765625) (-0.00021420925903320313, 3.849609375) (-0.0001994371337890625, 3.8515625) (-0.00018285842895507813, 3.853515625) (-0.00016184304809570312, 3.85546875) (-0.0001384294738769531, 3.857421875) (-0.00011446627044677734, 3.859375) (-9.154457092285156e-05, 3.861328125) (-7.268568420410156e-05, 3.86328125) (-5.824502944946289e-05, 3.865234375) (-4.834694671630859e-05, 3.8671875) (-4.4408348083496094e-05, 3.869140625) (-4.7732379913330074e-05, 3.87109375) (-5.990721130371093e-05, 3.873046875) (-8.21510772705078e-05, 3.875) (-0.00011257659912109375, 3.876953125) (-0.00014582765197753905, 3.87890625) (-0.000179087890625, 3.880859375) (-0.00021248870849609373, 3.8828125) (-0.0002502558898925781, 3.884765625) (-0.00030170941162109376, 3.88671875) (-0.0003691538391113281, 3.888671875) (-0.00044707879638671873, 3.890625) (-0.0005233870849609374, 3.892578125) (-0.0005786145629882812, 3.89453125) (-0.0005995682373046875, 3.896484375) (-0.0005812714233398437, 3.8984375) (-0.000528707763671875, 3.900390625) (-0.00045925006103515623, 3.90234375) (-0.0003932237548828125, 3.904296875) (-0.0003518102416992187, 3.90625) (-0.000348437744140625, 3.908203125) (-0.0003818958740234375, 3.91015625) (-0.0004389015197753906, 3.912109375) (-0.0004944613342285156, 3.9140625) (-0.0005241333618164062, 3.916015625) (-0.0005157457275390625, 3.91796875) (-0.0004724755859375, 3.919921875) (-0.0004133732299804687, 3.921875) (-0.0003620132446289062, 3.923828125) (-0.0003338492736816406, 3.92578125) (-0.0003312720031738281, 3.927734375) (-0.0003437022705078125, 3.9296875) (-0.0003567506408691406, 3.931640625) (-0.00035999182128906246, 3.93359375) (-0.00034993359375, 3.935546875) (-0.00033166622924804686, 3.9375) (-0.00031166195678710936, 3.939453125) (-0.00029619653320312497, 3.94140625) (-0.000291868408203125, 3.943359375) (-0.00029848083496093747, 3.9453125) (-0.00031353399658203126, 3.947265625) (-0.00033257122802734374, 3.94921875) (-0.0003451439514160156, 3.951171875) (-0.0003449921875, 3.953125) (-0.0003296235961914062, 3.955078125) (-0.00029640570068359374, 3.95703125) (-0.00024972848510742185, 3.958984375) (-0.00019647218322753904, 3.9609375) (-0.0001428134307861328, 3.962890625) (-0.00010077294921874999, 3.96484375) (-8.02466583251953e-05, 3.966796875) (-8.291222381591797e-05, 3.96875) (-0.00010612395477294922, 3.970703125) (-0.0001381391143798828, 3.97265625) (-0.00016393315124511718, 3.974609375) (-0.0001775196533203125, 3.9765625) (-0.00017972457885742188, 3.978515625) (-0.0001778720703125, 3.98046875) (-0.0001812474670410156, 3.982421875) (-0.00018926576232910155, 3.984375) (-0.00019187455749511718, 3.986328125) (-0.0001756183624267578, 3.98828125) (-0.00013080780029296873, 3.990234375) (-6.0726531982421874e-05, 3.9921875) (1.6688699722290038e-05, 3.994140625) (7.826908874511719e-05, 3.99609375) (0.00010685044860839843, 3.998046875) (9.83264389038086e-05, 4.0) (6.58174819946289e-05, 4.001953125) (3.103033828735351e-05, 4.00390625) (1.1718873023986816e-05, 4.005859375) (1.632687759399414e-05, 4.0078125) (3.957283020019531e-05, 4.009765625) (6.882142639160156e-05, 4.01171875) (9.401582336425781e-05, 4.013671875) (0.00011167504119873047, 4.015625) (0.00012621775817871092, 4.017578125) (0.00014359388732910154, 4.01953125) (0.00016561116027832032, 4.021484375) (0.0001882294158935547, 4.0234375) (0.00020402960205078124, 4.025390625) (0.00020965173339843748, 4.02734375) (0.00020810301208496092, 4.029296875) (0.00020648510742187498, 4.03125) (0.00021134146118164063, 4.033203125) (0.00022236970520019532, 4.03515625) (0.00023275106811523435, 4.037109375) (0.00023558566284179687, 4.0390625) (0.000228858154296875, 4.041015625) (0.00021961581420898438, 4.04296875) (0.00022104095458984373, 4.044921875) (0.00024254376220703123, 4.046875) (0.00028573223876953124, 4.048828125) (0.00033995089721679684, 4.05078125) (0.00038540966796875, 4.052734375) (0.0004059783020019531, 4.0546875) (0.00039280184936523436, 4.056640625) (0.00035057781982421874, 4.05859375) (0.0002987690124511719, 4.060546875) (0.0002586458740234375, 4.0625) (0.0002477232360839844, 4.064453125) (0.000273113525390625, 4.06640625) (0.00032462359619140626, 4.068359375) (0.00038292474365234373, 4.0703125) (0.00042788275146484373, 4.072265625) (0.0004443630981445312, 4.07421875) (0.000431111572265625, 4.076171875) (0.00039928662109375, 4.078125) (0.00036430038452148433, 4.080078125) (0.0003404165344238281, 4.08203125) (0.000333697509765625, 4.083984375) (0.00034082272338867184, 4.0859375) (0.0003545288391113281, 4.087890625) (0.00036817150878906246, 4.08984375) (0.00038012200927734375, 4.091796875) (0.0003924278869628906, 4.09375) (0.00040591229248046874, 4.095703125) (0.00041780123901367184, 4.09765625) (0.0004203837890625, 4.099609375) (0.00040586651611328124, 4.1015625) (0.0003742042846679687, 4.103515625) (0.0003340820922851562, 4.10546875) (0.00030030233764648435, 4.107421875) (0.00028687957763671876, 4.109375) (0.00029719097900390623, 4.111328125) (0.00032233239746093747, 4.11328125) (0.00034654809570312497, 4.115234375) (0.00035537713623046873, 4.1171875) (0.0003433913879394531, 4.119140625) (0.00031625216674804684, 4.12109375) (0.0002856543273925781, 4.123046875) (0.0002612615356445312, 4.125) (0.0002472911682128906, 4.126953125) (0.00024166448974609375, 4.12890625) (0.00023858323669433593, 4.130859375) (0.00023451025390624998, 4.1328125) (0.0002283674621582031, 4.134765625) (0.00022100445556640623, 4.13671875) (0.00021505235290527342, 4.138671875) (0.00021093954467773436, 4.140625) (0.00020755767822265624, 4.142578125) (0.00020362344360351563, 4.14453125) (0.00019583996582031249, 4.146484375) (0.0001834246826171875, 4.1484375) (0.00016909519958496094, 4.150390625) (0.0001564486389160156, 4.15234375) (0.00015300021362304686, 4.154296875) (0.00016329373168945312, 4.15625) (0.0001846563720703125, 4.158203125) (0.00021159857177734375, 4.16015625) (0.0002330856018066406, 4.162109375) (0.00023996832275390625, 4.1640625) (0.0002311517333984375, 4.166015625) (0.00020845649719238282, 4.16796875) (0.0001785996856689453, 4.169921875) (0.00014927398681640624, 4.171875) (0.00012415553283691406, 4.173828125) (0.00010672333526611328, 4.17578125) (9.906704711914063e-05, 4.177734375) (0.00010076485443115234, 4.1796875) (0.00011084098815917969, 4.181640625) (0.00012652163696289063, 4.18359375) (0.00014216726684570312, 4.185546875) (0.0001528513641357422, 4.1875) (0.0001557701416015625, 4.189453125) (0.00014918309020996092, 4.19140625) (0.00013618780517578124, 4.193359375) (0.000122181396484375, 4.1953125) (0.00011111761474609374, 4.197265625) (0.00010736492919921875, 4.19921875) (0.00011100741577148437, 4.201171875) (0.00011799099731445312, 4.203125) (0.00012397185516357421, 4.205078125) (0.0001237231903076172, 4.20703125) (0.00011571656036376952, 4.208984375) (0.00010339592742919922, 4.2109375) (9.242361450195313e-05, 4.212890625) (8.890306091308593e-05, 4.21484375) (9.49521484375e-05, 4.216796875) (0.00010767924499511718, 4.21875) (0.00012134967041015624, 4.220703125) (0.00013053700256347654, 4.22265625) (0.0001334061279296875, 4.224609375) (0.00013173635864257812, 4.2265625) (0.0001291387481689453, 4.228515625) (0.00012843898010253906, 4.23046875) (0.0001303935546875, 4.232421875) (0.00013429742431640625, 4.234375) (0.00013887423706054688, 4.236328125) (0.00014344435119628907, 4.23828125) (0.00014797074890136717, 4.240234375) (0.00015249813842773438, 4.2421875) (0.00015705450439453125, 4.244140625) (0.00016153005981445312, 4.24609375) (0.00016572171020507812, 4.248046875) (0.00016950965881347654, 4.25) (0.00017289329528808592, 4.251953125) (0.0001759298095703125, 4.25390625) (0.00017881350708007812, 4.255859375) (0.00018192810058593748, 4.2578125) (0.0001856312255859375, 4.259765625) (0.00019017813110351562, 4.26171875) (0.00019582302856445313, 4.263671875) (0.0002027344970703125, 4.265625) (0.00021091131591796875, 4.267578125) (0.0002202303771972656, 4.26953125) (0.00023019863891601561, 4.271484375) (0.00023998110961914062, 4.2734375) (0.0002489026794433594, 4.275390625) (0.00025643905639648434, 4.27734375) (0.00026224374389648435, 4.279296875) (0.00026650592041015624, 4.28125) (0.0002697919616699219, 4.283203125) (0.000272951171875, 4.28515625) (0.0002776652221679687, 4.287109375) (0.0002859569702148437, 4.2890625) (0.00029953662109375, 4.291015625) (0.00032028665161132813, 4.29296875) (0.00034898239135742185, 4.294921875) (0.00038523828125, 4.296875) (0.00042901837158203124, 4.298828125) (0.00047910888671875, 4.30078125) (0.0005343949584960937, 4.302734375) (0.0005936495971679687, 4.3046875) (0.000652244140625, 4.306640625) (0.0007054779052734375, 4.30859375) (0.0007485574951171874, 4.310546875) (0.0007771994628906249, 4.3125) (0.0007926200561523437, 4.314453125) (0.0007971719970703124, 4.31640625) (0.0007922911987304687, 4.318359375) (0.0007798363037109375, 4.3203125) (0.000758476806640625, 4.322265625) (0.0007266182250976562, 4.32421875) (0.0006872499999999999, 4.326171875) (0.000644997314453125, 4.328125) (0.0006055650634765625, 4.330078125) (0.000575781982421875, 4.33203125) (0.0005571456298828125, 4.333984375) (0.0005468705444335938, 4.3359375) (0.0005422178955078124, 4.337890625) (0.00053887646484375, 4.33984375) (0.0005350104370117187, 4.341796875) (0.0005325988159179687, 4.34375) (0.0005322900390625, 4.345703125) (0.000534185791015625, 4.34765625) (0.0005378181762695312, 4.349609375) (0.0005409151611328125, 4.3515625) (0.0005422008056640624, 4.353515625) (0.0005417334594726562, 4.35546875) (0.0005398048095703124, 4.357421875) (0.000536987060546875, 4.359375) (0.0005338577880859374, 4.361328125) (0.0005307500610351562, 4.36328125) (0.0005278057250976562, 4.365234375) (0.000525310546875, 4.3671875) (0.0005234402465820312, 4.369140625) (0.0005221051635742188, 4.37109375) (0.0005212099609374999, 4.373046875) (0.0005205718383789062, 4.375) (0.0005198842773437499, 4.376953125) (0.00051884375, 4.37890625) (0.00051724365234375, 4.380859375) (0.0005149397583007812, 4.3828125) (0.0005118911132812499, 4.384765625) (0.0005081468811035156, 4.38671875) (0.0005037349243164062, 4.388671875) (0.000498730224609375, 4.390625) (0.0004932657470703125, 4.392578125) (0.0004875236206054687, 4.39453125) (0.00048172409057617183, 4.396484375) (0.00047601104736328125, 4.3984375) (0.00047045297241210933, 4.400390625) (0.00046507916259765623, 4.40234375) (0.0004598946533203125, 4.404296875) (0.00045492669677734375, 4.40625) (0.00045021798706054684, 4.408203125) (0.0004457967529296875, 4.41015625) (0.0004416749877929687, 4.412109375) (0.0004378629150390625, 4.4140625) (0.000434368896484375, 4.416015625) (0.00043120983886718746, 4.41796875) (0.00042840948486328124, 4.419921875) (0.00042596075439453124, 4.421875) (0.00042383444213867186, 4.423828125) (0.0004219789123535156, 4.42578125) (0.00042031762695312496, 4.427734375) (0.0004187991943359375, 4.4296875) (0.0004173936767578125, 4.431640625) (0.0004160747680664062, 4.43359375) (0.0004148275451660156, 4.435546875) (0.00041363720703124996, 4.4375) (0.0004124853820800781, 4.439453125) (0.0004113656005859375, 4.44140625) (0.0004102822265625, 4.443359375) (0.0004092308349609375, 4.4453125) (0.00040820135498046876, 4.447265625) (0.0004071798095703125, 4.44921875) (0.00040614477539062496, 4.451171875) (0.00040508233642578124, 4.453125) (0.00040398553466796874, 4.455078125) (0.0004028487854003906, 4.45703125) (0.0004016705017089844, 4.458984375) (0.0004004467163085937, 4.4609375) (0.0003991695556640625, 4.462890625) (0.00039783154296875, 4.46484375) (0.0003964246215820312, 4.466796875) (0.000394937744140625, 4.46875) (0.00039335858154296874, 4.470703125) (0.00039167120361328125, 4.47265625) (0.00038985546874999996, 4.474609375) (0.0003878938598632812, 4.4765625) (0.0003857713317871094, 4.478515625) (0.0003834735412597656, 4.48046875) (0.0003809884338378906, 4.482421875) (0.00037830441284179687, 4.484375) (0.00037540939331054683, 4.486328125) (0.0003722930908203125, 4.48828125) (0.00036894699096679684, 4.490234375) (0.00036536206054687496, 4.4921875) (0.00036152954101562496, 4.494140625) (0.0003574409484863281, 4.49609375) (0.0003530877685546875, 4.498046875) (0.00034846276855468746, 4.5) (0.0003435602416992187, 4.501953125) (0.0003383753051757812, 4.50390625) (0.00033290432739257813, 4.505859375) (0.00032714508056640623, 4.5078125) (0.0003210969543457031, 4.509765625) (0.0003147608032226562, 4.51171875) (0.00030813946533203123, 4.513671875) (0.00030123715209960937, 4.515625) (0.00029405926513671873, 4.517578125) (0.000286612548828125, 4.51953125) (0.00027890484619140624, 4.521484375) (0.00027094537353515623, 4.5234375) (0.0002627447814941406, 4.525390625) (0.0002543148193359375, 4.52734375) (0.00024566864013671875, 4.529296875) (0.00023682078552246093, 4.53125) (0.0002277874298095703, 4.533203125) (0.00021858653259277343, 4.53515625) (0.00020923797607421874, 4.537109375) (0.0001997628479003906, 4.5390625) (0.00019018328857421874, 4.541015625) (0.00018052267456054687, 4.54296875) (0.00017080502319335937, 4.544921875) (0.00016105490112304686, 4.546875) (0.0001512974853515625, 4.548828125) (0.0001415578918457031, 4.55078125) (0.00013186074829101563, 4.552734375) (0.00012223077392578124, 4.5546875) (0.00011269287109375, 4.556640625) (0.00010327212524414062, 4.55859375) (9.399391174316406e-05, 4.560546875) (8.488322448730469e-05, 4.5625) (7.596415710449218e-05, 4.564453125) (6.725953674316406e-05, 4.56640625) (5.879142761230468e-05, 4.568359375) (5.0581306457519527e-05, 4.5703125) (4.264868927001953e-05, 4.572265625) (3.5010559082031246e-05, 4.57421875) (2.7681053161621093e-05, 4.576171875) (2.067138671875e-05, 4.578125) (1.399123191833496e-05, 4.580078125) (7.649925231933594e-06, 4.58203125) (1.6556601524353027e-06, 4.583984375) (-3.9856631755828855e-06, 4.5859375) (-9.26913070678711e-06, 4.587890625) (-1.4190659523010253e-05, 4.58984375) (-1.8746545791625975e-05, 4.591796875) (-2.2932544708251954e-05, 4.59375) (-2.6746334075927733e-05, 4.595703125) (-3.0189144134521482e-05, 4.59765625) (-3.326579284667969e-05, 4.599609375) (-3.598438262939453e-05, 4.6015625) (-3.835528564453125e-05, 4.603515625) (-4.039021682739258e-05, 4.60546875) (-4.210210418701172e-05, 4.607421875) (-4.350519180297851e-05, 4.609375) (-4.461451339721679e-05, 4.611328125) (-4.544586944580078e-05, 4.61328125) (-4.601321411132812e-05, 4.615234375) (-4.632771301269531e-05, 4.6171875) (-4.6403373718261716e-05, 4.619140625) (-4.625757217407226e-05, 4.62109375) (-4.5913013458251954e-05, 4.623046875) (-4.5399581909179686e-05, 4.625) (-4.4742378234863277e-05, 4.626953125) (-4.395861053466797e-05, 4.62890625) (-4.3061252593994135e-05, 4.630859375) (-4.206016159057617e-05, 4.6328125) (-4.095928192138672e-05, 4.634765625) (-3.9751319885253905e-05, 4.63671875) (-3.8421092987060546e-05, 4.638671875) (-3.694515991210937e-05, 4.640625) (-3.530108642578125e-05, 4.642578125) (-3.3478141784667964e-05, 4.64453125) (-3.1472370147705075e-05, 4.646484375) (-2.9271728515624997e-05, 4.6484375) (-2.6862821578979492e-05, 4.650390625) (-2.4263746261596678e-05, 4.65234375) (-2.1489295959472655e-05, 4.654296875) (-1.8539501190185545e-05, 4.65625) (-1.5435274124145506e-05, 4.658203125) (-1.2179635047912597e-05, 4.66015625) (-8.768367767333985e-06, 4.662109375) (-5.265833377838135e-06, 4.6640625) (-1.759521722793579e-06, 4.666015625) (1.7618349790573119e-06, 4.66796875) (5.316205978393555e-06, 4.669921875) (8.786367416381836e-06, 4.671875) (1.21144962310791e-05, 4.673828125) (1.5235441207885741e-05, 4.67578125) (1.7870975494384766e-05, 4.677734375) (2.0394847869873047e-05, 4.6796875) (2.3180776596069334e-05, 4.681640625) (2.5549125671386717e-05, 4.68359375) (2.7293983459472656e-05, 4.685546875) (2.717848777770996e-05, 4.6875) (2.3810428619384764e-05, 4.689453125) (1.8883243560791014e-05, 4.69140625) (1.3641992568969726e-05, 4.693359375) (9.988558769226074e-06, 4.6953125) (1.0422863006591797e-05, 4.697265625) (1.3268784523010253e-05, 4.69921875) (1.7077558517456055e-05, 4.701171875) (2.091166305541992e-05, 4.703125) (2.287127685546875e-05, 4.705078125) (2.403256607055664e-05, 4.70703125) (2.5481624603271484e-05, 4.708984375) (2.7092391967773435e-05, 4.7109375) (2.92770881652832e-05, 4.712890625) (3.13674201965332e-05, 4.71484375) (3.266446304321289e-05, 4.716796875) (3.33193244934082e-05, 4.71875) (3.3812286376953124e-05, 4.720703125) (3.517270660400391e-05, 4.72265625) (3.849107360839844e-05, 4.724609375) (4.4625171661376954e-05, 4.7265625) (5.428681182861328e-05, 4.728515625) (6.804417419433593e-05, 4.73046875) (8.637948608398438e-05, 4.732421875) (0.0001097267608642578, 4.734375) (0.0001378175811767578, 4.736328125) (0.00016937777709960937, 4.73828125) (0.00020281695556640625, 4.740234375) (0.00023658480834960936, 4.7421875) (0.00026922152709960934, 4.744140625) (0.00029940963745117186, 4.74609375) (0.00032572607421875, 4.748046875) (0.0003461931762695312, 4.75) (0.0003591204223632812, 4.751953125) (0.00036397882080078123, 4.75390625) (0.00036080792236328123, 4.755859375) (0.0003498512573242187, 4.7578125) (0.00033149777221679684, 4.759765625) (0.0003059826049804687, 4.76171875) (0.00027366070556640625, 4.763671875) (0.00023592755126953125, 4.765625) (0.00019469992065429686, 4.767578125) (0.00015137185668945313, 4.76953125) (0.00010710887145996093, 4.771484375) (6.301362228393555e-05, 4.7734375) (2.013815116882324e-05, 4.775390625) (-2.007923889160156e-05, 4.77734375) (-5.593350219726562e-05, 4.779296875) (-8.642156219482421e-05, 4.78125) (-0.00011128661346435546, 4.783203125) (-0.0001302486572265625, 4.78515625) (-0.0001431231994628906, 4.787109375) (-0.00015004832458496094, 4.7890625) (-0.00015135993957519531, 4.791015625) (-0.00014783255004882813, 4.79296875) (-0.00014073336791992186, 4.794921875) (-0.00013120378112792968, 4.796875) (-0.00012004339599609375, 4.798828125) (-0.00010825614929199218, 4.80078125) (-9.693871307373046e-05, 4.802734375) (-8.675274658203125e-05, 4.8046875) (-7.81449966430664e-05, 4.806640625) (-7.1385009765625e-05, 4.80859375) (-6.648671722412109e-05, 4.810546875) (-6.351862335205077e-05, 4.8125) (-6.25599365234375e-05, 4.814453125) (-6.320262145996093e-05, 4.81640625) (-6.469107818603516e-05, 4.818359375) (-6.659071350097656e-05, 4.8203125) (-6.863706970214843e-05, 4.822265625) (-7.062884521484374e-05, 4.82421875) (-7.242244720458984e-05, 4.826171875) (-7.366505432128906e-05, 4.828125) (-7.405186462402343e-05, 4.830078125) (-7.37174072265625e-05, 4.83203125) (-7.310910034179688e-05, 4.833984375) (-7.251555633544922e-05, 4.8359375) (-7.205844116210937e-05, 4.837890625) (-7.172174072265625e-05, 4.83984375) (-7.141032409667968e-05, 4.841796875) (-7.121486663818359e-05, 4.84375) (-7.121866607666016e-05, 4.845703125) (-7.13017349243164e-05, 4.84765625) (-7.121020507812499e-05, 4.849609375) (-7.07119140625e-05, 4.8515625) (-6.967591857910156e-05, 4.853515625) (-6.809210205078125e-05, 4.85546875) (-6.602786254882812e-05, 4.857421875) (-6.349763107299805e-05, 4.859375) (-6.0504787445068354e-05, 4.861328125) (-5.708966064453125e-05, 4.86328125) (-5.331709289550781e-05, 4.865234375) (-4.927789688110351e-05, 4.8671875) (-4.504592132568359e-05, 4.869140625) (-4.06690559387207e-05, 4.87109375) (-3.6179683685302735e-05, 4.873046875) (-3.1596349716186525e-05, 4.875) (-2.6939496994018555e-05, 4.876953125) (-2.2232345581054685e-05, 4.87890625) (-1.7493675231933592e-05, 4.880859375) (-1.2736624717712402e-05, 4.8828125) (-7.97027826309204e-06, 4.884765625) (-3.1922369003295896e-06, 4.88671875) (1.608180284500122e-06, 4.888671875) (6.433921813964843e-06, 4.890625) (1.1286535263061523e-05, 4.892578125) (1.616352653503418e-05, 4.89453125) (2.1055795669555664e-05, 4.896484375) (2.5961585998535155e-05, 4.8984375) (3.088121795654297e-05, 4.900390625) (3.5811798095703125e-05, 4.90234375) (4.0749202728271486e-05, 4.904296875) (4.56833610534668e-05, 4.90625) (5.060042572021484e-05, 4.908203125) (5.5489768981933594e-05, 4.91015625) (6.0342464447021484e-05, 4.912109375) (6.514567565917969e-05, 4.9140625) (6.988385009765624e-05, 4.916015625) (7.453734588623046e-05, 4.91796875) (7.908253479003906e-05, 4.919921875) (8.349927520751953e-05, 4.921875) (8.776970672607422e-05, 4.923828125) (9.187505340576172e-05, 4.92578125) (9.57965850830078e-05, 4.927734375) (9.951467895507812e-05, 4.9296875) (0.00010300908660888672, 4.931640625) (0.00010626129150390625, 4.93359375) (0.00010925446319580077, 4.935546875) (0.00011197110748291015, 4.9375) (0.00011439298248291016, 4.939453125) (0.00011650175476074219, 4.94140625) (0.00011827923583984374, 4.943359375) (0.0001197090606689453, 4.9453125) (0.00012077680206298827, 4.947265625) (0.00012146902465820312, 4.94921875) (0.00012177336120605468, 4.951171875) (0.00012167874908447266, 4.953125) (0.00012117604827880858, 4.955078125) (0.0001202586441040039, 4.95703125) (0.00011892223358154297, 4.958984375) (0.00011716400909423828, 4.9609375) (0.00011498294067382812, 4.962890625) (0.00011237995910644531, 4.96484375) (0.00010935843658447265, 4.966796875) (0.00010592446899414063, 4.96875) (0.00010208644104003906, 4.970703125) (9.785417175292968e-05, 4.97265625) (9.323912048339844e-05, 4.974609375) (8.8254638671875e-05, 4.9765625) (8.291610717773437e-05, 4.978515625) (7.724118041992187e-05, 4.98046875) (7.124964904785156e-05, 4.982421875) (6.496287536621093e-05, 4.984375) (5.840401458740234e-05, 4.986328125) (5.159812545776367e-05, 4.98828125) (4.457221984863281e-05, 4.990234375) (3.73551025390625e-05, 4.9921875) (2.9976604461669922e-05, 4.994140625) (2.2467128753662107e-05, 4.99609375) (1.4857147216796874e-05, 4.998046875) (7.177194595336914e-06, 5.0) (-5.415313243865967e-07, 5.001953125) (-8.267179489135742e-06, 5.00390625) (-1.596805191040039e-05, 5.005859375) (-2.3612789154052733e-05, 5.0078125) (-3.117015838623047e-05, 5.009765625) (-3.86094970703125e-05, 5.01171875) (-4.590018081665039e-05, 5.013671875) (-5.301164627075195e-05, 5.015625) (-5.9915107727050775e-05, 5.017578125) (-6.658413696289063e-05, 5.01953125) (-7.299394989013672e-05, 5.021484375) (-7.912183380126953e-05, 5.0234375) (-8.494785308837891e-05, 5.025390625) (-9.04540557861328e-05, 5.02734375) (-9.562545013427734e-05, 5.029296875) (-0.00010045042419433594, 5.03125) (-0.00010491831970214844, 5.033203125) (-0.0001090191421508789, 5.03515625) (-0.00011274496459960937, 5.037109375) (-0.00011608936309814452, 5.0390625) (-0.00011904611206054688, 5.041015625) (-0.00012161056518554686, 5.04296875) (-0.00012377880859375, 5.044921875) (-0.0001255475616455078, 5.046875) (-0.00012691893005371092, 5.048828125) (-0.00012789958190917967, 5.05078125) (-0.00012849839782714842, 5.052734375) (-0.00012872718811035154, 5.0546875) (-0.0001285989990234375, 5.056640625) (-0.0001281280517578125, 5.05859375) (-0.00012733187866210936, 5.060546875) (-0.0001262299041748047, 5.0625) (-0.00012483953857421874, 5.064453125) (-0.00012317823791503906, 5.06640625) (-0.00012125981903076171, 5.068359375) (-0.00011909374999999999, 5.0703125) (-0.00011669864654541015, 5.072265625) (-0.00011409896087646484, 5.07421875) (-0.00011132402801513671, 5.076171875) (-0.00010841201019287109, 5.078125) (-0.00010539102172851561, 5.080078125) (-0.00010227666473388672, 5.08203125) (-9.908981323242187e-05, 5.083984375) (-9.585320281982421e-05, 5.0859375) (-9.257720184326171e-05, 5.087890625) (-8.926422882080077e-05, 5.08984375) (-8.5892822265625e-05, 5.091796875) (-8.24151611328125e-05, 5.09375) (-7.880476379394531e-05, 5.095703125) (-7.505546569824218e-05, 5.09765625) (-7.117465209960937e-05, 5.099609375) (-6.719383239746093e-05, 5.1015625) (-6.313183975219727e-05, 5.103515625) (-5.899279022216797e-05, 5.10546875) (-5.478742218017578e-05, 5.107421875) (-5.052255249023437e-05, 5.109375) (-4.621609497070312e-05, 5.111328125) (-4.1906536102294917e-05, 5.11328125) (-3.760609054565429e-05, 5.115234375) (-3.329916763305664e-05, 5.1171875) (-2.899739074707031e-05, 5.119140625) (-2.473786163330078e-05, 5.12109375) (-2.0630363464355466e-05, 5.123046875) (-1.6878665924072263e-05, 5.125) (-1.3644836425781249e-05, 5.126953125) (-1.1022711753845214e-05, 5.12890625) (-9.060060501098632e-06, 5.130859375) (-7.725322246551513e-06, 5.1328125) (-7.021856784820556e-06, 5.134765625) (-7.017061233520507e-06, 5.13671875) (-7.689583778381347e-06, 5.138671875) (-8.902273178100585e-06, 5.140625) (-1.0401135444641113e-05, 5.142578125) (-1.188448715209961e-05, 5.14453125) (-1.322785758972168e-05, 5.146484375) (-1.4550298690795897e-05, 5.1484375) (-1.593724822998047e-05, 5.150390625) (-1.7280181884765625e-05, 5.15234375) (-1.83692569732666e-05, 5.154296875) (-1.8980884552001952e-05, 5.15625) (-1.930976104736328e-05, 5.158203125) (-1.9840265274047852e-05, 5.16015625) (-2.0822280883789062e-05, 5.162109375) (-2.2167526245117188e-05, 5.1640625) (-2.3429340362548826e-05, 5.166015625) (-2.4182371139526365e-05, 5.16796875) (-2.4285072326660156e-05, 5.169921875) (-2.365518569946289e-05, 5.171875) (-2.1640045166015624e-05, 5.173828125) (-1.7175004959106443e-05, 5.17578125) (-9.229460716247558e-06, 5.177734375) (3.0192437171936033e-06, 5.1796875) (1.9433259963989258e-05, 5.181640625) (3.9359130859375e-05, 5.18359375) (6.231392669677734e-05, 5.185546875) (8.762223815917968e-05, 5.1875) (0.00011403775787353515, 5.189453125) (0.0001399163360595703, 5.19140625) (0.00016309674072265625, 5.193359375) (0.00018111109924316406, 5.1953125) (0.00019254260253906248, 5.197265625) (0.00019674131774902344, 5.19921875) (0.00019299749755859375, 5.201171875) (0.00018101351928710938, 5.203125) (0.000161021484375, 5.205078125) (0.000133592529296875, 5.20703125) (0.00010036727142333984, 5.208984375) (6.384153366088867e-05, 5.2109375) (2.5903408050537108e-05, 5.212890625) (-1.1950873374938964e-05, 5.21484375) (-4.7958831787109375e-05, 5.216796875) (-8.05934600830078e-05, 5.21875) (-0.00010862196350097656, 5.220703125) (-0.0001310409240722656, 5.22265625) (-0.0001479995422363281, 5.224609375) (-0.00016039801025390625, 5.2265625) (-0.00016874661254882812, 5.228515625) (-0.0001734785919189453, 5.23046875) (-0.00017532667541503906, 5.232421875) (-0.00017508766174316405, 5.234375) (-0.00017362187194824218, 5.236328125) (-0.0001715635070800781, 5.23828125) (-0.00016864392089843748, 5.240234375) (-0.00016445343017578123, 5.2421875) (-0.00015908720397949218, 5.244140625) (-0.00015290902709960938, 5.24609375) (-0.00014643354797363282, 5.248046875) (-0.00013995794677734374, 5.25) (-0.00013351470947265624, 5.251953125) (-0.0001274804229736328, 5.25390625) (-0.00012284718322753906, 5.255859375) (-0.00012037632751464843, 5.2578125) (-0.00012033937072753905, 5.259765625) (-0.00012244671630859375, 5.26171875) (-0.0001259040298461914, 5.263671875) (-0.00013030392456054687, 5.265625) (-0.00013542709350585936, 5.267578125) (-0.0001406680908203125, 5.26953125) (-0.00014522967529296873, 5.271484375) (-0.0001483719482421875, 5.2734375) (-0.00015006520080566407, 5.275390625) (-0.00015139064025878905, 5.27734375) (-0.0001528323059082031, 5.279296875) (-0.00015393678283691405, 5.28125) (-0.0001534423370361328, 5.283203125) (-0.00014895172119140624, 5.28515625) (-0.0001408670654296875, 5.287109375) (-0.00013202236938476562, 5.2890625) (-0.00012517846679687498, 5.291015625) (-0.0001239457550048828, 5.29296875) (-0.0001281705322265625, 5.294921875) (-0.0001340757293701172, 5.296875) (-0.00013884094238281248, 5.298828125) (-0.0001394663391113281, 5.30078125) (-0.00013548333740234374, 5.302734375) (-0.00012956098937988282, 5.3046875) (-0.00012332642364501953, 5.306640625) (-0.00011796236419677734, 5.30859375) (-0.00011392272186279297, 5.310546875) (-0.00011021891021728515, 5.3125) (-0.00010640833282470703, 5.314453125) (-0.00010253190612792969, 5.31640625) (-9.852084350585937e-05, 5.318359375) (-9.452349853515625e-05, 5.3203125) (-9.058670806884766e-05, 5.322265625) (-8.6572509765625e-05, 5.32421875) (-8.244728851318359e-05, 5.326171875) (-7.823541259765625e-05, 5.328125) (-7.393209838867187e-05, 5.330078125) (-6.9535888671875e-05, 5.33203125) (-6.505936431884765e-05, 5.333984375) (-6.051883316040039e-05, 5.3359375) (-5.5932708740234374e-05, 5.337890625) (-5.132773208618164e-05, 5.33984375) (-4.6713222503662106e-05, 5.341796875) (-4.20789794921875e-05, 5.34375) (-3.7427154541015624e-05, 5.345703125) (-3.2770805358886716e-05, 5.34765625) (-2.8124088287353513e-05, 5.349609375) (-2.350278663635254e-05, 5.3515625) (-1.8922254562377928e-05, 5.353515625) (-1.4393695831298828e-05, 5.35546875) (-9.930720329284667e-06, 5.357421875) (-5.554395198822021e-06, 5.359375) (-1.2845833301544188e-06, 5.361328125) (2.8602056503295895e-06, 5.36328125) (6.860628604888915e-06, 5.365234375) (1.0699562072753906e-05, 5.3671875) (1.4359758377075195e-05, 5.369140625) (1.7822084426879882e-05, 5.37109375) (2.106778907775879e-05, 5.373046875) (2.4078859329223633e-05, 5.375) (2.6836483001708984e-05, 5.376953125) (2.9322105407714842e-05, 5.37890625) (3.1517627716064454e-05, 5.380859375) (3.3404258728027345e-05, 5.3828125) (3.496408081054687e-05, 5.384765625) (3.6180431365966793e-05, 5.38671875) (3.703756332397461e-05, 5.388671875) (3.7521751403808595e-05, 5.390625) (3.762138748168945e-05, 5.392578125) (3.7326480865478514e-05, 5.39453125) (3.662922668457031e-05, 5.396484375) (3.5523971557617186e-05, 5.3984375) (3.400642776489258e-05, 5.400390625) (3.207408905029297e-05, 5.40234375) (2.972598648071289e-05, 5.404296875) (2.6962350845336914e-05, 5.40625) (2.378523826599121e-05, 5.408203125) (2.0198726654052734e-05, 5.41015625) (1.620863723754883e-05, 5.412109375) (1.182302474975586e-05, 5.4140625) (7.052370548248291e-06, 5.416015625) (1.9091633558273314e-06, 5.41796875) (-3.591561794281006e-06, 5.419921875) (-9.432241439819335e-06, 5.421875) (-1.5593636512756346e-05, 5.423828125) (-2.20546760559082e-05, 5.42578125) (-2.8792770385742187e-05, 5.427734375) (-3.578435134887695e-05, 5.4296875) (-4.300456237792968e-05, 5.431640625) (-5.042717361450195e-05, 5.43359375) (-5.80251235961914e-05, 5.435546875) (-6.577046203613281e-05, 5.4375) (-7.363384246826172e-05, 5.439453125) (-8.15850372314453e-05, 5.44140625) (-8.959296417236328e-05, 5.443359375) (-9.762557983398438e-05, 5.4453125) (-0.00010565141296386719, 5.447265625) (-0.00011363978576660155, 5.44921875) (-0.00012156050872802734, 5.451171875) (-0.00012938433837890624, 5.453125) (-0.00013708399963378905, 5.455078125) (-0.00014463398742675781, 5.45703125) (-0.00015201139831542968, 5.458984375) (-0.00015919631958007812, 5.4609375) (-0.0001661692657470703, 5.462890625) (-0.0001729111328125, 5.46484375) (-0.0001794044494628906, 5.466796875) (-0.00018563282775878906, 5.46875) (-0.0001915809631347656, 5.470703125) (-0.0001972351379394531, 5.47265625) (-0.00020258102416992186, 5.474609375) (-0.00020760391235351562, 5.4765625) (-0.00021229237365722655, 5.478515625) (-0.00021663792419433594, 5.48046875) (-0.00022063615417480467, 5.482421875) (-0.00022428744506835935, 5.484375) (-0.0002275933380126953, 5.486328125) (-0.000230556884765625, 5.48828125) (-0.0002331844024658203, 5.490234375) (-0.00023548402404785154, 5.4921875) (-0.00023746568298339842, 5.494140625) (-0.00023914218139648436, 5.49609375) (-0.0002405218811035156, 5.498046875) (-0.0002416092529296875, 5.5) (-0.00024241358947753905, 5.501953125) (-0.00024294561767578124, 5.50390625) (-0.00024322314453125, 5.505859375) (-0.00024327337646484374, 5.5078125) (-0.00024311553955078124, 5.509765625) (-0.00024276133728027343, 5.51171875) (-0.00024222198486328124, 5.513671875) (-0.00024150303649902343, 5.515625) (-0.0002406060333251953, 5.517578125) (-0.00023953123474121092, 5.51953125) (-0.0002382594299316406, 5.521484375) (-0.00023675355529785154, 5.5234375) (-0.00023497964477539062, 5.525390625) (-0.00023290325927734375, 5.52734375) (-0.00023050958251953123, 5.529296875) (-0.00022780833435058593, 5.53125) (-0.0002248045654296875, 5.533203125) (-0.00022150671386718748, 5.53515625) (-0.00021792330932617188, 5.537109375) (-0.0002140543212890625, 5.5390625) (-0.0002099229278564453, 5.541015625) (-0.00020557183837890624, 5.54296875) (-0.000201033447265625, 5.544921875) (-0.0001963418273925781, 5.546875) (-0.0001915377502441406, 5.548828125) (-0.00018666012573242187, 5.55078125) (-0.00018179672241210937, 5.552734375) (-0.00017708197021484373, 5.5546875) (-0.00017264678955078124, 5.556640625) (-0.00016862699890136717, 5.55859375) (-0.00016511621093749998, 5.560546875) (-0.00016214938354492187, 5.5625) (-0.00015975543212890623, 5.564453125) (-0.000157941650390625, 5.56640625) (-0.00015669178771972656, 5.568359375) (-0.00015597659301757813, 5.5703125) (-0.00015571141052246094, 5.572265625) (-0.000155774658203125, 5.57421875) (-0.0001560618896484375, 5.576171875) (-0.00015647686767578125, 5.578125) (-0.0001569333038330078, 5.580078125) (-0.0001573385467529297, 5.58203125) (-0.00015751544189453125, 5.583984375) (-0.00015721319580078126, 5.5859375) (-0.00015614439392089844, 5.587890625) (-0.00015399154663085936, 5.58984375) (-0.00015051419067382813, 5.591796875) (-0.00014551641845703125, 5.59375) (-0.00013879928588867186, 5.595703125) (-0.00013029489135742186, 5.59765625) (-0.00012001927185058594, 5.599609375) (-0.00010810387420654296, 5.6015625) (-9.490196990966797e-05, 5.603515625) (-8.075424194335937e-05, 5.60546875) (-6.590232849121094e-05, 5.607421875) (-5.066810226440429e-05, 5.609375) (-3.529417037963867e-05, 5.611328125) (-1.9767744064331055e-05, 5.61328125) (-4.0589399337768555e-06, 5.615234375) (1.2093158721923828e-05, 5.6171875) (2.9261871337890624e-05, 5.619140625) (4.762159729003906e-05, 5.62109375) (6.710008239746093e-05, 5.623046875) (8.780715942382812e-05, 5.625) (0.00010899069213867187, 5.626953125) (0.0001295928955078125, 5.62890625) (0.00014907009887695313, 5.630859375) (0.0001656410675048828, 5.6328125) (0.0001785238037109375, 5.634765625) (0.00018751473999023438, 5.63671875) (0.00019016854858398436, 5.638671875) (0.0001855649719238281, 5.640625) (0.00017152294921875, 5.642578125) (0.00014516978454589844, 5.64453125) (0.00010816021728515624, 5.646484375) (6.156962966918945e-05, 5.6484375) (9.225471496582031e-06, 5.650390625) (-4.162918090820312e-05, 5.65234375) (-8.709920501708984e-05, 5.654296875) (-0.00012251171875, 5.65625) (-0.00014618919372558594, 5.658203125) (-0.00016175933837890626, 5.66015625) (-0.00017161309814453125, 5.662109375) (-0.0001790917205810547, 5.6640625) (-0.00018601434326171874, 5.666015625) (-0.0001907117919921875, 5.66796875) (-0.00019288845825195312, 5.669921875) (-0.00019263412475585936, 5.671875) (-0.00019052812194824217, 5.673828125) (-0.00018847805786132812, 5.67578125) (-0.00018732728576660156, 5.677734375) (-0.0001869310302734375, 5.6796875) (-0.00018710711669921875, 5.681640625) (-0.00018731051635742187, 5.68359375) (-0.00018695202636718748, 5.685546875) (-0.00018589102172851562, 5.6875) (-0.00018400950622558592, 5.689453125) (-0.00018118855285644532, 5.69140625) (-0.0001775972900390625, 5.693359375) (-0.0001735120849609375, 5.6953125) (-0.000169170166015625, 5.697265625) (-0.00016488700866699218, 5.69921875) (-0.00016102572631835938, 5.701171875) (-0.00015776713562011717, 5.703125) (-0.00015522642517089844, 5.705078125) (-0.00015347955322265626, 5.70703125) (-0.00015243786621093748, 5.708984375) (-0.00015199601745605467, 5.7109375) (-0.00015205429077148436, 5.712890625) (-0.00015243365478515624, 5.71484375) (-0.0001529606475830078, 5.716796875) (-0.0001534927520751953, 5.71875) (-0.00015386778259277343, 5.720703125) (-0.0001539770050048828, 5.72265625) (-0.00015376107788085938, 5.724609375) (-0.00015314218139648436, 5.7265625) (-0.0001520729064941406, 5.728515625) (-0.00015053082275390625, 5.73046875) (-0.00014848126220703124, 5.732421875) (-0.0001459195098876953, 5.734375) (-0.00014286663818359374, 5.736328125) (-0.00013933309936523436, 5.73828125) (-0.0001353466033935547, 5.740234375) (-0.00013094808959960937, 5.7421875) (-0.00012616911315917968, 5.744140625) (-0.00012105876922607421, 5.74609375) (-0.00011567438507080077, 5.748046875) (-0.00011007143402099609, 5.75) (-0.00010431692504882811, 5.751953125) (-9.846344757080078e-05, 5.75390625) (-9.254496765136718e-05, 5.755859375) (-8.659370422363281e-05, 5.7578125) (-8.063211822509765e-05, 5.759765625) (-7.467495727539063e-05, 5.76171875) (-6.873995971679687e-05, 5.763671875) (-6.283457946777344e-05, 5.765625) (-5.695423126220703e-05, 5.767578125) (-5.11012954711914e-05, 5.76953125) (-4.527912139892578e-05, 5.771484375) (-3.948957061767578e-05, 5.7734375) (-3.374126434326172e-05, 5.775390625) (-2.803888702392578e-05, 5.77734375) (-2.2381750106811522e-05, 5.779296875) (-1.6770557403564454e-05, 5.78125) (-1.1205275535583496e-05, 5.783203125) (-5.6875605583190915e-06, 5.78515625) (-2.240418791770935e-07, 5.787109375) (5.177134037017822e-06, 5.7890625) (1.0508005142211914e-05, 5.791015625) (1.575844860076904e-05, 5.79296875) (2.0917289733886717e-05, 5.794921875) (2.5971353530883786e-05, 5.796875) (3.090442657470703e-05, 5.798828125) (3.5702239990234375e-05, 5.80078125) (4.035265350341797e-05, 5.802734375) (4.484386444091797e-05, 5.8046875) (4.916468811035156e-05, 5.806640625) (5.330313491821289e-05, 5.80859375) (5.72460708618164e-05, 5.810546875) (6.09810791015625e-05, 5.8125) (6.449655151367188e-05, 5.814453125) (6.777999877929687e-05, 5.81640625) (7.081834411621093e-05, 5.818359375) (7.359837341308593e-05, 5.8203125) (7.610667419433593e-05, 5.822265625) (7.833082580566406e-05, 5.82421875) (8.025982666015624e-05, 5.826171875) (8.188327026367188e-05, 5.828125) (8.319143676757812e-05, 5.830078125) (8.41755142211914e-05, 5.83203125) (8.482760620117187e-05, 5.833984375) (8.514087677001953e-05, 5.8359375) (8.511002349853515e-05, 5.837890625) (8.473100280761719e-05, 5.83984375) (8.400062561035156e-05, 5.841796875) (8.291683197021484e-05, 5.84375) (8.147897338867187e-05, 5.845703125) (7.968788146972655e-05, 5.84765625) (7.754635620117188e-05, 5.849609375) (7.505914306640624e-05, 5.8515625) (7.223222351074219e-05, 5.853515625) (6.907293701171875e-05, 5.85546875) (6.559017944335937e-05, 5.857421875) (6.179446029663086e-05, 5.859375) (5.76980972290039e-05, 5.861328125) (5.331490325927734e-05, 5.86328125) (4.865980911254883e-05, 5.865234375) (4.374915313720703e-05, 5.8671875) (3.860087585449219e-05, 5.869140625) (3.3234550476074216e-05, 5.87109375) (2.7671558380126953e-05, 5.873046875) (2.1934406280517577e-05, 5.875) (1.604629898071289e-05, 5.876953125) (1.0031574249267578e-05, 5.87890625) (3.915328025817871e-06, 5.880859375) (-2.277010440826416e-06, 5.8828125) (-8.519561767578125e-06, 5.884765625) (-1.4786731719970702e-05, 5.88671875) (-2.1053735733032227e-05, 5.888671875) (-2.7295982360839842e-05, 5.890625) (-3.348913192749023e-05, 5.892578125) (-3.960947799682617e-05, 5.89453125) (-4.563346862792968e-05, 5.896484375) (-5.153815460205078e-05, 5.8984375) (-5.730186462402343e-05, 5.900390625) (-6.290402221679688e-05, 5.90234375) (-6.832500457763671e-05, 5.904296875) (-7.354647064208984e-05, 5.90625) (-7.855122375488281e-05, 5.908203125) (-8.332363891601562e-05, 5.91015625) (-8.785043334960936e-05, 5.912109375) (-9.212026977539062e-05, 5.9140625) (-9.6123291015625e-05, 5.916015625) (-9.985092163085937e-05, 5.91796875) (-0.00010329570007324218, 5.919921875) (-0.00010645187377929687, 5.921875) (-0.00010931580352783203, 5.923828125) (-0.00011188538360595702, 5.92578125) (-0.00011415988159179687, 5.927734375) (-0.00011614024353027343, 5.9296875) (-0.00011782910919189453, 5.931640625) (-0.00011923133850097655, 5.93359375) (-0.00012035445404052734, 5.935546875) (-0.00012120718383789062, 5.9375) (-0.00012179898071289062, 5.939453125) (-0.0001221407241821289, 5.94140625) (-0.00012224398803710936, 5.943359375) (-0.00012212025451660156, 5.9453125) (-0.00012178155517578125, 5.947265625) (-0.00012123902893066405, 5.94921875) (-0.00012050198364257812, 5.951171875) (-0.00011958035278320313, 5.953125) (-0.00011848434448242188, 5.955078125) (-0.00011722337341308593, 5.95703125) (-0.00011580737304687499, 5.958984375) (-0.00011424696350097656, 5.9609375) (-0.00011255239105224609, 5.962890625) (-0.00011073539733886719, 5.96484375) (-0.00010881048583984375, 5.966796875) (-0.00010679115295410156, 5.96875) (-0.00010469022369384765, 5.970703125) (-0.00010251934814453124, 5.97265625) (-0.00010028509521484375, 5.974609375) (-9.799147033691406e-05, 5.9765625) (-9.56412353515625e-05, 5.978515625) (-9.323445129394531e-05, 5.98046875) (-9.076805114746094e-05, 5.982421875) (-8.823624420166015e-05, 5.984375) (-8.563101196289062e-05, 5.986328125) (-8.294762420654297e-05, 5.98828125) (-8.018970489501953e-05, 5.990234375) (-7.736083221435547e-05, 5.9921875) (-7.446055603027343e-05, 5.994140625) (-7.14794692993164e-05, 5.99609375) (-6.839470672607421e-05, 5.998046875) (-6.518740844726562e-05, 6.0) (-6.184584808349609e-05, 6.001953125) (-5.8357196807861326e-05, 6.00390625) (-5.4712684631347654e-05, 6.005859375) (-5.091027069091797e-05, 6.0078125) (-4.695326995849609e-05, 6.009765625) (-4.2865451812744136e-05, 6.01171875) (-3.8700187683105465e-05, 6.013671875) (-3.451253509521484e-05, 6.015625) (-3.0353826522827148e-05, 6.017578125) (-2.6266929626464843e-05, 6.01953125) (-2.2259998321533203e-05, 6.021484375) (-1.833209991455078e-05, 6.0234375) (-1.4493990898132324e-05, 6.025390625) (-1.0761429786682129e-05, 6.02734375) (-7.163589477539062e-06, 6.029296875) (-3.7239797115325928e-06, 6.03125) (-4.352782368659973e-07, 6.033203125) (2.7215192317962644e-06, 6.03515625) (5.758072853088378e-06, 6.037109375) (8.703577995300293e-06, 6.0390625) (1.1610437393188475e-05, 6.041015625) (1.4557998657226562e-05, 6.04296875) (1.770556640625e-05, 6.044921875) (2.123678207397461e-05, 6.046875) (2.5242328643798827e-05, 6.048828125) (2.973064422607422e-05, 6.05078125) (3.4600334167480465e-05, 6.052734375) (3.9649436950683595e-05, 6.0546875) (4.4721916198730463e-05, 6.056640625) (4.97617073059082e-05, 6.05859375) (5.4716827392578126e-05, 6.060546875) (5.951101684570312e-05, 6.0625) (6.425273895263672e-05, 6.064453125) (6.920738983154297e-05, 6.06640625) (7.481822204589843e-05, 6.068359375) (8.174384307861328e-05, 6.0703125) (9.041827392578124e-05, 6.072265625) (0.00010086909484863281, 6.07421875) (0.00011283660888671874, 6.076171875) (0.00012585842895507812, 6.078125) (0.00013913717651367188, 6.080078125) (0.000151664794921875, 6.08203125) (0.00016224107360839844, 6.083984375) (0.00016932968139648437, 6.0859375) (0.00017167308044433593, 6.087890625) (0.00016854782104492187, 6.08984375) (0.00015970797729492186, 6.091796875) (0.00014544989013671875, 6.09375) (0.00012645213317871094, 6.095703125) (0.00010355414581298828, 6.09765625) (7.788555908203124e-05, 6.099609375) (5.0988964080810545e-05, 6.1015625) (2.4405361175537107e-05, 6.103515625) (-4.683895111083984e-07, 6.10546875) (-2.2590476989746094e-05, 6.107421875) (-4.150094604492187e-05, 6.109375) (-5.6882030487060544e-05, 6.111328125) (-6.837109374999999e-05, 6.11328125) (-7.595359802246093e-05, 6.115234375) (-7.9935302734375e-05, 6.1171875) (-8.090640258789062e-05, 6.119140625) (-7.982765197753906e-05, 6.12109375) (-7.746559143066406e-05, 6.123046875) (-7.42120361328125e-05, 6.125) (-7.056104278564452e-05, 6.126953125) (-6.712858581542968e-05, 6.12890625) (-6.427757263183593e-05, 6.130859375) (-6.223574447631835e-05, 6.1328125) (-6.09490966796875e-05, 6.134765625) (-5.992041778564453e-05, 6.13671875) (-5.884807968139648e-05, 6.138671875) (-5.766376495361328e-05, 6.140625) (-5.6220165252685546e-05, 6.142578125) (-5.440644836425781e-05, 6.14453125) (-5.222348022460937e-05, 6.146484375) (-4.97056999206543e-05, 6.1484375) (-4.704777908325195e-05, 6.150390625) (-4.462329483032226e-05, 6.15234375) (-4.2622718811035155e-05, 6.154296875) (-4.108930969238281e-05, 6.15625) (-4.00384407043457e-05, 6.158203125) (-3.937200927734375e-05, 6.16015625) (-3.899064636230469e-05, 6.162109375) (-3.8796344757080075e-05, 6.1640625) (-3.861130523681641e-05, 6.166015625) (-3.82628173828125e-05, 6.16796875) (-3.765510559082031e-05, 6.169921875) (-3.674070739746094e-05, 6.171875) (-3.551625442504883e-05, 6.173828125) (-3.401067352294922e-05, 6.17578125) (-3.221003723144531e-05, 6.177734375) (-3.007998466491699e-05, 6.1796875) (-2.7610321044921874e-05, 6.181640625) (-2.4785406112670898e-05, 6.18359375) (-2.1603654861450195e-05, 6.185546875) (-1.8074365615844725e-05, 6.1875) (-1.4197805404663086e-05, 6.189453125) (-9.994815826416015e-06, 6.19140625) (-5.510389328002929e-06, 6.193359375) (-8.099685907363891e-07, 6.1953125) (4.030137062072754e-06, 6.197265625) (8.95380973815918e-06, 6.19921875) (1.3930141448974609e-05, 6.201171875) (1.8940250396728513e-05, 6.203125) (2.397315216064453e-05, 6.205078125) (2.9022750854492186e-05, 6.20703125) (3.4077987670898435e-05, 6.208984375) (3.9132728576660155e-05, 6.2109375) (4.418975067138672e-05, 6.212890625) (4.924208450317383e-05, 6.21484375) (5.427771759033203e-05, 6.216796875) (5.928300476074218e-05, 6.21875) (6.423941040039063e-05, 6.220703125) (6.9134521484375e-05, 6.22265625) (7.396461486816406e-05, 6.224609375) (7.872976684570312e-05, 6.2265625) (8.343070983886719e-05, 6.228515625) (8.806551361083984e-05, 6.23046875) (9.26282958984375e-05, 6.232421875) (9.711136627197266e-05, 6.234375) (0.00010150650024414063, 6.236328125) (0.00010580282592773437, 6.23828125) (0.00010998656463623046, 6.240234375) (0.00011404005432128906, 6.2421875) (0.00011794339752197265, 6.244140625) (0.0001216795196533203, 6.24609375) (0.00012523381042480467, 6.248046875) (0.00012859278869628907, 6.25) (0.0001317437286376953, 6.251953125) (0.0001346734619140625, 6.25390625) (0.00013736880493164062, 6.255859375) (0.00013981794738769532, 6.2578125) (0.00014200994873046874, 6.259765625) (0.00014393309020996093, 6.26171875) (0.00014557482910156248, 6.263671875) (0.00014692259216308594, 6.265625) (0.00014796429443359374, 6.267578125) (0.0001486894073486328, 6.26953125) (0.00014908909606933593, 6.271484375) (0.00014915576171875, 6.2734375) (0.00014888327026367187, 6.275390625) (0.00014826734924316406, 6.27734375) (0.0001473061065673828, 6.279296875) (0.00014599987792968748, 6.28125) (0.00014435073852539062, 6.283203125) (0.00014236228942871094, 6.28515625) (0.00014003909301757813, 6.287109375) (0.00013738690185546875, 6.2890625) (0.00013441317749023437, 6.291015625) (0.0001311270751953125, 6.29296875) (0.00012753933715820313, 6.294921875) (0.00012366215515136717, 6.296875) (0.00011950920867919922, 6.298828125) (0.00011509588623046874, 6.30078125) (0.00011043983459472656, 6.302734375) (0.00010556105041503906, 6.3046875) (0.00010048088073730469, 6.306640625) (9.522172546386718e-05, 6.30859375) (8.980682373046875e-05, 6.310546875) (8.425984191894531e-05, 6.3125) (7.860531616210938e-05, 6.314453125) (7.286845397949219e-05, 6.31640625) (6.707425689697265e-05, 6.318359375) (6.124759674072265e-05, 6.3203125) (5.5413604736328125e-05, 6.322265625) (4.9597667694091795e-05, 6.32421875) (4.382562255859375e-05, 6.326171875) (3.812364959716797e-05, 6.328125) (3.2516986846923825e-05, 6.330078125) (2.7029418945312498e-05, 6.33203125) (2.1683759689331054e-05, 6.333984375) (1.650146675109863e-05, 6.3359375) (1.1501873016357421e-05, 6.337890625) (6.7020235061645504e-06, 6.33984375) (2.115831136703491e-06, 6.341796875) (-2.2462105751037595e-06, 6.34375) (-6.375072479248047e-06, 6.345703125) (-1.0262552261352539e-05, 6.34765625) (-1.3902053833007811e-05, 6.349609375) (-1.728853988647461e-05, 6.3515625) (-2.0418243408203126e-05, 6.353515625) (-2.328913879394531e-05, 6.35546875) (-2.5899559020996093e-05, 6.357421875) (-2.8247392654418944e-05, 6.359375) (-3.0333065032958984e-05, 6.361328125) (-3.215986633300781e-05, 6.36328125) (-3.373402786254883e-05, 6.365234375) (-3.506622314453125e-05, 6.3671875) (-3.616908264160156e-05, 6.369140625) (-3.7056114196777345e-05, 6.37109375) (-3.7743404388427733e-05, 6.373046875) (-3.824858093261719e-05, 6.375) (-3.858993911743164e-05, 6.376953125) (-3.878803634643555e-05, 6.37890625) (-3.8860408782958984e-05, 6.380859375) (-3.881922149658203e-05, 6.3828125) 