(0.00012653526306152343, 0.0) (0.0001270511016845703, 0.001953125) (0.00012738124084472655, 0.00390625) (0.00012752502441406248, 0.005859375) (0.00012748217773437498, 0.0078125) (0.00012725309753417968, 0.009765625) (0.00012683865356445312, 0.01171875) (0.0001262403106689453, 0.013671875) (0.0001254604034423828, 0.015625) (0.0001245015869140625, 0.017578125) (0.00012336671447753906, 0.01953125) (0.0001220592803955078, 0.021484375) (0.0001205831298828125, 0.0234375) (0.00011894229125976561, 0.025390625) (0.00011714116668701171, 0.02734375) (0.0001151845703125, 0.029296875) (0.00011307752990722655, 0.03125) (0.00011082536315917969, 0.033203125) (0.00010843363952636718, 0.03515625) (0.00010590748596191406, 0.037109375) (0.00010325182342529296, 0.0390625) (0.00010047147369384765, 0.041015625) (9.75706329345703e-05, 0.04296875) (9.455261993408203e-05, 0.044921875) (9.141986083984374e-05, 0.046875) (8.817398834228515e-05, 0.048828125) (8.481607055664062e-05, 0.05078125) (8.134691619873047e-05, 0.052734375) (7.776656341552734e-05, 0.0546875) (7.407450103759765e-05, 0.056640625) (7.027010345458984e-05, 0.05859375) (6.635247039794922e-05, 0.060546875) (6.232100677490234e-05, 0.0625) (5.817493438720703e-05, 0.064453125) (5.391267776489258e-05, 0.06640625) (4.953296661376953e-05, 0.068359375) (4.5035148620605465e-05, 0.0703125) (4.041730880737305e-05, 0.072265625) (3.567665863037109e-05, 0.07421875) (3.080937385559082e-05, 0.076171875) (2.5809326171874997e-05, 0.078125) (2.067063522338867e-05, 0.080078125) (1.538841724395752e-05, 0.08203125) (9.95591926574707e-06, 0.083984375) (4.365492343902588e-06, 0.0859375) (-1.3891208171844482e-06, 0.087890625) (-7.31420612335205e-06, 0.08984375) (-1.3413959503173827e-05, 0.091796875) (-1.9689056396484373e-05, 0.09375) (-2.6141956329345703e-05, 0.095703125) (-3.2776344299316406e-05, 0.09765625) (-3.959550094604492e-05, 0.099609375) (-4.660438537597656e-05, 0.1015625) (-5.380674743652343e-05, 0.103515625) (-6.120326614379883e-05, 0.10546875) (-6.879356384277343e-05, 0.107421875) (-7.657592010498047e-05, 0.109375) (-8.454631042480469e-05, 0.111328125) (-9.270044708251953e-05, 0.11328125) (-0.00010102851104736328, 0.115234375) (-0.00010951290893554687, 0.1171875) (-0.00011813806915283202, 0.119140625) (-0.00012689005279541016, 0.12109375) (-0.00013576498413085938, 0.123046875) (-0.00014477221679687498, 0.125) (-0.00015391288757324217, 0.126953125) (-0.0001631778869628906, 0.12890625) (-0.00017255212402343749, 0.130859375) (-0.0001820115051269531, 0.1328125) (-0.00019152799987792968, 0.134765625) (-0.0002010709991455078, 0.13671875) (-0.00021059030151367186, 0.138671875) (-0.00022001379394531248, 0.140625) (-0.00022926927185058592, 0.142578125) (-0.000238282958984375, 0.14453125) (-0.0002469949645996094, 0.146484375) (-0.00025536303710937497, 0.1484375) (-0.00026333432006835935, 0.150390625) (-0.00027084970092773435, 0.15234375) (-0.00027782263183593746, 0.154296875) (-0.00028414215087890624, 0.15625) (-0.0002897208557128906, 0.158203125) (-0.0002944916076660156, 0.16015625) (-0.0002984155578613281, 0.162109375) (-0.0003014865112304687, 0.1640625) (-0.00030370147705078123, 0.166015625) (-0.0003050742797851562, 0.16796875) (-0.00030567794799804684, 0.169921875) (-0.00030562945556640624, 0.171875) (-0.0003050725402832031, 0.173828125) (-0.0003041839294433594, 0.17578125) (-0.00030309790039062496, 0.177734375) (-0.00030193051147460936, 0.1796875) (-0.00030082910156249996, 0.181640625) (-0.0002999073486328125, 0.18359375) (-0.00029937841796875, 0.185546875) (-0.0002995487060546875, 0.1875) (-0.00030056689453125, 0.189453125) (-0.00030245751953125, 0.19140625) (-0.000305044677734375, 0.193359375) (-0.00030788427734375, 0.1953125) (-0.00031060293579101563, 0.197265625) (-0.00031295477294921874, 0.19921875) (-0.0003144795532226562, 0.201171875) (-0.00031457177734375, 0.203125) (-0.0003127923583984375, 0.205078125) (-0.00030884786987304686, 0.20703125) (-0.00030314950561523437, 0.208984375) (-0.00029681393432617187, 0.2109375) (-0.00029069451904296874, 0.212890625) (-0.0002853583984375, 0.21484375) (-0.0002811509094238281, 0.216796875) (-0.0002781771850585937, 0.21875) (-0.00027648944091796874, 0.220703125) (-0.0002758056640625, 0.22265625) (-0.0002746365051269531, 0.224609375) (-0.00027038705444335935, 0.2265625) (-0.0002603264770507812, 0.228515625) (-0.00024182467651367187, 0.23046875) (-0.00021297903442382812, 0.232421875) (-0.0001722745361328125, 0.234375) (-0.00011812688446044922, 0.236328125) (-4.983893585205078e-05, 0.23828125) (3.228205871582031e-05, 0.240234375) (0.00012672653198242187, 0.2421875) (0.00023029234313964842, 0.244140625) (0.00033951611328125, 0.24609375) (0.0004499971923828125, 0.248046875) (0.0005547257080078125, 0.25) (0.0006485949096679687, 0.251953125) (0.0007286151123046874, 0.25390625) (0.0007937034301757813, 0.255859375) (0.0008485297241210937, 0.2578125) (0.0008928117065429687, 0.259765625) (0.0009173619995117187, 0.26171875) (0.0009115662231445312, 0.263671875) (0.0008618311157226563, 0.265625) (0.0007641419677734374, 0.267578125) (0.0006342605590820312, 0.26953125) (0.0004938875732421875, 0.271484375) (0.00036541293334960937, 0.2734375) (0.00026602066040039063, 0.275390625) (0.00019392033386230468, 0.27734375) (0.00013871505737304688, 0.279296875) (9.234374999999999e-05, 0.28125) (4.658646774291992e-05, 0.283203125) (2.0866241455078122e-06, 0.28515625) (-3.413436126708984e-05, 0.287109375) (-5.988367843627929e-05, 0.2890625) (-7.446027374267577e-05, 0.291015625) (-8.001879882812499e-05, 0.29296875) (-8.271433258056641e-05, 0.294921875) (-8.629806518554687e-05, 0.296875) (-9.203933715820312e-05, 0.298828125) (-0.00010046218109130859, 0.30078125) (-0.0001106894302368164, 0.302734375) (-0.00012171374511718749, 0.3046875) (-0.00013309654235839843, 0.306640625) (-0.00014402624511718749, 0.30859375) (-0.0001532697296142578, 0.310546875) (-0.00015968675231933593, 0.3125) (-0.00016269822692871092, 0.314453125) (-0.00016226815795898438, 0.31640625) (-0.00015877500915527343, 0.318359375) (-0.00015295010375976562, 0.3203125) (-0.00014547726440429688, 0.322265625) (-0.0001370372314453125, 0.32421875) (-0.00012849786376953126, 0.326171875) (-0.00012065142059326171, 0.328125) (-0.00011397530364990233, 0.330078125) (-0.00010869931030273436, 0.33203125) (-0.00010484025573730468, 0.333984375) (-0.00010224540710449219, 0.3359375) (-0.00010077516174316405, 0.337890625) (-0.00010029545593261718, 0.33984375) (-0.00010059507751464844, 0.341796875) (-0.00010145527648925781, 0.34375) (-0.00010270348358154297, 0.345703125) (-0.00010420282745361328, 0.34765625) (-0.00010583953857421874, 0.349609375) (-0.00010747239685058594, 0.3515625) (-0.00010892632293701172, 0.353515625) (-0.00011000013732910156, 0.35546875) (-0.0001104866485595703, 0.357421875) (-0.00011024664306640625, 0.359375) (-0.00010919208526611328, 0.361328125) (-0.00010726179504394531, 0.36328125) (-0.00010444419860839844, 0.365234375) (-0.00010076053619384765, 0.3671875) (-9.624911499023437e-05, 0.369140625) (-9.098180389404297e-05, 0.37109375) (-8.505181884765625e-05, 0.373046875) (-7.853698730468749e-05, 0.375) (-7.151289367675782e-05, 0.376953125) (-6.405032348632812e-05, 0.37890625) (-5.620815277099609e-05, 0.380859375) (-4.806552124023437e-05, 0.3828125) (-3.9709442138671875e-05, 0.384765625) (-3.122764587402344e-05, 0.38671875) (-2.2714706420898438e-05, 0.388671875) (-1.4239671707153319e-05, 0.390625) (-5.8468055725097656e-06, 0.392578125) (2.428403377532959e-06, 0.39453125) (1.0567679405212401e-05, 0.396484375) (1.856760787963867e-05, 0.3984375) (2.6428571701049804e-05, 0.400390625) (3.416419601440429e-05, 0.40234375) (4.179976654052734e-05, 0.404296875) (4.934989166259765e-05, 0.40625) (5.682472229003906e-05, 0.408203125) (6.423304748535155e-05, 0.41015625) (7.15755615234375e-05, 0.412109375) (7.885659790039062e-05, 0.4140625) (8.608477783203124e-05, 0.416015625) (9.326705932617186e-05, 0.41796875) (0.00010041083526611328, 0.419921875) (0.00010752104187011719, 0.421875) (0.00011459730529785156, 0.423828125) (0.00012163746643066406, 0.42578125) (0.0001286386260986328, 0.427734375) (0.0001355943603515625, 0.4296875) (0.00014249575805664062, 0.431640625) (0.00014933065795898437, 0.43359375) (0.00015608290100097656, 0.435546875) (0.0001627380676269531, 0.4375) (0.00016928353881835937, 0.439453125) (0.00017570616149902344, 0.44140625) (0.0001819927520751953, 0.443359375) (0.00018812860107421874, 0.4453125) (0.00019409684753417968, 0.447265625) (0.00019988046264648437, 0.44921875) (0.0002054621887207031, 0.451171875) (0.00021082264709472657, 0.453125) (0.00021594076538085935, 0.455078125) (0.00022079466247558593, 0.45703125) (0.00022536096191406248, 0.458984375) (0.00022961636352539062, 0.4609375) (0.00023353817749023436, 0.462890625) (0.00023710398864746092, 0.46484375) (0.00024029164123535155, 0.466796875) (0.00024308001708984374, 0.46875) (0.00024544850158691404, 0.470703125) (0.00024737736511230466, 0.47265625) (0.00024884881591796874, 0.474609375) (0.00024984677124023435, 0.4765625) (0.0002503567199707031, 0.478515625) (0.000250365966796875, 0.48046875) (0.00024986369323730465, 0.482421875) (0.0002488408966064453, 0.484375) (0.00024729095458984375, 0.486328125) (0.0002452096405029297, 0.48828125) (0.00024259461975097656, 0.490234375) (0.00023944572448730467, 0.4921875) (0.00023576507568359373, 0.494140625) (0.00023155702209472654, 0.49609375) (0.00022682836914062499, 0.498046875) (0.00022158818054199218, 0.5) (0.00021584771728515623, 0.501953125) (0.00020962048339843748, 0.50390625) (0.00020292237854003904, 0.505859375) (0.00019577137756347654, 0.5078125) (0.0001881876220703125, 0.509765625) (0.00018019332885742186, 0.51171875) (0.0001718124542236328, 0.513671875) (0.00016307109069824217, 0.515625) (0.00015399720764160157, 0.517578125) (0.00014462026977539062, 0.51953125) (0.00013497100830078124, 0.521484375) (0.00012508123779296875, 0.5234375) (0.0001149833755493164, 0.525390625) (0.0001047104034423828, 0.52734375) (9.429557037353515e-05, 0.529296875) (8.377186584472656e-05, 0.53125) (7.317180633544921e-05, 0.533203125) (6.252740097045898e-05, 0.53515625) (5.1869789123535153e-05, 0.537109375) (4.122911071777344e-05, 0.5390625) (3.063440322875976e-05, 0.541015625) (2.011340522766113e-05, 0.54296875) (9.69239044189453e-06, 0.544921875) (-6.03954553604126e-07, 0.546875) (-1.075257110595703e-05, 0.548828125) (-2.0732072830200195e-05, 0.55078125) (-3.052273559570312e-05, 0.552734375) (-4.0106456756591796e-05, 0.5546875) (-4.946689987182617e-05, 0.556640625) (-5.858954620361328e-05, 0.55859375) (-6.746159362792969e-05, 0.560546875) (-7.607181549072265e-05, 0.5625) (-8.441059112548828e-05, 0.564453125) (-9.247007751464843e-05, 0.56640625) (-0.0001002442626953125, 0.568359375) (-0.0001077289810180664, 0.5703125) (-0.00011492178344726562, 0.572265625) (-0.0001218218536376953, 0.57421875) (-0.00012843006896972657, 0.576171875) (-0.00013474911499023436, 0.578125) (-0.00014078350830078125, 0.580078125) (-0.00014653927612304687, 0.58203125) (-0.00015202359008789062, 0.583984375) (-0.00015724491882324217, 0.5859375) (-0.00016221287536621093, 0.587890625) (-0.00016693775939941404, 0.58984375) (-0.00017143058776855467, 0.591796875) (-0.00017570285034179686, 0.59375) (-0.00017976573181152343, 0.595703125) (-0.0001836307373046875, 0.59765625) (-0.00018730935668945313, 0.599609375) (-0.00019081265258789063, 0.6015625) (-0.0001941514434814453, 0.603515625) (-0.0001973363800048828, 0.60546875) (-0.00020037722778320312, 0.607421875) (-0.00020328285217285154, 0.609375) (-0.0002060614318847656, 0.611328125) (-0.00020872010803222655, 0.61328125) (-0.00021126536560058592, 0.615234375) (-0.00021370352172851563, 0.6171875) (-0.000216039794921875, 0.619140625) (-0.00021827841186523435, 0.62109375) (-0.00022042315673828124, 0.623046875) (-0.00022247747802734373, 0.625) (-0.00022444499206542966, 0.626953125) (-0.00022632916259765623, 0.62890625) (-0.00022813247680664062, 0.630859375) (-0.00022985630798339843, 0.6328125) (-0.00023150155639648436, 0.634765625) (-0.0002330684814453125, 0.63671875) (-0.00023455712890625, 0.638671875) (-0.00023596743774414062, 0.640625) (-0.00023729811096191405, 0.642578125) (-0.0002385473937988281, 0.64453125) (-0.00023971368408203124, 0.646484375) (-0.00024079417419433592, 0.6484375) (-0.0002417865295410156, 0.650390625) (-0.0002426902160644531, 0.65234375) (-0.00024350453186035154, 0.654296875) (-0.0002442297210693359, 0.65625) (-0.0002448670959472656, 0.658203125) (-0.0002454165344238281, 0.66015625) (-0.0002458796691894531, 0.662109375) (-0.00024626242065429684, 0.6640625) (-0.0002465723876953125, 0.666015625) (-0.00024681796264648437, 0.66796875) (-0.00024700698852539064, 0.669921875) (-0.0002471443634033203, 0.671875) (-0.0002472345581054687, 0.673828125) (-0.00024728544616699216, 0.67578125) (-0.0002473058166503906, 0.677734375) (-0.0002473051452636719, 0.6796875) (-0.0002472906799316406, 0.681640625) (-0.0002472650451660156, 0.68359375) (-0.0002472327880859375, 0.685546875) (-0.0002471994934082031, 0.6875) (-0.0002471741485595703, 0.689453125) (-0.0002471704711914062, 0.69140625) (-0.0002471950988769531, 0.693359375) (-0.0002472434997558594, 0.6953125) (-0.0002473035278320312, 0.697265625) (-0.00024736102294921873, 0.69921875) (-0.00024740942382812497, 0.701171875) (-0.00024745980834960937, 0.703125) (-0.0002475302581787109, 0.705078125) (-0.00024762843322753903, 0.70703125) (-0.00024775503540039063, 0.708984375) (-0.0002479040374755859, 0.7109375) (-0.0002480769958496094, 0.712890625) (-0.00024828564453125, 0.71484375) (-0.0002485296173095703, 0.716796875) (-0.0002487864074707031, 0.71875) (-0.0002489958801269531, 0.720703125) (-0.0002490774230957031, 0.72265625) (-0.0002489731750488281, 0.724609375) (-0.0002486538391113281, 0.7265625) (-0.00024812513732910157, 0.728515625) (-0.00024741210937499996, 0.73046875) (-0.00024648898315429685, 0.732421875) (-0.0002452602386474609, 0.734375) (-0.00024360635375976562, 0.736328125) (-0.00024140606689453123, 0.73828125) (-0.00023859490966796873, 0.740234375) (-0.0002352038116455078, 0.7421875) (-0.0002311897277832031, 0.744140625) (-0.00022642787170410155, 0.74609375) (-0.00022091606140136718, 0.748046875) (-0.00021475328063964844, 0.75) (-0.000208305419921875, 0.751953125) (-0.0002022118377685547, 0.75390625) (-0.00019682675170898435, 0.755859375) (-0.00019214286804199217, 0.7578125) (-0.00018810079956054686, 0.759765625) (-0.0001845509033203125, 0.76171875) (-0.00018133966064453125, 0.763671875) (-0.00017853964233398436, 0.765625) (-0.00017564434814453124, 0.767578125) (-0.00017147195434570313, 0.76953125) (-0.0001653351593017578, 0.771484375) (-0.00015687472534179687, 0.7734375) (-0.00014619964599609374, 0.775390625) (-0.00013423983764648437, 0.77734375) (-0.00012164495086669921, 0.779296875) (-0.0001085161895751953, 0.78125) (-9.579710388183593e-05, 0.783203125) (-8.507565307617187e-05, 0.78515625) (-7.757827758789062e-05, 0.787109375) (-7.484713745117187e-05, 0.7890625) (-7.736719512939453e-05, 0.791015625) (-8.3914306640625e-05, 0.79296875) (-9.362958526611328e-05, 0.794921875) (-0.00010565049743652343, 0.796875) (-0.00011802011108398438, 0.798828125) (-0.00012868658447265623, 0.80078125) (-0.00013527455139160155, 0.802734375) (-0.00013406802368164062, 0.8046875) (-0.000122483154296875, 0.806640625) (-9.975321960449219e-05, 0.80859375) (-6.459648895263671e-05, 0.810546875) (-1.6415798187255858e-05, 0.8125) (4.40167007446289e-05, 0.814453125) (0.00011789091491699218, 0.81640625) (0.00020552806091308592, 0.818359375) (0.00030310833740234376, 0.8203125) (0.00040860684204101563, 0.822265625) (0.0005177271728515624, 0.82421875) (0.0006228507080078125, 0.826171875) (0.000722826904296875, 0.828125) (0.0008160585327148437, 0.830078125) (0.0009014690551757812, 0.83203125) (0.0009863968505859375, 0.833984375) (0.0010739573974609374, 0.8359375) (0.001161326416015625, 0.837890625) (0.001243550537109375, 0.83984375) (0.001301687744140625, 0.841796875) (0.001311994873046875, 0.84375) (0.0012618106689453125, 0.845703125) (0.0011442860107421875, 0.84765625) (0.0009701239624023437, 0.849609375) (0.00076929833984375, 0.8515625) (0.0005700209350585937, 0.853515625) (0.0004020880432128906, 0.85546875) (0.0002866234130859375, 0.857421875) (0.00022232266235351563, 0.859375) (0.00019940219116210936, 0.861328125) (0.00019858386230468749, 0.86328125) (0.00019851654052734373, 0.865234375) (0.0001918887481689453, 0.8671875) (0.00017833724975585937, 0.869140625) (0.00016298027038574219, 0.87109375) (0.00015329891967773437, 0.873046875) (0.00014920132446289062, 0.875) (0.00014753302001953124, 0.876953125) (0.0001452296142578125, 0.87890625) (0.00013886759948730467, 0.880859375) (0.00012852244567871092, 0.8828125) (0.00011632139587402344, 0.884765625) (0.0001037940444946289, 0.88671875) (9.302352905273437e-05, 0.888671875) (8.581958007812499e-05, 0.890625) (8.261591339111328e-05, 0.892578125) (8.348828887939452e-05, 0.89453125) (8.811192321777344e-05, 0.896484375) (9.547779846191405e-05, 0.8984375) (0.00010463807678222656, 0.900390625) (0.00011478723907470702, 0.90234375) (0.0001248853759765625, 0.904296875) (0.00013399069213867188, 0.90625) (0.00014161051940917967, 0.908203125) (0.00014747462463378906, 0.91015625) (0.000151581298828125, 0.912109375) (0.00015417730712890624, 0.9140625) (0.00015544281005859374, 0.916015625) (0.00015556387329101562, 0.91796875) (0.00015480221557617188, 0.919921875) (0.00015340745544433594, 0.921875) (0.00015161660766601563, 0.923828125) (0.00014961880493164062, 0.92578125) (0.00014755206298828124, 0.927734375) (0.0001455836944580078, 0.9296875) (0.00014391075134277342, 0.931640625) (0.000142742431640625, 0.93359375) (0.00014229765319824218, 0.935546875) (0.0001427207794189453, 0.9375) (0.00014407731628417967, 0.939453125) (0.00014641273498535156, 0.94140625) (0.00014972767639160155, 0.943359375) (0.00015398466491699217, 0.9453125) (0.00015914120483398437, 0.947265625) (0.00016511785888671874, 0.94921875) (0.00017181126403808592, 0.951171875) (0.00017913621520996092, 0.953125) (0.00018700382995605469, 0.955078125) (0.00019532907104492187, 0.95703125) (0.0002040398254394531, 0.958984375) (0.00021304368591308593, 0.9609375) (0.00022224081420898437, 0.962890625) (0.00023153515625, 0.96484375) (0.00024082554626464844, 0.966796875) (0.00025003720092773435, 0.96875) (0.0002591272277832031, 0.970703125) (0.0002680613403320312, 0.97265625) (0.00027682073974609375, 0.974609375) (0.00028540283203124997, 0.9765625) (0.0002938069152832031, 0.978515625) (0.0003020446166992187, 0.98046875) (0.00031013995361328124, 0.982421875) (0.00031810675048828124, 0.984375) (0.00032595312499999996, 0.986328125) (0.00033368725585937497, 0.98828125) (0.0003413111572265625, 0.990234375) (0.00034883041381835936, 0.9921875) (0.0003562558898925781, 0.994140625) (0.00036359716796875, 0.99609375) (0.000370864013671875, 0.998046875) (0.0003780641174316406, 1.0) (0.00038520062255859375, 1.001953125) (0.00039227496337890624, 1.00390625) (0.00039928781127929685, 1.005859375) (0.00040623690795898434, 1.0078125) (0.0004131180419921875, 1.009765625) (0.00041992388916015625, 1.01171875) (0.00042664392089843746, 1.013671875) (0.00043326934814453123, 1.015625) (0.0004397931213378906, 1.017578125) (0.0004462080993652344, 1.01953125) (0.0004525075073242187, 1.021484375) (0.0004586830444335937, 1.0234375) (0.0004647249145507812, 1.025390625) (0.00047062356567382813, 1.02734375) (0.000476369384765625, 1.029296875) (0.00048195135498046873, 1.03125) (0.00048735717773437496, 1.033203125) (0.00049257373046875, 1.03515625) (0.0004975870971679687, 1.037109375) (0.0005023833618164063, 1.0390625) (0.0005069491577148437, 1.041015625) (0.000511271484375, 1.04296875) (0.0005153372802734374, 1.044921875) (0.0005191341552734374, 1.046875) (0.0005226502075195312, 1.048828125) (0.0005258740844726563, 1.05078125) (0.0005287952880859375, 1.052734375) (0.0005314046630859375, 1.0546875) (0.0005336939697265625, 1.056640625) (0.0005356558837890624, 1.05859375) (0.0005372843017578125, 1.060546875) (0.000538574462890625, 1.0625) (0.0005395230712890625, 1.064453125) (0.0005401287841796875, 1.06640625) (0.0005403916015625, 1.068359375) (0.0005403132934570312, 1.0703125) (0.0005398976440429687, 1.072265625) (0.0005391501464843749, 1.07421875) (0.00053807861328125, 1.076171875) (0.0005366925659179687, 1.078125) (0.0005350036010742188, 1.080078125) (0.0005330247802734374, 1.08203125) (0.0005307711181640625, 1.083984375) (0.00052825927734375, 1.0859375) (0.00052550732421875, 1.087890625) (0.000522534423828125, 1.08984375) (0.0005193611450195312, 1.091796875) (0.0005160090332031249, 1.09375) (0.0005125009155273438, 1.095703125) (0.0005088599243164063, 1.09765625) (0.0005051100463867187, 1.099609375) (0.0005012754821777344, 1.1015625) (0.0004973804321289062, 1.103515625) (0.0004934491271972656, 1.10546875) (0.0004895054016113281, 1.107421875) (0.0004855726318359375, 1.109375) (0.0004816734924316406, 1.111328125) (0.00047783001708984375, 1.11328125) (0.00047406341552734375, 1.115234375) (0.00047039379882812495, 1.1171875) (0.00046684033203125, 1.119140625) (0.00046342098999023435, 1.12109375) (0.000460152587890625, 1.123046875) (0.00045705035400390624, 1.125) (0.0004541282348632812, 1.126953125) (0.00045139849853515624, 1.12890625) (0.00044887158203124996, 1.130859375) (0.000446556396484375, 1.1328125) (0.0004444599609375, 1.134765625) (0.0004425876770019531, 1.13671875) (0.00044094293212890623, 1.138671875) (0.0004395274963378906, 1.140625) (0.0004383411865234375, 1.142578125) (0.0004373821105957031, 1.14453125) (0.00043664654541015623, 1.146484375) (0.00043612924194335933, 1.1484375) (0.0004358232421875, 1.150390625) (0.00043572021484375, 1.15234375) (0.0004358102111816406, 1.154296875) (0.00043608203125, 1.15625) (0.00043652343749999995, 1.158203125) (0.00043712158203124997, 1.16015625) (0.00043786264038085936, 1.162109375) (0.0004387322387695312, 1.1640625) (0.00043971591186523434, 1.166015625) (0.00044079895019531246, 1.16796875) (0.000441966796875, 1.169921875) (0.00044320544433593747, 1.171875) (0.00044450103759765625, 1.173828125) (0.0004458397216796875, 1.17578125) (0.00044720806884765625, 1.177734375) (0.00044859326171875, 1.1796875) (0.00044998297119140624, 1.181640625) (0.0004513656311035156, 1.18359375) (0.00045273028564453123, 1.185546875) (0.0004540669555664062, 1.1875) (0.0004553662719726562, 1.189453125) (0.0004566201782226562, 1.19140625) (0.0004578216552734375, 1.193359375) (0.0004589645385742187, 1.1953125) (0.00046004376220703126, 1.197265625) (0.0004610553283691406, 1.19921875) (0.0004619960021972656, 1.201171875) (0.00046286328125, 1.203125) (0.00046365585327148433, 1.205078125) (0.0004643734130859375, 1.20703125) (0.0004650166625976562, 1.208984375) (0.0004655870971679687, 1.2109375) (0.000466087158203125, 1.212890625) (0.0004665203247070312, 1.21484375) (0.0004668909301757812, 1.216796875) (0.0004672047729492187, 1.21875) (0.00046746795654296875, 1.220703125) (0.00046768621826171874, 1.22265625) (0.0004678662109375, 1.224609375) (0.00046801489257812496, 1.2265625) (0.00046813818359374995, 1.228515625) (0.0004682405090332031, 1.23046875) (0.00046832452392578123, 1.232421875) (0.0004683901672363281, 1.234375) (0.000468436767578125, 1.236328125) (0.00046846395874023436, 1.23828125) (0.0004684695739746093, 1.240234375) (0.00046844979858398433, 1.2421875) (0.00046840084838867187, 1.244140625) (0.00046831930541992186, 1.24609375) (0.0004682035217285156, 1.248046875) (0.0004680537414550781, 1.25) (0.00046786846923828123, 1.251953125) (0.00046764254760742186, 1.25390625) (0.0004673681640625, 1.255859375) (0.00046703662109375, 1.2578125) (0.0004666402587890625, 1.259765625) (0.0004661724243164062, 1.26171875) (0.00046562582397460936, 1.263671875) (0.0004649930419921875, 1.265625) (0.000464266357421875, 1.267578125) (0.00046343829345703123, 1.26953125) (0.00046250750732421874, 1.271484375) (0.0004614772338867187, 1.2734375) (0.0004603458251953125, 1.275390625) (0.00045910540771484373, 1.27734375) (0.0004577355041503906, 1.279296875) (0.00045620309448242186, 1.28125) (0.00045448336791992184, 1.283203125) (0.00045256591796875, 1.28515625) (0.0004504469299316406, 1.287109375) (0.00044812658691406246, 1.2890625) (0.00044561035156249996, 1.291015625) (0.0004429096984863281, 1.29296875) (0.0004400592041015625, 1.294921875) (0.00043712155151367187, 1.296875) (0.0004341617736816406, 1.298828125) (0.0004312424621582031, 1.30078125) (0.000428413818359375, 1.302734375) (0.000425712158203125, 1.3046875) (0.00042319195556640623, 1.306640625) (0.00042092614746093746, 1.30859375) (0.0004190101318359375, 1.310546875) (0.0004175616455078125, 1.3125) (0.00041667572021484374, 1.314453125) (0.0004164058837890625, 1.31640625) (0.0004167839660644531, 1.318359375) (0.0004178297729492187, 1.3203125) (0.0004195388793945312, 1.322265625) (0.0004218994140625, 1.32421875) (0.0004248507080078125, 1.326171875) (0.0004282270812988281, 1.328125) (0.00043183496093749995, 1.330078125) (0.00043547018432617187, 1.33203125) (0.00043892523193359375, 1.333984375) (0.00044203671264648434, 1.3359375) (0.00044464764404296875, 1.337890625) (0.00044651049804687496, 1.33984375) (0.0004472778625488281, 1.341796875) (0.00044670355224609375, 1.34375) (0.0004447017517089844, 1.345703125) (0.00044141940307617186, 1.34765625) (0.00043729617309570313, 1.349609375) (0.00043273388671875, 1.3515625) (0.000427950439453125, 1.353515625) (0.00042325659179687496, 1.35546875) (0.00041915484619140626, 1.357421875) (0.0004159701538085937, 1.359375) (0.000413846435546875, 1.361328125) (0.00041252294921875, 1.36328125) (0.00041093011474609375, 1.365234375) (0.00040812167358398433, 1.3671875) (0.00040383358764648435, 1.369140625) (0.0003980052490234375, 1.37109375) (0.0003909134826660156, 1.373046875) (0.00038353106689453125, 1.375) (0.0003768714294433594, 1.376953125) (0.0003724111328125, 1.37890625) (0.000373001708984375, 1.380859375) (0.00038133544921875, 1.3828125) (0.00039939825439453124, 1.384765625) (0.00042901068115234374, 1.38671875) (0.0004709721984863281, 1.388671875) (0.0005249464111328125, 1.390625) (0.0005908357543945313, 1.392578125) (0.0006684317626953124, 1.39453125) (0.0007562060546875, 1.396484375) (0.0008526434326171875, 1.3984375) (0.0009562473144531249, 1.400390625) (0.0010628392333984374, 1.40234375) (0.00116709423828125, 1.404296875) (0.00126575048828125, 1.40625) (0.00135491796875, 1.408203125) (0.001435978515625, 1.41015625) (0.00151697705078125, 1.412109375) (0.0015980112304687499, 1.4140625) (0.001674906494140625, 1.416015625) (0.0017351975097656248, 1.41796875) (0.001753213623046875, 1.419921875) (0.0017158099365234374, 1.421875) (0.0016205574951171874, 1.423828125) (0.0014735937499999999, 1.42578125) (0.0013005035400390625, 1.427734375) (0.001122140869140625, 1.4296875) (0.000955361328125, 1.431640625) (0.00081991796875, 1.43359375) (0.0007194384765624999, 1.435546875) (0.0006526396484375, 1.4375) (0.000612755859375, 1.439453125) (0.0005808765869140625, 1.44140625) (0.0005470233154296875, 1.443359375) (0.0005084298095703125, 1.4453125) (0.00046717172241210936, 1.447265625) (0.0004329873352050781, 1.44921875) (0.0004092564086914062, 1.451171875) (0.00039331817626953123, 1.453125) (0.00038152612304687497, 1.455078125) (0.00036896795654296874, 1.45703125) (0.0003542676086425781, 1.458984375) (0.0003389428100585937, 1.4609375) (0.0003238748474121094, 1.462890625) (0.0003098706970214844, 1.46484375) (0.0002976604309082031, 1.466796875) (0.0002877745666503906, 1.46875) (0.0002811993408203125, 1.470703125) (0.0002785014038085937, 1.47265625) (0.0002792991333007812, 1.474609375) (0.0002827682495117187, 1.4765625) (0.00028799426269531246, 1.478515625) (0.0002941346740722656, 1.48046875) (0.00030045071411132813, 1.482421875) (0.0003062259826660156, 1.484375) (0.0003106650695800781, 1.486328125) (0.00031324032592773435, 1.48828125) (0.000313813232421875, 1.490234375) (0.00031244012451171874, 1.4921875) (0.00030934674072265623, 1.494140625) (0.00030478662109375, 1.49609375) (0.00029895559692382813, 1.498046875) (0.0002920880126953125, 1.5) (0.00028447772216796876, 1.501953125) (0.00027636096191406247, 1.50390625) (0.0002679512329101562, 1.505859375) (0.00025950729370117186, 1.5078125) (0.0002512541198730469, 1.509765625) (0.00024344017028808592, 1.51171875) (0.00023634445190429687, 1.513671875) (0.00023014707946777342, 1.515625) (0.00022496205139160155, 1.517578125) (0.00022087496948242186, 1.51953125) (0.00021790275573730467, 1.521484375) (0.00021602059936523437, 1.5234375) (0.00021518679809570313, 1.525390625) (0.00021531196594238281, 1.52734375) (0.00021628121948242187, 1.529296875) (0.00021799794006347655, 1.53125) (0.00022036248779296874, 1.533203125) (0.0002232803497314453, 1.53515625) (0.00022666758728027343, 1.537109375) (0.00023041436767578125, 1.5390625) (0.000234404052734375, 1.541015625) (0.00023852227783203124, 1.54296875) (0.00024265048217773436, 1.544921875) (0.00024670297241210934, 1.546875) (0.00025062466430664064, 1.548828125) (0.0002543712158203125, 1.55078125) (0.00025791903686523434, 1.552734375) (0.00026126290893554684, 1.5546875) (0.0002644039306640625, 1.556640625) (0.00026735861206054687, 1.55859375) (0.0002701556701660156, 1.560546875) (0.00027281103515625, 1.5625) (0.00027533358764648437, 1.564453125) (0.0002777310791015625, 1.56640625) (0.0002800042724609375, 1.568359375) (0.0002821578979492187, 1.5703125) (0.0002842017517089844, 1.572265625) (0.0002861435852050781, 1.57421875) (0.0002879908447265625, 1.576171875) (0.0002897481689453125, 1.578125) (0.00029141552734375, 1.580078125) (0.0002929911499023437, 1.58203125) (0.00029447195434570314, 1.583984375) (0.0002958514099121094, 1.5859375) (0.00029712078857421873, 1.587890625) (0.00029826837158203123, 1.58984375) (0.0002992798767089844, 1.591796875) (0.0003001441955566406, 1.59375) (0.00030085314941406246, 1.595703125) (0.000301399169921875, 1.59765625) (0.0003017757568359375, 1.599609375) (0.00030197579956054685, 1.6015625) (0.0003019910278320312, 1.603515625) (0.00030181384277343747, 1.60546875) (0.0003014372863769531, 1.607421875) (0.00030085272216796876, 1.609375) (0.00030005014038085934, 1.611328125) (0.00029901901245117185, 1.61328125) (0.0002977482299804687, 1.615234375) (0.0002962269287109375, 1.6171875) (0.0002944451904296875, 1.619140625) (0.0002923935546875, 1.62109375) (0.00029006295776367187, 1.623046875) (0.00028744525146484374, 1.625) (0.00028453338623046873, 1.626953125) (0.00028132110595703125, 1.62890625) (0.0002778038330078125, 1.630859375) (0.0002739786071777344, 1.6328125) (0.0002698438110351562, 1.634765625) (0.0002653992004394531, 1.63671875) (0.0002606464233398437, 1.638671875) (0.0002555885009765625, 1.640625) (0.0002502301483154297, 1.642578125) (0.00024457794189453123, 1.64453125) (0.0002386399230957031, 1.646484375) (0.000232425537109375, 1.6484375) (0.00022594581604003906, 1.650390625) (0.00021921316528320312, 1.65234375) (0.00021224136352539062, 1.654296875) (0.00020504554748535154, 1.65625) (0.00019764175415039063, 1.658203125) (0.00019004710388183593, 1.66015625) (0.00018227975463867187, 1.662109375) (0.00017435870361328125, 1.6640625) (0.00016630384826660154, 1.666015625) (0.00015813568115234373, 1.66796875) (0.0001498751983642578, 1.669921875) (0.00014154412841796874, 1.671875) (0.0001331649169921875, 1.673828125) (0.00012476037597656248, 1.67578125) (0.00011635346984863281, 1.677734375) (0.0001079672622680664, 1.6796875) (9.962443542480469e-05, 1.681640625) (9.134731292724609e-05, 1.68359375) (8.315785980224609e-05, 1.685546875) (7.50772933959961e-05, 1.6875) (6.712587738037109e-05, 1.689453125) (5.932289886474609e-05, 1.69140625) (5.1686332702636714e-05, 1.693359375) (4.42327880859375e-05, 1.6953125) (3.697744750976562e-05, 1.697265625) (2.9933977127075195e-05, 1.69921875) (2.311440849304199e-05, 1.701171875) (1.652913284301758e-05, 1.703125) (1.0186871528625488e-05, 1.705078125) (4.094617366790772e-06, 1.70703125) (-1.7422760725021362e-06, 1.708984375) (-7.319917678833008e-06, 1.7109375) (-1.2635759353637695e-05, 1.712890625) (-1.7688583374023436e-05, 1.71484375) (-2.247860336303711e-05, 1.716796875) (-2.7007400512695313e-05, 1.71875) (-3.1277862548828124e-05, 1.720703125) (-3.529395294189453e-05, 1.72265625) (-3.906063461303711e-05, 1.724609375) (-4.258398056030273e-05, 1.7265625) (-4.587116241455078e-05, 1.728515625) (-4.893049621582031e-05, 1.73046875) (-5.177102279663086e-05, 1.732421875) (-5.440227890014648e-05, 1.734375) (-5.683446502685547e-05, 1.736328125) (-5.907837677001953e-05, 1.73828125) (-6.114506149291993e-05, 1.740234375) (-6.304589462280274e-05, 1.7421875) (-6.479232025146485e-05, 1.744140625) (-6.639538574218749e-05, 1.74609375) (-6.786628723144531e-05, 1.748046875) (-6.921637725830078e-05, 1.75) (-7.045657348632812e-05, 1.751953125) (-7.159760284423827e-05, 1.75390625) (-7.265005493164062e-05, 1.755859375) (-7.362372589111327e-05, 1.7578125) (-7.4527587890625e-05, 1.759765625) (-7.537010192871093e-05, 1.76171875) (-7.615887451171875e-05, 1.763671875) (-7.690064239501953e-05, 1.765625) (-7.760185241699218e-05, 1.767578125) (-7.826787567138672e-05, 1.76953125) (-7.890312194824218e-05, 1.771484375) (-7.951162719726562e-05, 1.7734375) (-8.009729766845702e-05, 1.775390625) (-8.066386413574218e-05, 1.77734375) (-8.121465301513671e-05, 1.779296875) (-8.175232696533203e-05, 1.78125) (-8.227880096435547e-05, 1.783203125) (-8.27960205078125e-05, 1.78515625) (-8.330582427978515e-05, 1.787109375) (-8.380966949462891e-05, 1.7890625) (-8.430867004394532e-05, 1.791015625) (-8.480294799804688e-05, 1.79296875) (-8.529253387451172e-05, 1.794921875) (-8.577800750732422e-05, 1.796875) (-8.625943756103515e-05, 1.798828125) (-8.673677062988281e-05, 1.80078125) (-8.72114028930664e-05, 1.802734375) (-8.768558502197265e-05, 1.8046875) (-8.816304779052734e-05, 1.806640625) (-8.865032958984375e-05, 1.80859375) (-8.915393829345703e-05, 1.810546875) (-8.96799545288086e-05, 1.8125) (-9.023671722412109e-05, 1.814453125) (-9.08331298828125e-05, 1.81640625) (-9.147681427001952e-05, 1.818359375) (-9.217553710937499e-05, 1.8203125) (-9.293487548828125e-05, 1.822265625) (-9.375775146484375e-05, 1.82421875) (-9.464935302734375e-05, 1.826171875) (-9.56171417236328e-05, 1.828125) (-9.666960144042968e-05, 1.830078125) (-9.781681823730468e-05, 1.83203125) (-9.90682601928711e-05, 1.833984375) (-0.00010043131256103515, 1.8359375) (-0.00010191261291503906, 1.837890625) (-0.00010351841735839843, 1.83984375) (-0.00010525428771972656, 1.841796875) (-0.00010712525177001952, 1.84375) (-0.00010913066101074219, 1.845703125) (-0.00011126384735107422, 1.84765625) (-0.00011352085876464843, 1.849609375) (-0.00011590263366699219, 1.8515625) (-0.000118423828125, 1.853515625) (-0.0001211110382080078, 1.85546875) (-0.00012398136901855468, 1.857421875) (-0.00012703834533691407, 1.859375) (-0.0001302760009765625, 1.861328125) (-0.00013368353271484375, 1.86328125) (-0.000137246337890625, 1.865234375) (-0.00014094354248046873, 1.8671875) (-0.00014473150634765623, 1.869140625) (-0.00014853875732421875, 1.87109375) (-0.00015229110717773436, 1.873046875) (-0.00015591644287109375, 1.875) (-0.00015935873413085936, 1.876953125) (-0.0001625761260986328, 1.87890625) (-0.0001655133056640625, 1.880859375) (-0.00016809925842285156, 1.8828125) (-0.00017022833251953125, 1.884765625) (-0.00017177999877929687, 1.88671875) (-0.0001726614990234375, 1.888671875) (-0.00017281649780273437, 1.890625) (-0.00017222763061523438, 1.892578125) (-0.0001708850402832031, 1.89453125) (-0.00016878408813476563, 1.896484375) (-0.00016593769836425781, 1.8984375) (-0.00016241899108886717, 1.900390625) (-0.0001583951873779297, 1.90234375) (-0.00015407078552246093, 1.904296875) (-0.00014965745544433593, 1.90625) (-0.000145331787109375, 1.908203125) (-0.0001412481689453125, 1.91015625) (-0.00013756719970703125, 1.912109375) (-0.00013451963806152342, 1.9140625) (-0.0001324669189453125, 1.916015625) (-0.000131650146484375, 1.91796875) (-0.00013212173461914063, 1.919921875) (-0.00013373635864257811, 1.921875) (-0.00013603363037109373, 1.923828125) (-0.00013858859252929688, 1.92578125) (-0.0001411883544921875, 1.927734375) (-0.00014346142578125, 1.9296875) (-0.000144826171875, 1.931640625) (-0.00014492167663574218, 1.93359375) (-0.00014354244995117186, 1.935546875) (-0.00014094287109375, 1.9375) (-0.00013830076599121092, 1.939453125) (-0.00013656248474121094, 1.94140625) (-0.000136051513671875, 1.943359375) (-0.00013716087341308594, 1.9453125) (-0.0001398244171142578, 1.947265625) (-0.00014337756347656248, 1.94921875) (-0.00014719448852539062, 1.951171875) (-0.00014971742248535156, 1.953125) (-0.00014800305175781249, 1.955078125) (-0.0001394794464111328, 1.95703125) (-0.00012192678833007812, 1.958984375) (-9.290982055664062e-05, 1.9609375) (-5.127012634277344e-05, 1.962890625) (3.375059127807617e-06, 1.96484375) (7.187899780273438e-05, 1.966796875) (0.00015383566284179687, 1.96875) (0.00024759631347656246, 1.970703125) (0.000352072998046875, 1.97265625) (0.00046367498779296875, 1.974609375) (0.0005759456787109375, 1.9765625) (0.000684470947265625, 1.978515625) (0.0007851096191406249, 1.98046875) (0.0008778243408203124, 1.982421875) (0.0009695941162109374, 1.984375) (0.001061558837890625, 1.986328125) (0.0011478676757812499, 1.98828125) (0.00121494580078125, 1.990234375) (0.00124033642578125, 1.9921875) (0.0012109136962890625, 1.994140625) (0.001127344482421875, 1.99609375) (0.0009994833984375, 1.998046875) (0.0008448454589843749, 2.0) (0.0006788116455078124, 2.001953125) (0.000511644287109375, 2.00390625) (0.00035584347534179685, 2.005859375) (0.00022679173278808594, 2.0078125) (0.00013436329650878907, 2.009765625) (8.148489379882812e-05, 2.01171875) (5.933400344848633e-05, 2.013671875) (4.843587875366211e-05, 2.015625) (3.5764057159423826e-05, 2.017578125) (1.597139835357666e-05, 2.01953125) (-9.385417938232422e-06, 2.021484375) (-3.245675659179687e-05, 2.0234375) (-5.103166198730469e-05, 2.025390625) (-6.702005767822265e-05, 2.02734375) (-8.256590270996093e-05, 2.029296875) (-0.00010098500061035155, 2.03125) (-0.00012242834472656248, 2.033203125) (-0.00014469589233398437, 2.03515625) (-0.00016626237487792967, 2.037109375) (-0.00018518556213378904, 2.0390625) (-0.00019974624633789062, 2.041015625) (-0.00020953381347656248, 2.04296875) (-0.00021445903015136718, 2.044921875) (-0.00021483195495605468, 2.046875) (-0.00021165206909179687, 2.048828125) (-0.00020587298583984374, 2.05078125) (-0.00019831079101562498, 2.052734375) (-0.00018992359924316406, 2.0546875) (-0.00018163816833496093, 2.056640625) (-0.00017409637451171875, 2.05859375) (-0.00016775857543945312, 2.060546875) (-0.00016287765502929685, 2.0625) (-0.00015943833923339843, 2.064453125) (-0.00015738238525390624, 2.06640625) (-0.00015661874389648437, 2.068359375) (-0.00015696984863281248, 2.0703125) (-0.00015824261474609375, 2.072265625) (-0.00016026400756835937, 2.07421875) (-0.00016291038513183592, 2.076171875) (-0.00016607012939453124, 2.078125) (-0.00016961022949218748, 2.080078125) (-0.00017339552307128904, 2.08203125) (-0.00017728080749511717, 2.083984375) (-0.0001811600341796875, 2.0859375) (-0.00018494610595703125, 2.087890625) (-0.000188493408203125, 2.08984375) (-0.00019161886596679687, 2.091796875) (-0.00019412603759765625, 2.09375) (-0.00019587721252441406, 2.095703125) (-0.0001968233642578125, 2.09765625) (-0.00019697262573242186, 2.099609375) (-0.0001963603820800781, 2.1015625) (-0.00019502249145507812, 2.103515625) (-0.00019300871276855467, 2.10546875) (-0.00019037419128417968, 2.107421875) (-0.0001871988830566406, 2.109375) (-0.00018357733154296873, 2.111328125) (-0.00017957017517089842, 2.11328125) (-0.00017521722412109375, 2.115234375) (-0.00017051943969726563, 2.1171875) (-0.00016547052001953123, 2.119140625) (-0.00016012261962890625, 2.12109375) (-0.00015457466125488281, 2.123046875) (-0.00014895382690429686, 2.125) (-0.00014335922241210937, 2.126953125) (-0.0001378426818847656, 2.12890625) (-0.00013243170166015624, 2.130859375) (-0.00012714804077148436, 2.1328125) (-0.000122021240234375, 2.134765625) (-0.00011706703948974609, 2.13671875) (-0.00011228143310546874, 2.138671875) (-0.00010763655853271484, 2.140625) (-0.00010310334777832031, 2.142578125) (-9.867974090576172e-05, 2.14453125) (-9.438224029541015e-05, 2.146484375) (-9.025005340576172e-05, 2.1484375) (-8.632205200195312e-05, 2.150390625) (-8.260697174072265e-05, 2.15234375) (-7.908800506591797e-05, 2.154296875) (-7.573187255859375e-05, 2.15625) (-7.251295471191406e-05, 2.158203125) (-6.941934967041015e-05, 2.16015625) (-6.644445800781249e-05, 2.162109375) (-6.35779685974121e-05, 2.1640625) (-6.080363082885742e-05, 2.166015625) (-5.811555480957031e-05, 2.16796875) (-5.552342224121093e-05, 2.169921875) (-5.30514907836914e-05, 2.171875) (-5.0723773956298825e-05, 2.173828125) (-4.8552185058593746e-05, 2.17578125) (-4.6540218353271484e-05, 2.177734375) (-4.4685180664062496e-05, 2.1796875) (-4.2986869812011715e-05, 2.181640625) (-4.14517936706543e-05, 2.18359375) (-4.0090808868408204e-05, 2.185546875) (-3.891662979125976e-05, 2.1875) (-3.794060516357422e-05, 2.189453125) (-3.717418670654297e-05, 2.19140625) (-3.663004302978515e-05, 2.193359375) (-3.632346725463867e-05, 2.1953125) (-3.627092742919922e-05, 2.197265625) (-3.648471069335937e-05, 2.19921875) (-3.6971435546875e-05, 2.201171875) (-3.773298645019531e-05, 2.203125) (-3.877059173583984e-05, 2.205078125) (-4.008674621582031e-05, 2.20703125) (-4.1684005737304684e-05, 2.208984375) (-4.356362915039062e-05, 2.2109375) (-4.572412872314453e-05, 2.212890625) (-4.816280746459961e-05, 2.21484375) (-5.0877075195312495e-05, 2.216796875) (-5.386434936523437e-05, 2.21875) (-5.712062835693359e-05, 2.220703125) (-6.063929748535156e-05, 2.22265625) (-6.441127014160156e-05, 2.224609375) (-6.842547607421875e-05, 2.2265625) (-7.266970825195312e-05, 2.228515625) (-7.713059997558594e-05, 2.23046875) (-8.179337310791015e-05, 2.232421875) (-8.664186859130859e-05, 2.234375) (-9.165867614746093e-05, 2.236328125) (-9.682557678222656e-05, 2.23828125) (-0.00010212373352050781, 2.240234375) (-0.00010753369903564453, 2.2421875) (-0.00011303550720214844, 2.244140625) (-0.00011860879516601562, 2.24609375) (-0.0001242325897216797, 2.248046875) (-0.00012988552856445313, 2.25) (-0.0001355460968017578, 2.251953125) (-0.00014119267272949217, 2.25390625) (-0.00014680374145507812, 2.255859375) (-0.00015235797119140623, 2.2578125) (-0.00015783441162109374, 2.259765625) (-0.00016321261596679686, 2.26171875) (-0.00016847320556640625, 2.263671875) (-0.0001735976867675781, 2.265625) (-0.00017856871032714843, 2.267578125) (-0.00018337023925781248, 2.26953125) (-0.0001879876251220703, 2.271484375) (-0.00019240794372558592, 2.2734375) (-0.00019662001037597655, 2.275390625) (-0.00020061404418945312, 2.27734375) (-0.00020438156127929686, 2.279296875) (-0.00020791558837890623, 2.28125) (-0.00021121090698242187, 2.283203125) (-0.00021426409912109375, 2.28515625) (-0.00021707339477539063, 2.287109375) (-0.00021963839721679686, 2.2890625) (-0.00022196023559570313, 2.291015625) (-0.00022404159545898436, 2.29296875) (-0.00022588662719726563, 2.294921875) (-0.0002275009765625, 2.296875) (-0.00022889152526855467, 2.298828125) (-0.0002300660400390625, 2.30078125) (-0.00023103338623046873, 2.302734375) (-0.000231803466796875, 2.3046875) (-0.00023238690185546873, 2.306640625) (-0.00023279483032226562, 2.30859375) (-0.00023303906249999998, 2.310546875) (-0.00023313192749023436, 2.3125) (-0.00023308610534667967, 2.314453125) (-0.00023291452026367185, 2.31640625) (-0.00023263011169433594, 2.318359375) (-0.00023224569702148438, 2.3203125) (-0.00023177407836914062, 2.322265625) (-0.00023122813415527341, 2.32421875) (-0.0002306204376220703, 2.326171875) (-0.00022996305847167967, 2.328125) (-0.0002292674560546875, 2.330078125) (-0.00022854437255859374, 2.33203125) (-0.00022780364990234375, 2.333984375) (-0.00022705401611328123, 2.3359375) (-0.00022630319213867185, 2.337890625) (-0.0002255576629638672, 2.33984375) (-0.00022482264709472655, 2.341796875) (-0.0002241024932861328, 2.34375) (-0.00022340037536621092, 2.345703125) (-0.00022271835327148436, 2.34765625) (-0.00022205780029296873, 2.349609375) (-0.00022141943359374998, 2.3515625) (-0.00022080294799804688, 2.353515625) (-0.00022020736694335937, 2.35546875) (-0.00021963099670410156, 2.357421875) (-0.0002190715637207031, 2.359375) (-0.00021852635192871092, 2.361328125) (-0.00021799209594726562, 2.36328125) (-0.00021746490478515625, 2.365234375) (-0.00021694035339355467, 2.3671875) (-0.00021641392517089843, 2.369140625) (-0.00021588148498535156, 2.37109375) (-0.00021533868408203123, 2.373046875) (-0.00021478036499023435, 2.375) (-0.0002142023010253906, 2.376953125) (-0.0002136015167236328, 2.37890625) (-0.00021297637939453123, 2.380859375) (-0.00021232762145996094, 2.3828125) (-0.00021165667724609374, 2.384765625) (-0.00021096432495117185, 2.38671875) (-0.00021025282287597655, 2.388671875) (-0.00020952647399902343, 2.390625) (-0.00020878952026367188, 2.392578125) (-0.00020804660034179687, 2.39453125) (-0.0002073014678955078, 2.396484375) (-0.0002065551300048828, 2.3984375) (-0.00020581059265136717, 2.400390625) (-0.0002050740051269531, 2.40234375) (-0.00020435360717773436, 2.404296875) (-0.00020366058349609374, 2.40625) (-0.00020300592041015624, 2.408203125) (-0.00020239883422851562, 2.41015625) (-0.00020184909057617187, 2.412109375) (-0.00020136660766601562, 2.4140625) (-0.00020096041870117188, 2.416015625) (-0.0002006405487060547, 2.41796875) (-0.00020041168212890623, 2.419921875) (-0.00020027093505859374, 2.421875) (-0.00020021969604492186, 2.423828125) (-0.00020026280212402344, 2.42578125) (-0.00020041366577148436, 2.427734375) (-0.00020070204162597654, 2.4296875) (-0.00020115060424804687, 2.431640625) (-0.00020176905822753905, 2.43359375) (-0.00020256320190429686, 2.435546875) (-0.00020352868652343748, 2.4375) (-0.000204655029296875, 2.439453125) (-0.00020593045043945313, 2.44140625) (-0.00020732333374023438, 2.443359375) (-0.00020877644348144531, 2.4453125) (-0.00021023277282714842, 2.447265625) (-0.00021163311767578125, 2.44921875) (-0.00021292681884765624, 2.451171875) (-0.0002140846252441406, 2.453125) (-0.00021505926513671873, 2.455078125) (-0.00021578991699218748, 2.45703125) (-0.0002161998596191406, 2.458984375) (-0.00021617547607421874, 2.4609375) (-0.00021562289428710938, 2.462890625) (-0.00021447792053222656, 2.46484375) (-0.0002126896057128906, 2.466796875) (-0.00021024380493164061, 2.46875) (-0.00020714779663085937, 2.470703125) (-0.00020341709899902342, 2.47265625) (-0.0001991170654296875, 2.474609375) (-0.00019437118530273438, 2.4765625) (-0.000189320556640625, 2.478515625) (-0.00018414451599121093, 2.48046875) (-0.0001790215301513672, 2.482421875) (-0.00017409243774414062, 2.484375) (-0.00016953799438476562, 2.486328125) (-0.00016552149963378906, 2.48828125) (-0.0001622640380859375, 2.490234375) (-0.00016012449645996094, 2.4921875) (-0.00015929415893554686, 2.494140625) (-0.0001597783508300781, 2.49609375) (-0.0001614199981689453, 2.498046875) (-0.00016373915100097655, 2.5) (-0.00016626315307617187, 2.501953125) (-0.00016873867797851562, 2.50390625) (-0.0001707047119140625, 2.505859375) (-0.00017148492431640625, 2.5078125) (-0.00017075407409667968, 2.509765625) (-0.00016832656860351562, 2.51171875) (-0.00016447703552246093, 2.513671875) (-0.00016043482971191405, 2.515625) (-0.00015712362670898436, 2.517578125) (-0.00015488053894042967, 2.51953125) (-0.00015411691284179688, 2.521484375) (-0.00015480911254882811, 2.5234375) (-0.00015638964843749998, 2.525390625) (-0.00015837091064453123, 2.52734375) (-0.00015938597106933592, 2.529296875) (-0.00015656674194335936, 2.53125) (-0.00014725961303710936, 2.533203125) (-0.0001290695343017578, 2.53515625) (-9.961044311523437e-05, 2.537109375) (-5.779017639160156e-05, 2.5390625) (-2.7546186447143555e-06, 2.541015625) (6.690859222412109e-05, 2.54296875) (0.00015164834594726562, 2.544921875) (0.00025076666259765624, 2.546875) (0.00036127267456054684, 2.548828125) (0.00047711032104492187, 2.55078125) (0.0005925942993164062, 2.552734375) (0.0007034905395507812, 2.5546875) (0.0008103148193359374, 2.556640625) (0.0009184932861328125, 2.55859375) (0.00102805029296875, 2.560546875) (0.00113304345703125, 2.5625) (0.0012183819580078123, 2.564453125) (0.0012600455322265625, 2.56640625) (0.001244116943359375, 2.568359375) (0.001168276123046875, 2.5703125) (0.0010415859375, 2.572265625) (0.0008865848999023437, 2.57421875) (0.0007221637573242187, 2.576171875) (0.0005622624511718749, 2.578125) (0.0004202452697753906, 2.580078125) (0.0003021486511230469, 2.58203125) (0.00021139395141601562, 2.583984375) (0.00014792849731445312, 2.5859375) (0.00010237023162841797, 2.587890625) (6.538966369628906e-05, 2.58984375) (3.1504798889160156e-05, 2.591796875) (-1.083153247833252e-06, 2.59375) (-2.8021863937377928e-05, 2.595703125) (-4.638409423828125e-05, 2.59765625) (-5.7955070495605464e-05, 2.599609375) (-6.652766418457031e-05, 2.6015625) (-7.668429565429687e-05, 2.603515625) (-9.049034118652343e-05, 2.60546875) (-0.00010717933654785156, 2.607421875) (-0.00012519191741943358, 2.609375) (-0.00014297203063964842, 2.611328125) (-0.0001594036407470703, 2.61328125) (-0.00017337034606933592, 2.615234375) (-0.00018354635620117186, 2.6171875) (-0.00018924534606933592, 2.619140625) (-0.00019049621582031248, 2.62109375) (-0.00018785375976562498, 2.623046875) (-0.00018236463928222657, 2.625) (-0.0001749874267578125, 2.626953125) (-0.00016656442260742186, 2.62890625) (-0.00015811634826660157, 2.630859375) (-0.0001505906982421875, 2.6328125) (-0.0001445767822265625, 2.634765625) (-0.00014036691284179687, 2.63671875) (-0.00013796966552734373, 2.638671875) (-0.00013719044494628905, 2.640625) (-0.00013787237548828124, 2.642578125) (-0.00013985307312011717, 2.64453125) (-0.0001428919982910156, 2.646484375) (-0.00014673802185058592, 2.6484375) (-0.00015114508056640624, 2.650390625) (-0.00015591598510742187, 2.65234375) (-0.00016089804077148436, 2.654296875) (-0.00016589520263671873, 2.65625) (-0.0001706782989501953, 2.658203125) (-0.00017499655151367188, 2.66015625) (-0.00017858502197265624, 2.662109375) (-0.00018126629638671874, 2.6640625) (-0.0001829486846923828, 2.666015625) (-0.00018356787109375, 2.66796875) (-0.00018311209106445313, 2.669921875) (-0.00018161239624023436, 2.671875) (-0.0001791112823486328, 2.673828125) (-0.00017569422912597655, 2.67578125) (-0.00017147784423828124, 2.677734375) (-0.00016656004333496092, 2.6796875) (-0.00016104010009765625, 2.681640625) (-0.00015501336669921875, 2.68359375) (-0.00014856085205078125, 2.685546875) (-0.0001417884979248047, 2.6875) (-0.0001348127746582031, 2.689453125) (-0.00012774761199951172, 2.69140625) (-0.00012071265411376953, 2.693359375) (-0.00011379612731933593, 2.6953125) (-0.00010705058288574218, 2.697265625) (-0.00010051815795898437, 2.69921875) (-9.42225341796875e-05, 2.701171875) (-8.816848754882812e-05, 2.703125) (-8.235678100585937e-05, 2.705078125) (-7.677286529541016e-05, 2.70703125) (-7.138749694824219e-05, 2.708984375) (-6.618361663818359e-05, 2.7109375) (-6.115106582641601e-05, 2.712890625) (-5.628007507324218e-05, 2.71484375) (-5.1568161010742186e-05, 2.716796875) (-4.700832366943359e-05, 2.71875) (-4.2587406158447265e-05, 2.720703125) (-3.829383087158203e-05, 2.72265625) (-3.411598968505859e-05, 2.724609375) (-3.004462432861328e-05, 2.7265625) (-2.6075607299804687e-05, 2.728515625) (-2.2206470489501952e-05, 2.73046875) (-1.8435630798339844e-05, 2.732421875) (-1.4764848709106445e-05, 2.734375) (-1.1198062896728516e-05, 2.736328125) (-7.742159366607665e-06, 2.73828125) (-4.4071526527404784e-06, 2.740234375) (-1.2001802921295165e-06, 2.7421875) (1.8744186162948608e-06, 2.744140625) (4.812738418579101e-06, 2.74609375) (7.6117439270019525e-06, 2.748046875) (1.0267447471618653e-05, 2.75) (1.2774450302124022e-05, 2.751953125) (1.5127714157104492e-05, 2.75390625) (1.732240295410156e-05, 2.755859375) (1.935176086425781e-05, 2.7578125) (2.1207420349121093e-05, 2.759765625) (2.2880111694335937e-05, 2.76171875) (2.435946273803711e-05, 2.763671875) (2.5635095596313476e-05, 2.765625) (2.6697156906127928e-05, 2.767578125) (2.75358772277832e-05, 2.76953125) (2.8141553878784177e-05, 2.771484375) (2.8505054473876953e-05, 2.7734375) (2.8617910385131834e-05, 2.775390625) (2.8472103118896483e-05, 2.77734375) (2.806070899963379e-05, 2.779296875) (2.7378187179565428e-05, 2.78125) (2.641986846923828e-05, 2.783203125) (2.518228530883789e-05, 2.78515625) (2.3663402557373046e-05, 2.787109375) (2.1862442016601562e-05, 2.7890625) (1.9780200958251952e-05, 2.791015625) (1.7419233322143555e-05, 2.79296875) (1.4783528327941894e-05, 2.794921875) (1.187846565246582e-05, 2.796875) (8.711014747619628e-06, 2.798828125) (5.289569854736328e-06, 2.80078125) (1.6239227056503296e-06, 2.802734375) (-2.2748546600341798e-06, 2.8046875) (-6.3946504592895505e-06, 2.806640625) (-1.0722193717956542e-05, 2.80859375) (-1.5243105888366698e-05, 2.810546875) (-1.9942096710205077e-05, 2.8125) (-2.4802896499633787e-05, 2.814453125) (-2.9808382034301756e-05, 2.81640625) (-3.4940711975097653e-05, 2.818359375) (-4.018101501464843e-05, 2.8203125) (-4.550958251953125e-05, 2.822265625) (-5.0906173706054684e-05, 2.82421875) (-5.635011291503906e-05, 2.826171875) (-6.182051467895508e-05, 2.828125) (-6.729656219482421e-05, 2.830078125) (-7.275753784179688e-05, 2.83203125) (-7.818302154541016e-05, 2.833984375) (-8.355313110351562e-05, 2.8359375) (-8.884863281249999e-05, 2.837890625) (-9.4051025390625e-05, 2.83984375) (-9.914273071289062e-05, 2.841796875) (-0.000104107177734375, 2.84375) (-0.000108928955078125, 2.845703125) (-0.00011359393310546874, 2.84765625) (-0.00011808943176269531, 2.849609375) (-0.00012240422058105467, 2.8515625) (-0.00012652860260009766, 2.853515625) (-0.000130454345703125, 2.85546875) (-0.00013417485046386717, 2.857421875) (-0.00013768490600585937, 2.859375) (-0.00014098068237304687, 2.861328125) (-0.00014405966186523437, 2.86328125) (-0.00014692039489746093, 2.865234375) (-0.00014956271362304686, 2.8671875) (-0.00015198764038085936, 2.869140625) (-0.0001541973419189453, 2.87109375) (-0.00015619491577148438, 2.873046875) (-0.00015798455810546875, 2.875) (-0.00015957150268554687, 2.876953125) (-0.00016096185302734374, 2.87890625) (-0.00016216293334960936, 2.880859375) (-0.0001631827392578125, 2.8828125) (-0.0001640298614501953, 2.884765625) (-0.00016471353149414062, 2.88671875) (-0.0001652435302734375, 2.888671875) (-0.00016562989807128906, 2.890625) (-0.00016588299560546874, 2.892578125) (-0.00016601324462890625, 2.89453125) (-0.00016603073120117186, 2.896484375) (-0.00016594573974609375, 2.8984375) (-0.00016576855468749998, 2.900390625) (-0.00016550904846191405, 2.90234375) (-0.00016517703247070312, 2.904296875) (-0.00016478196716308594, 2.90625) (-0.00016433256530761718, 2.908203125) (-0.00016383695983886718, 2.91015625) (-0.000163302490234375, 2.912109375) (-0.00016273556518554686, 2.9140625) (-0.00016214205932617187, 2.916015625) (-0.00016152732849121092, 2.91796875) (-0.0001608956604003906, 2.919921875) (-0.00016025079345703124, 2.921875) (-0.00015959603881835936, 2.923828125) (-0.00015893418884277343, 2.92578125) (-0.0001582680969238281, 2.927734375) (-0.00015760028076171873, 2.9296875) (-0.0001569324951171875, 2.931640625) (-0.0001562662353515625, 2.93359375) (-0.0001556029815673828, 2.935546875) (-0.00015494366455078124, 2.9375) (-0.0001542889709472656, 2.939453125) (-0.00015363922119140624, 2.94140625) (-0.0001529938049316406, 2.943359375) (-0.00015235223388671874, 2.9453125) (-0.00015171421813964844, 2.947265625) (-0.00015107855224609374, 2.94921875) (-0.000150444091796875, 2.951171875) (-0.00014981089782714843, 2.953125) (-0.00014917970275878906, 2.955078125) (-0.00014855307006835937, 2.95703125) (-0.0001479356689453125, 2.958984375) (-0.0001473318634033203, 2.9609375) (-0.00014674644470214843, 2.962890625) (-0.00014618601989746093, 2.96484375) (-0.00014565719604492188, 2.966796875) (-0.0001451663818359375, 2.96875) (-0.00014471948242187498, 2.970703125) (-0.00014431996154785155, 2.97265625) (-0.0001439700012207031, 2.974609375) (-0.00014367373657226561, 2.9765625) (-0.00014343711853027344, 2.978515625) (-0.00014326782226562498, 2.98046875) (-0.0001431748046875, 2.982421875) (-0.00014316567993164062, 2.984375) (-0.00014324661254882812, 2.986328125) (-0.00014342356872558594, 2.98828125) (-0.00014370231628417967, 2.990234375) (-0.0001440878448486328, 2.9921875) (-0.00014458360290527344, 2.994140625) (-0.00014518748474121092, 2.99609375) (-0.0001458922119140625, 2.998046875) (-0.000146694580078125, 3.0) (-0.00014759902954101562, 3.001953125) (-0.0001486219482421875, 3.00390625) (-0.0001497887725830078, 3.005859375) (-0.00015111834716796874, 3.0078125) (-0.0001526168518066406, 3.009765625) (-0.00015428265380859374, 3.01171875) (-0.0001561125030517578, 3.013671875) (-0.00015809686279296876, 3.015625) (-0.00016021743774414062, 3.017578125) (-0.00016243634033203123, 3.01953125) (-0.00016468951416015625, 3.021484375) (-0.00016691078186035157, 3.0234375) (-0.0001690411376953125, 3.025390625) (-0.0001710318145751953, 3.02734375) (-0.00017284567260742186, 3.029296875) (-0.00017443576049804685, 3.03125) (-0.0001757297668457031, 3.033203125) (-0.00017663072204589843, 3.03515625) (-0.00017703517150878905, 3.037109375) (-0.00017685217285156248, 3.0390625) (-0.00017603050231933593, 3.041015625) (-0.00017455418395996092, 3.04296875) (-0.00017240032958984374, 3.044921875) (-0.00016956887817382813, 3.046875) (-0.0001660871887207031, 3.048828125) (-0.00016201998901367186, 3.05078125) (-0.00015752883911132812, 3.052734375) (-0.00015281834411621094, 3.0546875) (-0.00014807470703125, 3.056640625) (-0.00014348158264160157, 3.05859375) (-0.00013921157836914062, 3.060546875) (-0.00013540435791015623, 3.0625) (-0.00013230934143066407, 3.064453125) (-0.00013028170776367186, 3.06640625) (-0.00012951785278320313, 3.068359375) (-0.00013007162475585937, 3.0703125) (-0.00013175086975097657, 3.072265625) (-0.00013404855346679686, 3.07421875) (-0.0001365677490234375, 3.076171875) (-0.00013906787109375, 3.078125) (-0.00014113296508789063, 3.080078125) (-0.00014222125244140623, 3.08203125) (-0.00014194891357421875, 3.083984375) (-0.00014012876892089844, 3.0859375) (-0.00013732427978515625, 3.087890625) (-0.00013485881042480467, 3.08984375) (-0.00013371339416503905, 3.091796875) (-0.0001344727325439453, 3.09375) (-0.00013744223022460936, 3.095703125) (-0.0001424985809326172, 3.09765625) (-0.00014930462646484374, 3.099609375) (-0.00015706832885742188, 3.1015625) (-0.00016362429809570311, 3.103515625) (-0.00016573268127441406, 3.10546875) (-0.00016030307006835936, 3.107421875) (-0.00014439816284179686, 3.109375) (-0.0001158366470336914, 3.111328125) (-7.338780212402343e-05, 3.11328125) (-1.6036197662353516e-05, 3.115234375) (5.655084991455078e-05, 3.1171875) (0.00014330677795410156, 3.119140625) (0.00024208056640624999, 3.12109375) (0.000349998291015625, 3.123046875) (0.00046182928466796875, 3.125) (0.0005712507934570312, 3.126953125) (0.0006734273071289062, 3.12890625) (0.0007643779296875, 3.130859375) (0.000844931884765625, 3.1328125) (0.000919158935546875, 3.134765625) (0.0009858177490234374, 3.13671875) (0.0010390858154296875, 3.138671875) (0.0010672177734374999, 3.140625) (0.0010553741455078124, 3.142578125) (0.0009975098266601563, 3.14453125) (0.0008962532958984374, 3.146484375) (0.0007619443359375, 3.1484375) (0.0006115706787109375, 3.150390625) (0.0004620479736328125, 3.15234375) (0.0003298336486816406, 3.154296875) (0.00022716998291015623, 3.15625) (0.00015817781066894532, 3.158203125) (0.00011819953155517578, 3.16015625) (9.370475769042968e-05, 3.162109375) (7.20833282470703e-05, 3.1640625) (4.693422698974609e-05, 3.166015625) (1.827342414855957e-05, 3.16796875) (-7.4091720581054685e-06, 3.169921875) (-2.6192462921142577e-05, 3.171875) (-3.9357414245605465e-05, 3.173828125) (-4.980826568603515e-05, 3.17578125) (-6.155597686767578e-05, 3.177734375) (-7.639923858642577e-05, 3.1796875) (-9.320623779296875e-05, 3.181640625) (-0.00011043177795410156, 3.18359375) (-0.00012676111602783204, 3.185546875) (-0.00014087226867675782, 3.1875) (-0.00015163775634765623, 3.189453125) (-0.00015852926635742188, 3.19140625) (-0.0001613595275878906, 3.193359375) (-0.0001603833770751953, 3.1953125) (-0.0001564046630859375, 3.197265625) (-0.00015028262329101562, 3.19921875) (-0.00014274783325195312, 3.201171875) (-0.0001347171173095703, 3.203125) (-0.0001271746826171875, 3.205078125) (-0.0001207133331298828, 3.20703125) (-0.00011570399475097656, 3.208984375) (-0.00011229238128662109, 3.2109375) (-0.00011034292602539061, 3.212890625) (-0.0001097509307861328, 3.21484375) (-0.00011042070770263672, 3.216796875) (-0.00011214605712890624, 3.21875) (-0.00011468234252929688, 3.220703125) (-0.00011781564331054686, 3.22265625) (-0.00012135400390624999, 3.224609375) (-0.00012516198730468749, 3.2265625) (-0.0001291334228515625, 3.228515625) (-0.00013307406616210938, 3.23046875) (-0.00013676519775390625, 3.232421875) (-0.00013998818969726562, 3.234375) (-0.0001425179901123047, 3.236328125) (-0.00014422232055664061, 3.23828125) (-0.00014502256774902344, 3.240234375) (-0.00014485552978515625, 3.2421875) (-0.00014371032714843748, 3.244140625) (-0.00014161048889160157, 3.24609375) (-0.00013860002136230467, 3.248046875) (-0.00013476037597656248, 3.25) (-0.00013019410705566406, 3.251953125) (-0.00012498890686035155, 3.25390625) (-0.00011923091125488281, 3.255859375) (-0.00011300164794921875, 3.2578125) (-0.0001063730010986328, 3.259765625) (-9.943881225585937e-05, 3.26171875) (-9.229813385009765e-05, 3.263671875) (-8.504936981201172e-05, 3.265625) (-7.77948760986328e-05, 3.267578125) (-7.06054916381836e-05, 3.26953125) (-6.352775573730469e-05, 3.271484375) (-5.660048294067383e-05, 3.2734375) (-4.9844154357910154e-05, 3.275390625) (-4.3265872955322266e-05, 3.27734375) (-3.686839294433594e-05, 3.279296875) (-3.06401252746582e-05, 3.28125) (-2.4558944702148436e-05, 3.283203125) (-1.8613439559936524e-05, 3.28515625) (-1.2795802116394042e-05, 3.287109375) (-7.099198341369629e-06, 3.2890625) (-1.523767828941345e-06, 3.291015625) (3.934832334518432e-06, 3.29296875) (9.284925460815429e-06, 3.294921875) (1.4533227920532226e-05, 3.296875) (1.9687145233154296e-05, 3.298828125) (2.4751159667968748e-05, 3.30078125) (2.972482681274414e-05, 3.302734375) (3.4606445312499996e-05, 3.3046875) (3.939333343505859e-05, 3.306640625) (4.407995223999023e-05, 3.30859375) (4.865909194946289e-05, 3.310546875) (5.312065505981445e-05, 3.3125) (5.745159912109375e-05, 3.314453125) (6.164137268066405e-05, 3.31640625) (6.568179321289062e-05, 3.318359375) (6.956497955322265e-05, 3.3203125) (7.328385925292968e-05, 3.322265625) (7.683048248291016e-05, 3.32421875) (8.019561004638671e-05, 3.326171875) (8.337051391601562e-05, 3.328125) (8.634683227539062e-05, 3.330078125) (8.911476135253905e-05, 3.33203125) (9.166352844238281e-05, 3.333984375) (9.398175048828124e-05, 3.3359375) (9.605716705322265e-05, 3.337890625) (9.787773132324218e-05, 3.33984375) (9.943217468261719e-05, 3.341796875) (0.0001007094268798828, 3.34375) (0.00010169873046875, 3.345703125) (0.00010238995361328125, 3.34765625) (0.00010277320861816406, 3.349609375) (0.0001028392333984375, 3.3515625) (0.00010258012390136718, 3.353515625) (0.00010198930358886718, 3.35546875) (0.00010106140899658203, 3.357421875) (9.979244995117187e-05, 3.359375) (9.817984008789062e-05, 3.361328125) (9.62225112915039e-05, 3.36328125) (9.392141723632813e-05, 3.365234375) (9.127943420410155e-05, 3.3671875) (8.830111694335937e-05, 3.369140625) (8.499270629882811e-05, 3.37109375) (8.136215209960937e-05, 3.373046875) (7.741909790039062e-05, 3.375) (7.317501831054688e-05, 3.376953125) (6.864290618896485e-05, 3.37890625) (6.383716583251953e-05, 3.380859375) (5.877360916137695e-05, 3.3828125) (5.3469295501708985e-05, 3.384765625) (4.794243621826172e-05, 3.38671875) (4.221235656738281e-05, 3.388671875) (3.6299316406249995e-05, 3.390625) (3.022434616088867e-05, 3.392578125) (2.400944709777832e-05, 3.39453125) (1.7677307128906248e-05, 3.396484375) (1.125114345550537e-05, 3.3984375) (4.754671573638916e-06, 3.400390625) (-1.7881666421890258e-06, 3.40234375) (-8.353403091430664e-06, 3.404296875) (-1.4917122840881347e-05, 3.40625) (-2.1455673217773436e-05, 3.408203125) (-2.7945819854736327e-05, 3.41015625) (-3.436481475830078e-05, 3.412109375) (-4.0690597534179686e-05, 3.4140625) (-4.6901947021484375e-05, 3.416015625) (-5.297867965698242e-05, 3.41796875) (-5.890184783935547e-05, 3.419921875) (-6.465381622314453e-05, 3.421875) (-7.021837615966796e-05, 3.423828125) (-7.55809097290039e-05, 3.42578125) (-8.072833251953124e-05, 3.427734375) (-8.564925384521483e-05, 3.4296875) (-9.033416748046875e-05, 3.431640625) (-9.477522277832031e-05, 3.43359375) (-9.896613311767578e-05, 3.435546875) (-0.00010290225982666014, 3.4375) (-0.00010658046722412109, 3.439453125) (-0.00010999919128417969, 3.44140625) (-0.0001131587142944336, 3.443359375) (-0.00011606077575683594, 3.4453125) (-0.0001187083282470703, 3.447265625) (-0.00012110575866699218, 3.44921875) (-0.00012325863647460938, 3.451171875) (-0.00012517375946044922, 3.453125) (-0.000126859375, 3.455078125) (-0.00012832452392578123, 3.45703125) (-0.00012957896423339843, 3.458984375) (-0.0001306332550048828, 3.4609375) (-0.0001314985809326172, 3.462890625) (-0.00013218658447265624, 3.46484375) (-0.0001327095489501953, 3.466796875) (-0.00013307987976074218, 3.46875) (-0.00013330976867675782, 3.470703125) (-0.00013341171264648436, 3.47265625) (-0.0001333979949951172, 3.474609375) (-0.00013328080749511718, 3.4765625) (-0.000133072509765625, 3.478515625) (-0.00013278504943847654, 3.48046875) (-0.00013242942810058592, 3.482421875) (-0.00013201626586914063, 3.484375) (-0.0001315552978515625, 3.486328125) (-0.00013105538940429688, 3.48828125) (-0.00013052532958984374, 3.490234375) (-0.00012997299194335936, 3.4921875) (-0.00012940481567382813, 3.494140625) (-0.0001288265686035156, 3.49609375) (-0.0001282433319091797, 3.498046875) (-0.00012765963745117186, 3.5) (-0.000127079833984375, 3.501953125) (-0.00012650753784179686, 3.50390625) (-0.0001259447021484375, 3.505859375) (-0.00012539266967773438, 3.5078125) (-0.00012485254669189453, 3.509765625) (-0.0001243246612548828, 3.51171875) (-0.00012380902862548827, 3.513671875) (-0.0001233046875, 3.515625) (-0.0001228091812133789, 3.517578125) (-0.00012231978607177735, 3.51953125) (-0.00012183355712890624, 3.521484375) (-0.00012134713745117187, 3.5234375) (-0.00012085737609863281, 3.525390625) (-0.0001203617935180664, 3.52734375) (-0.00011985823059082031, 3.529296875) (-0.00011934608459472656, 3.53125) (-0.00011882662963867187, 3.533203125) (-0.00011830144500732421, 3.53515625) (-0.00011777305603027344, 3.537109375) (-0.00011724501037597656, 3.5390625) (-0.00011672036743164062, 3.541015625) (-0.00011620130920410155, 3.54296875) (-0.00011568983459472656, 3.544921875) (-0.00011518678283691406, 3.546875) (-0.00011469168090820312, 3.548828125) (-0.00011420614624023437, 3.55078125) (-0.0001137328643798828, 3.552734375) (-0.00011327429962158202, 3.5546875) (-0.00011283489990234375, 3.556640625) (-0.00011241870880126953, 3.55859375) (-0.00011202723693847656, 3.560546875) (-0.00011166256713867187, 3.5625) (-0.00011132705688476562, 3.564453125) (-0.00011102018737792968, 3.56640625) (-0.00011074311828613281, 3.568359375) (-0.00011049510192871093, 3.5703125) (-0.00011026918029785156, 3.572265625) (-0.00011006637573242187, 3.57421875) (-0.00010989728546142577, 3.576171875) (-0.00010977828216552734, 3.578125) (-0.00010973664093017578, 3.580078125) (-0.00010979353332519531, 3.58203125) (-0.00010995292663574218, 3.583984375) (-0.00011021914672851562, 3.5859375) (-0.00011059737396240234, 3.587890625) (-0.00011108154296875, 3.58984375) (-0.0001116609649658203, 3.591796875) (-0.00011230517578124999, 3.59375) (-0.00011295362091064453, 3.595703125) (-0.00011354985046386718, 3.59765625) (-0.00011404273223876953, 3.599609375) (-0.00011438101196289061, 3.6015625) (-0.00011452911376953125, 3.603515625) (-0.00011443146514892578, 3.60546875) (-0.00011399662780761718, 3.607421875) (-0.00011312975311279296, 3.609375) (-0.0001117275390625, 3.611328125) (-0.00010970657348632812, 3.61328125) (-0.00010704757690429687, 3.615234375) (-0.00010373587036132812, 3.6171875) (-9.973988342285156e-05, 3.619140625) (-9.505503845214844e-05, 3.62109375) (-8.969506072998047e-05, 3.623046875) (-8.374664306640624e-05, 3.625) (-7.741322326660156e-05, 3.626953125) (-7.091234588623047e-05, 3.62890625) (-6.443681335449219e-05, 3.630859375) (-5.817675018310547e-05, 3.6328125) (-5.227763748168945e-05, 3.634765625) (-4.6971328735351564e-05, 3.63671875) (-4.264278411865234e-05, 3.638671875) (-3.9560951232910156e-05, 3.640625) (-3.7836734771728516e-05, 3.642578125) (-3.736229705810547e-05, 3.64453125) (-3.7671966552734373e-05, 3.646484375) (-3.835001373291015e-05, 3.6484375) (-3.9251182556152345e-05, 3.650390625) (-4.011003112792969e-05, 3.65234375) (-4.051718139648437e-05, 3.654296875) (-4.021954345703125e-05, 3.65625) (-3.9020545959472654e-05, 3.658203125) (-3.734060668945312e-05, 3.66015625) (-3.651856231689453e-05, 3.662109375) (-3.76556396484375e-05, 3.6640625) (-4.121109008789062e-05, 3.666015625) (-4.730367279052734e-05, 3.66796875) (-5.551115417480468e-05, 3.669921875) (-6.511109161376953e-05, 3.671875) (-7.5355224609375e-05, 3.673828125) (-8.425944519042968e-05, 3.67578125) (-8.849791717529297e-05, 3.677734375) (-8.493936157226563e-05, 3.6796875) (-7.09691162109375e-05, 3.681640625) (-4.486698532104492e-05, 3.68359375) (-6.1345138549804685e-06, 3.685546875) (4.568917846679687e-05, 3.6875) (0.00011109732055664062, 3.689453125) (0.00018883297729492188, 3.69140625) (0.0002764349365234375, 3.693359375) (0.00037131262207031247, 3.6953125) (0.00047046166992187495, 3.697265625) (0.0005715614624023437, 3.69921875) (0.0006716757202148438, 3.701171875) (0.0007654653930664063, 3.703125) (0.0008474010009765625, 3.705078125) (0.00091462890625, 3.70703125) (0.0009692810668945312, 3.708984375) (0.0010159751586914063, 3.7109375) (0.0010573863525390624, 3.712890625) (0.0010901485595703124, 3.71484375) (0.0011005106201171875, 3.716796875) (0.001074066162109375, 3.71875) (0.0010012264404296875, 3.720703125) (0.0008788104248046875, 3.72265625) (0.0007212897949218749, 3.724609375) (0.0005494757690429687, 3.7265625) (0.00038656103515625, 3.728515625) (0.0002587554931640625, 3.73046875) (0.00017503012084960936, 3.732421875) (0.00013296994018554688, 3.734375) (0.00012083966064453124, 3.736328125) (0.0001160701446533203, 3.73828125) (0.0001066531982421875, 3.740234375) (8.972127532958983e-05, 3.7421875) (6.781106567382812e-05, 3.744140625) (5.029497146606445e-05, 3.74609375) (4.019889831542968e-05, 3.748046875) (3.473881530761719e-05, 3.75) (3.0858285903930666e-05, 3.751953125) (2.4385753631591795e-05, 3.75390625) (1.4144397735595702e-05, 3.755859375) (1.8376966714859008e-06, 3.7578125) (-1.1178205490112304e-05, 3.759765625) (-2.3492694854736325e-05, 3.76171875) (-3.379716491699219e-05, 3.763671875) (-4.126702117919922e-05, 3.765625) (-4.539700317382812e-05, 3.767578125) (-4.616497802734375e-05, 3.76953125) (-4.411323165893555e-05, 3.771484375) (-4.009041976928711e-05, 3.7734375) (-3.4912269592285155e-05, 3.775390625) (-2.9319883346557615e-05, 3.77734375) (-2.4038074493408203e-05, 3.779296875) (-1.9734228134155272e-05, 3.78125) (-1.6832178115844726e-05, 3.783203125) (-1.548541831970215e-05, 3.78515625) (-1.565369415283203e-05, 3.787109375) (-1.7147533416748045e-05, 3.7890625) (-1.975285720825195e-05, 3.791015625) (-2.328419494628906e-05, 3.79296875) (-2.752681541442871e-05, 3.794921875) (-3.2231754302978514e-05, 3.796875) (-3.7215309143066406e-05, 3.798828125) (-4.2328075408935544e-05, 3.80078125) (-4.738743209838867e-05, 3.802734375) (-5.223031234741211e-05, 3.8046875) (-5.666482162475586e-05, 3.806640625) (-6.0464347839355466e-05, 3.80859375) (-6.34835090637207e-05, 3.810546875) (-6.563799285888672e-05, 3.8125) (-6.686158752441406e-05, 3.814453125) (-6.713880157470703e-05, 3.81640625) (-6.648394775390625e-05, 3.818359375) (-6.491835021972656e-05, 3.8203125) (-6.250594329833984e-05, 3.822265625) (-5.933778381347656e-05, 3.82421875) (-5.548980712890625e-05, 3.826171875) (-5.104073715209961e-05, 3.828125) (-4.606380844116211e-05, 3.830078125) (-4.0620178222656245e-05, 3.83203125) (-3.479375839233398e-05, 3.833984375) (-2.8677593231201172e-05, 3.8359375) (-2.2365297317504882e-05, 3.837890625) (-1.5956986427307127e-05, 3.83984375) (-9.52590274810791e-06, 3.841796875) (-3.1182293891906737e-06, 3.84375) (3.2280986309051512e-06, 3.845703125) (9.490793228149413e-06, 3.84765625) (1.5661516189575196e-05, 3.849609375) (2.1736032485961912e-05, 3.8515625) (2.7723955154418946e-05, 3.853515625) (3.36468620300293e-05, 3.85546875) (3.951583099365234e-05, 3.857421875) (4.533572769165039e-05, 3.859375) (5.111006546020508e-05, 3.861328125) (5.683608627319336e-05, 3.86328125) (6.251508331298828e-05, 3.865234375) (6.815279388427733e-05, 3.8671875) (7.375350952148437e-05, 3.869140625) (7.932138061523437e-05, 3.87109375) (8.485785675048828e-05, 3.873046875) (9.036012268066406e-05, 3.875) (9.582371520996094e-05, 3.876953125) (0.00010124270629882812, 3.87890625) (0.00010660828399658202, 3.880859375) (0.00011190957641601562, 3.8828125) (0.00011713243103027343, 3.884765625) (0.00012225963592529297, 3.88671875) (0.00012727621459960936, 3.888671875) (0.00013216914367675782, 3.890625) (0.00013692582702636718, 3.892578125) (0.00014153439331054688, 3.89453125) (0.0001459818878173828, 3.896484375) (0.00015025411987304687, 3.8984375) (0.00015433737182617187, 3.900390625) (0.00015821826171874998, 3.90234375) (0.00016188198852539062, 3.904296875) (0.00016531263732910155, 3.90625) (0.0001684936981201172, 3.908203125) (0.00017140802001953124, 3.91015625) (0.00017403887939453124, 3.912109375) (0.0001763702697753906, 3.9140625) (0.00017838674926757813, 3.916015625) (0.00018007342529296875, 3.91796875) (0.0001814163818359375, 3.919921875) (0.00018240289306640625, 3.921875) (0.0001830211181640625, 3.923828125) (0.00018326052856445311, 3.92578125) (0.00018311253356933594, 3.927734375) (0.00018256985473632812, 3.9296875) (0.00018162695312499999, 3.931640625) (0.00018028009033203124, 3.93359375) (0.00017852722167968749, 3.935546875) (0.00017636825561523437, 3.9375) (0.00017380523681640624, 3.939453125) (0.00017084214782714843, 3.94140625) (0.00016748484802246093, 3.943359375) (0.00016374114990234376, 3.9453125) (0.00015962091064453124, 3.947265625) (0.00015513589477539062, 3.94921875) (0.0001502997589111328, 3.951171875) (0.00014512786865234373, 3.953125) (0.00013963739013671874, 3.955078125) (0.0001338472442626953, 3.95703125) (0.0001277777862548828, 3.958984375) (0.000121450927734375, 3.9609375) (0.0001148897933959961, 3.962890625) (0.00010811856842041016, 3.96484375) (0.0001011628189086914, 3.966796875) (9.404931640624999e-05, 3.96875) (8.680553436279297e-05, 3.970703125) (7.945956420898437e-05, 3.97265625) (7.203988647460937e-05, 3.974609375) (6.457512664794922e-05, 3.9765625) (5.7093917846679686e-05, 3.978515625) (4.962472534179687e-05, 3.98046875) (4.2195343017578126e-05, 3.982421875) (3.48326530456543e-05, 3.984375) (2.7562700271606444e-05, 3.986328125) (2.0410392761230466e-05, 3.98828125) (1.33993501663208e-05, 3.990234375) (6.55187702178955e-06, 3.9921875) (-1.112680435180664e-07, 3.994140625) (-6.571014881134033e-06, 3.99609375) (-1.2810009002685546e-05, 3.998046875) (-1.88126106262207e-05, 4.0) (-2.456495666503906e-05, 4.001953125) (-3.0054931640624998e-05, 4.00390625) (-3.5272132873535156e-05, 4.005859375) (-4.020801544189453e-05, 4.0078125) (-4.485589981079101e-05, 4.009765625) (-4.921083831787109e-05, 4.01171875) (-5.32695198059082e-05, 4.013671875) (-5.703021240234375e-05, 4.015625) (-6.0492980957031245e-05, 4.017578125) (-6.365962982177734e-05, 4.01953125) (-6.653368377685547e-05, 4.021484375) (-6.912010192871093e-05, 4.0234375) (-7.142520141601562e-05, 4.025390625) (-7.345668792724609e-05, 4.02734375) (-7.522367858886718e-05, 4.029296875) (-7.673681640625e-05, 4.03125) (-7.80077896118164e-05, 4.033203125) (-7.904907989501952e-05, 4.03515625) (-7.987405395507812e-05, 4.037109375) (-8.049678039550781e-05, 4.0390625) (-8.093176269531249e-05, 4.041015625) (-8.119389343261719e-05, 4.04296875) (-8.12980499267578e-05, 4.044921875) (-8.125858306884765e-05, 4.046875) (-8.108966064453125e-05, 4.048828125) (-8.080523681640624e-05, 4.05078125) (-8.041846466064453e-05, 4.052734375) (-7.99420394897461e-05, 4.0546875) (-7.938816833496094e-05, 4.056640625) (-7.876799011230468e-05, 4.05859375) (-7.809168243408203e-05, 4.060546875) (-7.736866760253906e-05, 4.0625) (-7.6607421875e-05, 4.064453125) (-7.581561279296874e-05, 4.06640625) (-7.500048828125e-05, 4.068359375) (-7.416817474365234e-05, 4.0703125) (-7.332366943359375e-05, 4.072265625) (-7.247138214111327e-05, 4.07421875) (-7.16153106689453e-05, 4.076171875) (-7.075915527343749e-05, 4.078125) (-6.990596008300781e-05, 4.080078125) (-6.905794525146484e-05, 4.08203125) (-6.821644592285155e-05, 4.083984375) (-6.738256072998046e-05, 4.0859375) (-6.655717468261719e-05, 4.087890625) (-6.57406997680664e-05, 4.08984375) (-6.493297576904297e-05, 4.091796875) (-6.413262939453125e-05, 4.09375) (-6.333789443969727e-05, 4.095703125) (-6.254724121093749e-05, 4.09765625) (-6.175824737548827e-05, 4.099609375) (-6.09683609008789e-05, 4.1015625) (-6.017623138427734e-05, 4.103515625) (-5.938112640380859e-05, 4.10546875) (-5.858388519287109e-05, 4.107421875) (-5.778816986083984e-05, 4.109375) (-5.6997894287109375e-05, 4.111328125) (-5.621722412109375e-05, 4.11328125) (-5.545286178588867e-05, 4.115234375) (-5.4712226867675776e-05, 4.1171875) (-5.4002052307128906e-05, 4.119140625) (-5.332954406738281e-05, 4.12109375) (-5.270025634765625e-05, 4.123046875) (-5.211802673339844e-05, 4.125) (-5.158901214599609e-05, 4.126953125) (-5.112150192260742e-05, 4.12890625) (-5.0724960327148434e-05, 4.130859375) (-5.041033935546875e-05, 4.1328125) (-5.018803024291992e-05, 4.134765625) (-5.006693649291992e-05, 4.13671875) (-5.0055152893066406e-05, 4.138671875) (-5.0160026550292964e-05, 4.140625) (-5.038853073120117e-05, 4.142578125) (-5.074701690673828e-05, 4.14453125) (-5.12364616394043e-05, 4.146484375) (-5.185327529907226e-05, 4.1484375) (-5.2596435546875e-05, 4.150390625) (-5.346937561035156e-05, 4.15234375) (-5.4488918304443355e-05, 4.154296875) (-5.568214416503906e-05, 4.15625) (-5.706716156005859e-05, 4.158203125) (-5.8650428771972655e-05, 4.16015625) (-6.043007278442383e-05, 4.162109375) (-6.240067291259766e-05, 4.1640625) (-6.455520629882813e-05, 4.166015625) (-6.688098907470703e-05, 4.16796875) (-6.934462738037109e-05, 4.169921875) (-7.188899230957032e-05, 4.171875) (-7.445362854003905e-05, 4.173828125) (-7.697951507568358e-05, 4.17578125) (-7.942179870605469e-05, 4.177734375) (-8.174378204345703e-05, 4.1796875) (-8.389408874511718e-05, 4.181640625) (-8.580570220947265e-05, 4.18359375) (-8.737738037109374e-05, 4.185546875) (-8.849544525146483e-05, 4.1875) (-8.907331848144531e-05, 4.189453125) (-8.905644989013671e-05, 4.19140625) (-8.842621612548827e-05, 4.193359375) (-8.71690444946289e-05, 4.1953125) (-8.527081298828124e-05, 4.197265625) (-8.273191833496094e-05, 4.19921875) (-7.960466003417969e-05, 4.201171875) (-7.602379608154297e-05, 4.203125) (-7.216197204589843e-05, 4.205078125) (-6.819906616210938e-05, 4.20703125) (-6.428632354736327e-05, 4.208984375) (-6.0568309783935544e-05, 4.2109375) (-5.719689178466797e-05, 4.212890625) (-5.4397216796874995e-05, 4.21484375) (-5.2528938293457026e-05, 4.216796875) (-5.1821613311767574e-05, 4.21875) (-5.231307983398437e-05, 4.220703125) (-5.384732437133789e-05, 4.22265625) (-5.595051574707031e-05, 4.224609375) (-5.8197296142578124e-05, 4.2265625) (-6.040193939208984e-05, 4.228515625) (-6.221880340576171e-05, 4.23046875) (-6.310022735595703e-05, 4.232421875) (-6.27509651184082e-05, 4.234375) (-6.1032382965087886e-05, 4.236328125) (-5.830323028564453e-05, 4.23828125) (-5.5871540069580075e-05, 4.240234375) (-5.474429321289062e-05, 4.2421875) (-5.5257675170898434e-05, 4.244140625) (-5.7798179626464844e-05, 4.24609375) (-6.22912368774414e-05, 4.248046875) (-6.813402557373047e-05, 4.25) (-7.479682922363281e-05, 4.251953125) (-8.071044921875e-05, 4.25390625) (-8.28154067993164e-05, 4.255859375) (-7.839996337890625e-05, 4.2578125) (-6.511140441894531e-05, 4.259765625) (-4.051559829711914e-05, 4.26171875) (-3.4437885284423827e-06, 4.263671875) (4.68141975402832e-05, 4.265625) (0.0001114891357421875, 4.267578125) (0.0001904236602783203, 4.26953125) (0.00028199572753906247, 4.271484375) (0.00038458251953125, 4.2734375) (0.0004942050170898437, 4.275390625) (0.0006047352905273437, 4.27734375) (0.0007118491821289062, 4.279296875) (0.0008109243774414062, 4.28125) (0.0009004480590820312, 4.283203125) (0.00098452880859375, 4.28515625) (0.0010631020507812499, 4.287109375) (0.001131815185546875, 4.2890625) (0.0011801164550781249, 4.291015625) (0.00119021630859375, 4.29296875) (0.0011507352294921874, 4.294921875) (0.0010608800048828124, 4.296875) (0.0009308555908203125, 4.298828125) (0.00077889990234375, 4.30078125) (0.0006238245239257813, 4.302734375) (0.00048135873413085933, 4.3046875) (0.00036035202026367185, 4.306640625) (0.00026690228271484374, 4.30859375) (0.0002010095977783203, 4.310546875) (0.00015454624938964843, 4.3125) (0.00012075668334960937, 4.314453125) (9.221743774414062e-05, 4.31640625) (6.542498016357422e-05, 4.318359375) (4.4456066131591796e-05, 4.3203125) (3.081491088867188e-05, 4.322265625) (2.3463668823242187e-05, 4.32421875) (1.9557189941406248e-05, 4.326171875) (1.3954011917114257e-05, 4.328125) (4.344590187072753e-06, 4.330078125) (-8.831277847290039e-06, 4.33203125) (-2.4332736968994138e-05, 4.333984375) (-4.0524131774902344e-05, 4.3359375) (-5.622793197631836e-05, 4.337890625) (-7.019528198242187e-05, 4.33984375) (-8.093499755859375e-05, 4.341796875) (-8.757281494140625e-05, 4.34375) (-8.988972473144531e-05, 4.345703125) (-8.835133361816405e-05, 4.34765625) (-8.396566772460937e-05, 4.349609375) (-7.761903381347656e-05, 4.3515625) (-7.011752319335937e-05, 4.353515625) (-6.245198059082031e-05, 4.35546875) (-5.553533172607422e-05, 4.357421875) (-4.9967071533203126e-05, 4.359375) (-4.607167053222656e-05, 4.361328125) (-4.38480224609375e-05, 4.36328125) (-4.3100944519042965e-05, 4.365234375) (-4.368425750732422e-05, 4.3671875) (-4.543535995483398e-05, 4.369140625) (-4.81392936706543e-05, 4.37109375) (-5.157622528076172e-05, 4.373046875) (-5.552336883544922e-05, 4.375) (-5.9812168121337885e-05, 4.376953125) (-6.432144165039063e-05, 4.37890625) (-6.888714599609375e-05, 4.380859375) (-7.331011962890624e-05, 4.3828125) (-7.736747741699219e-05, 4.384765625) (-8.08150634765625e-05, 4.38671875) (-8.348857116699219e-05, 4.388671875) (-8.530461883544922e-05, 4.390625) (-8.620216369628905e-05, 4.392578125) (-8.616825103759766e-05, 4.39453125) (-8.522679138183593e-05, 4.396484375) (-8.341130065917969e-05, 4.3984375) (-8.079566955566406e-05, 4.400390625) (-7.748006439208984e-05, 4.40234375) (-7.354737854003906e-05, 4.404296875) (-6.908161163330078e-05, 4.40625) (-6.416134643554687e-05, 4.408203125) (-5.885202026367187e-05, 4.41015625) (-5.324319458007812e-05, 4.412109375) (-4.743539428710937e-05, 4.4140625) (-4.1529647827148434e-05, 4.416015625) (-3.563587188720703e-05, 4.41796875) (-2.9834621429443358e-05, 4.419921875) (-2.417270278930664e-05, 4.421875) (-1.868782043457031e-05, 4.423828125) (-1.3400620460510253e-05, 4.42578125) (-8.31519603729248e-06, 4.427734375) (-3.432563304901123e-06, 4.4296875) (1.2615619897842407e-06, 4.431640625) (5.796054840087891e-06, 4.43359375) (1.0188194274902343e-05, 4.435546875) (1.4448347091674803e-05, 4.4375) (1.858580207824707e-05, 4.439453125) (2.26026611328125e-05, 4.44140625) (2.6505727767944336e-05, 4.443359375) (3.030796432495117e-05, 4.4453125) (3.402118682861328e-05, 4.447265625) (3.765760803222656e-05, 4.44921875) (4.122687149047851e-05, 4.451171875) (4.473353576660156e-05, 4.453125) (4.818069458007812e-05, 4.455078125) (5.157030487060547e-05, 4.45703125) (5.4900871276855465e-05, 4.458984375) (5.816848754882812e-05, 4.4609375) (6.13652114868164e-05, 4.462890625) (6.447920989990234e-05, 4.46484375) (6.75009536743164e-05, 4.466796875) (7.042301940917968e-05, 4.46875) (7.323802185058594e-05, 4.470703125) (7.593901824951172e-05, 4.47265625) (7.851759338378905e-05, 4.474609375) (8.096357727050781e-05, 4.4765625) (8.326721954345702e-05, 4.478515625) (8.541888427734375e-05, 4.48046875) (8.74070587158203e-05, 4.482421875) (8.921865844726562e-05, 4.484375) (9.083963012695313e-05, 4.486328125) (9.225494384765624e-05, 4.48828125) (9.344975280761718e-05, 4.490234375) (9.440988159179688e-05, 4.4921875) (9.512139892578124e-05, 4.494140625) (9.557063293457031e-05, 4.49609375) (9.574459838867188e-05, 4.498046875) (9.563111877441406e-05, 4.5) (9.52186050415039e-05, 4.501953125) (9.449658203124999e-05, 4.50390625) (9.345594787597655e-05, 4.505859375) (9.208854675292968e-05, 4.5078125) (9.038735961914062e-05, 4.509765625) (8.834686279296874e-05, 4.51171875) (8.596282958984375e-05, 4.513671875) (8.323273468017578e-05, 4.515625) (8.015599060058593e-05, 4.517578125) (7.673373413085937e-05, 4.51953125) (7.29688720703125e-05, 4.521484375) (6.886635589599609e-05, 4.5234375) (6.443313598632813e-05, 4.525390625) (5.9678184509277343e-05, 4.52734375) (5.4612422943115234e-05, 4.529296875) (4.9248504638671874e-05, 4.53125) (4.360098648071289e-05, 4.533203125) (3.768619155883789e-05, 4.53515625) (3.1522026062011714e-05, 4.537109375) (2.5127967834472655e-05, 4.5390625) (1.8524887084960936e-05, 4.541015625) (1.1734825134277343e-05, 4.54296875) (4.781243324279785e-06, 4.544921875) (-2.3112406730651856e-06, 4.546875) (-9.517269134521485e-06, 4.548828125) (-1.681084632873535e-05, 4.55078125) (-2.416566467285156e-05, 4.552734375) (-3.155544281005859e-05, 4.5546875) (-3.895399475097656e-05, 4.556640625) (-4.633549118041992e-05, 4.55859375) (-5.367469024658203e-05, 4.560546875) (-6.0947032928466795e-05, 4.5625) (-6.812871551513672e-05, 4.564453125) (-7.519688415527344e-05, 4.56640625) (-8.212966156005859e-05, 4.568359375) (-8.890628814697265e-05, 4.5703125) (-9.55072784423828e-05, 4.572265625) (-0.00010191452026367187, 4.57421875) (-0.00010811133575439452, 4.576171875) (-0.00011408261108398437, 4.578125) (-0.00011981480407714843, 4.580078125) (-0.0001252960891723633, 4.58203125) (-0.00013051643371582032, 4.583984375) (-0.00013546746826171874, 4.5859375) (-0.00014014247131347656, 4.587890625) (-0.00014453631591796875, 4.58984375) (-0.00014864561462402343, 4.591796875) (-0.00015246871948242186, 4.59375) (-0.00015600592041015623, 4.595703125) (-0.00015925900268554685, 4.59765625) (-0.0001622313537597656, 4.599609375) (-0.00016492794799804686, 4.6015625) (-0.00016735540771484374, 4.603515625) (-0.00016952195739746093, 4.60546875) (-0.00017143714904785157, 4.607421875) (-0.00017311148071289063, 4.609375) (-0.00017455638122558593, 4.611328125) (-0.00017578411865234374, 4.61328125) (-0.0001768074035644531, 4.615234375) (-0.0001776393585205078, 4.6171875) (-0.000178293212890625, 4.619140625) (-0.00017878187561035157, 4.62109375) (-0.00017911827087402344, 4.623046875) (-0.00017931547546386718, 4.625) (-0.00017938601684570313, 4.626953125) (-0.00017934228515625, 4.62890625) (-0.00017919657897949218, 4.630859375) (-0.00017896043395996094, 4.6328125) (-0.00017864466857910155, 4.634765625) (-0.00017825950622558592, 4.63671875) (-0.00017781430053710937, 4.638671875) (-0.00017731768798828125, 4.640625) (-0.00017677783203125, 4.642578125) (-0.00017620195007324218, 4.64453125) (-0.00017559608459472655, 4.646484375) (-0.00017496572875976563, 4.6484375) (-0.00017431613159179686, 4.650390625) (-0.0001736522216796875, 4.65234375) (-0.00017297833251953123, 4.654296875) (-0.0001722980499267578, 4.65625) (-0.0001716138458251953, 4.658203125) (-0.00017092785644531248, 4.66015625) (-0.0001702418975830078, 4.662109375) (-0.00016955722045898438, 4.6640625) (-0.00016887420654296875, 4.666015625) (-0.00016819198608398437, 4.66796875) (-0.00016750917053222656, 4.669921875) (-0.00016682440185546876, 4.671875) (-0.00016613592529296875, 4.673828125) (-0.0001654418487548828, 4.67578125) (-0.00016474154663085938, 4.677734375) (-0.00016403533935546873, 4.6796875) (-0.00016332489013671874, 4.681640625) (-0.00016261447143554688, 4.68359375) (-0.00016190878295898437, 4.685546875) (-0.0001612124786376953, 4.6875) (-0.0001605323028564453, 4.689453125) (-0.000159875732421875, 4.69140625) (-0.00015924868774414063, 4.693359375) (-0.00015865667724609375, 4.6953125) (-0.00015810421752929688, 4.697265625) (-0.0001575936279296875, 4.69921875) (-0.0001571296844482422, 4.701171875) (-0.00015672009277343748, 4.703125) (-0.00015637200927734373, 4.705078125) (-0.0001560935821533203, 4.70703125) (-0.00015589364624023436, 4.708984375) (-0.00015577897644042968, 4.7109375) (-0.00015575537109374998, 4.712890625) (-0.00015582913208007812, 4.71484375) (-0.00015600442504882812, 4.716796875) (-0.00015628350830078125, 4.71875) (-0.00015666638183593748, 4.720703125) (-0.00015714730834960936, 4.72265625) (-0.00015772433471679688, 4.724609375) (-0.0001584039306640625, 4.7265625) (-0.00015920208740234374, 4.728515625) (-0.00016014562988281249, 4.73046875) (-0.00016125350952148437, 4.732421875) (-0.00016253048706054687, 4.734375) (-0.0001639765930175781, 4.736328125) (-0.0001655896759033203, 4.73828125) (-0.00016736102294921874, 4.740234375) (-0.00016927401733398437, 4.7421875) (-0.00017129177856445313, 4.744140625) (-0.0001733488311767578, 4.74609375) (-0.0001753788299560547, 4.748046875) (-0.00017732208251953124, 4.75) (-0.00017912471008300782, 4.751953125) (-0.0001807447052001953, 4.75390625) (-0.00018212503051757812, 4.755859375) (-0.000183182861328125, 4.7578125) (-0.0001838113555908203, 4.759765625) (-0.00018389105224609375, 4.76171875) (-0.0001833303985595703, 4.763671875) (-0.00018207666015625, 4.765625) (-0.00018009805297851563, 4.767578125) (-0.0001773682403564453, 4.76953125) (-0.0001738604736328125, 4.771484375) (-0.0001695635986328125, 4.7734375) (-0.00016455131530761718, 4.775390625) (-0.00015899459838867187, 4.77734375) (-0.0001530876007080078, 4.779296875) (-0.00014703509521484374, 4.78125) (-0.00014101295471191406, 4.783203125) (-0.0001351492004394531, 4.78515625) (-0.0001296648712158203, 4.787109375) (-0.00012490062713623045, 4.7890625) (-0.00012114619445800781, 4.791015625) (-0.00011858432006835936, 4.79296875) (-0.00011718263244628906, 4.794921875) (-0.00011658665466308593, 4.796875) (-0.00011639453124999999, 4.798828125) (-0.00011635839080810547, 4.80078125) (-0.00011617256164550781, 4.802734375) (-0.00011541802978515625, 4.8046875) (-0.00011380104064941405, 4.806640625) (-0.00011110842132568359, 4.80859375) (-0.00010756983184814452, 4.810546875) (-0.00010427889251708984, 4.8125) (-0.00010241754150390624, 4.814453125) (-0.0001027616958618164, 4.81640625) (-0.00010588528442382812, 4.818359375) (-0.00011187303161621093, 4.8203125) (-0.00012015916442871093, 4.822265625) (-0.0001299897003173828, 4.82421875) (-0.00013978167724609374, 4.826171875) (-0.0001463883361816406, 4.828125) (-0.0001465270233154297, 4.830078125) (-0.00013723001098632813, 4.83203125) (-0.00011556272888183593, 4.833984375) (-7.977530670166015e-05, 4.8359375) (-2.90035343170166e-05, 4.837890625) (3.755064010620117e-05, 4.83984375) (0.00011928050231933593, 4.841796875) (0.00021384953308105467, 4.84375) (0.00031889837646484375, 4.845703125) (0.0004315177612304687, 4.84765625) (0.0005480083618164063, 4.849609375) (0.0006640877685546875, 4.8515625) (0.0007737999267578125, 4.853515625) (0.000871285888671875, 4.85546875) (0.00095348779296875, 4.857421875) (0.0010232203369140624, 4.859375) (0.001086119873046875, 4.861328125) (0.0011445416259765625, 4.86328125) (0.0011943408203125, 4.865234375) (0.0012198704833984374, 4.8671875) (0.0012024649658203125, 4.869140625) (0.0011310034179687499, 4.87109375) (0.0010064002075195312, 4.873046875) (0.0008472128906249999, 4.875) (0.0006796356201171875, 4.876953125) (0.0005281077880859374, 4.87890625) (0.0004086644897460937, 4.880859375) (0.00032187652587890625, 4.8828125) (0.00025955072021484376, 4.884765625) (0.00020902877807617187, 4.88671875) (0.00015972161865234375, 4.888671875) (0.00010960049438476562, 4.890625) (6.15230941772461e-05, 4.892578125) (2.1461776733398435e-05, 4.89453125) (-6.6779856681823725e-06, 4.896484375) (-2.433802032470703e-05, 4.8984375) (-3.555800628662109e-05, 4.900390625) (-4.553606414794922e-05, 4.90234375) (-5.7263671874999996e-05, 4.904296875) (-7.088414764404297e-05, 4.90625) (-8.566342163085937e-05, 4.908203125) (-0.00010052841186523437, 4.91015625) (-0.00011474165344238281, 4.912109375) (-0.0001277671661376953, 4.9140625) (-0.00013861749267578125, 4.916015625) (-0.0001460718994140625, 4.91796875) (-0.00014955162048339843, 4.919921875) (-0.000149195556640625, 4.921875) (-0.0001455666809082031, 4.923828125) (-0.0001394884490966797, 4.92578125) (-0.000131731201171875, 4.927734375) (-0.00012298114013671875, 4.9296875) (-0.0001140730743408203, 4.931640625) (-0.00010595156860351562, 4.93359375) (-9.922433471679687e-05, 4.935546875) (-9.414614868164062e-05, 4.9375) (-9.07538833618164e-05, 4.939453125) (-8.886534118652343e-05, 4.94140625) (-8.829669189453125e-05, 4.943359375) (-8.892375183105468e-05, 4.9453125) (-9.054861450195312e-05, 4.947265625) (-9.291139221191406e-05, 4.94921875) (-9.580421447753906e-05, 4.951171875) (-9.90302734375e-05, 4.953125) (-0.0001023990249633789, 4.955078125) (-0.00010577618408203125, 4.95703125) (-0.00010899083709716796, 4.958984375) (-0.00011184263610839844, 4.9609375) (-0.00011414256286621094, 4.962890625) (-0.00011569653320312499, 4.96484375) (-0.00011636673736572266, 4.966796875) (-0.00011609209442138671, 4.96875) (-0.00011486182403564453, 4.970703125) (-0.00011270445251464843, 4.97265625) (-0.00010967360687255859, 4.974609375) (-0.00010583262634277344, 4.9765625) (-0.00010126458740234375, 4.978515625) (-9.607670593261718e-05, 4.98046875) (-9.036968231201172e-05, 4.982421875) (-8.42397232055664e-05, 4.984375) (-7.77770538330078e-05, 4.986328125) (-7.105714416503906e-05, 4.98828125) (-6.416634368896484e-05, 4.990234375) (-5.7197425842285155e-05, 4.9921875) (-5.024362182617187e-05, 4.994140625) (-4.339929580688476e-05, 4.99609375) (-3.673186492919922e-05, 4.998046875) (-3.027997589111328e-05, 5.0) (-2.4065752029418943e-05, 5.001953125) (-1.80966739654541e-05, 5.00390625) (-1.2371634483337401e-05, 5.005859375) (-6.8852643966674806e-06, 5.0078125) (-1.6204270124435424e-06, 5.009765625) (3.450472354888916e-06, 5.01171875) (8.348783493041992e-06, 5.013671875) (1.3089852333068847e-05, 5.015625) (1.7683538436889648e-05, 5.017578125) (2.2133848190307615e-05, 5.01953125) (2.644991683959961e-05, 5.021484375) (3.064447784423828e-05, 5.0234375) (3.472961044311523e-05, 5.025390625) (3.871727752685547e-05, 5.02734375) (4.261462783813476e-05, 5.029296875) (4.642432785034179e-05, 5.03125) (5.01489143371582e-05, 5.033203125) (5.378944396972656e-05, 5.03515625) (5.7343482971191404e-05, 5.037109375) (6.080679321289062e-05, 5.0390625) (6.417170715332031e-05, 5.041015625) (6.7427490234375e-05, 5.04296875) (7.05661163330078e-05, 5.044921875) (7.358120727539062e-05, 5.046875) (7.646595764160156e-05, 5.048828125) (7.921405792236328e-05, 5.05078125) (8.181807708740233e-05, 5.052734375) (8.426913452148437e-05, 5.0546875) (8.655897521972655e-05, 5.056640625) (8.867938232421875e-05, 5.05859375) (9.062068176269531e-05, 5.060546875) (9.237211608886719e-05, 5.0625) (9.392205810546875e-05, 5.064453125) (9.525808715820311e-05, 5.06640625) (9.636857604980468e-05, 5.068359375) (9.724244689941406e-05, 5.0703125) (9.786868286132812e-05, 5.072265625) (9.823684692382812e-05, 5.07421875) (9.833688354492187e-05, 5.076171875) (9.815959167480468e-05, 5.078125) (9.769747161865234e-05, 5.080078125) (9.694430541992187e-05, 5.08203125) (9.589507293701171e-05, 5.083984375) (9.45461654663086e-05, 5.0859375) (9.289527130126953e-05, 5.087890625) (9.094160461425781e-05, 5.08984375) (8.868621826171874e-05, 5.091796875) (8.613180541992187e-05, 5.09375) (8.32823486328125e-05, 5.095703125) (8.014342498779296e-05, 5.09765625) (7.672222900390625e-05, 5.099609375) (7.302758789062499e-05, 5.1015625) (6.907014465332032e-05, 5.103515625) (6.486216735839844e-05, 5.10546875) (6.0417335510253905e-05, 5.107421875) (5.5750656127929684e-05, 5.109375) (5.087848663330078e-05, 5.111328125) (4.581840515136719e-05, 5.11328125) (4.0588951110839845e-05, 5.115234375) (3.5209499359130856e-05, 5.1171875) (2.969999313354492e-05, 5.119140625) (2.4080860137939453e-05, 5.12109375) (1.8373125076293945e-05, 5.123046875) (1.2598326683044433e-05, 5.125) (6.778303623199463e-06, 5.126953125) (9.349501132965088e-07, 5.12890625) (-4.909899234771728e-06, 5.130859375) (-1.0734645843505858e-05, 5.1328125) (-1.6518112182617186e-05, 5.134765625) (-2.2239660263061522e-05, 5.13671875) (-2.787949562072754e-05, 5.138671875) (-3.34189453125e-05, 5.140625) (-3.884063720703125e-05, 5.142578125) (-4.41285285949707e-05, 5.14453125) (-4.9267986297607416e-05, 5.146484375) (-5.424576568603515e-05, 5.1484375) (-5.904994201660156e-05, 5.150390625) (-6.36701202392578e-05, 5.15234375) (-6.809732055664062e-05, 5.154296875) (-7.2323974609375e-05, 5.15625) (-7.634391784667968e-05, 5.158203125) (-8.015230560302734e-05, 5.16015625) (-8.374571228027344e-05, 5.162109375) (-8.712236022949219e-05, 5.1640625) (-9.028204345703124e-05, 5.166015625) (-9.322593688964844e-05, 5.16796875) (-9.595670318603516e-05, 5.169921875) (-9.847836303710937e-05, 5.171875) (-0.00010079611206054687, 5.173828125) (-0.00010291656494140624, 5.17578125) (-0.00010484710693359374, 5.177734375) (-0.00010659576416015625, 5.1796875) (-0.00010817140197753906, 5.181640625) (-0.00010958351135253906, 5.18359375) (-0.00011084188079833984, 5.185546875) (-0.00011195680999755859, 5.1875) (-0.0001129387969970703, 5.189453125) (-0.00011379806518554687, 5.19140625) (-0.00011454531097412108, 5.193359375) (-0.00011519136047363281, 5.1953125) (-0.00011574659729003906, 5.197265625) (-0.00011622132110595702, 5.19921875) (-0.00011662542724609374, 5.201171875) (-0.00011696800231933594, 5.203125) (-0.00011725743103027344, 5.205078125) (-0.0001175015640258789, 5.20703125) (-0.00011770710754394531, 5.208984375) (-0.00011788014221191406, 5.2109375) (-0.00011802637481689452, 5.212890625) (-0.00011815052795410155, 5.21484375) (-0.00011825678253173828, 5.216796875) (-0.00011834894561767578, 5.21875) (-0.00011843023681640625, 5.220703125) (-0.00011850372314453125, 5.22265625) (-0.00011857203674316406, 5.224609375) (-0.00011863685607910156, 5.2265625) (-0.0001186991958618164, 5.228515625) (-0.00011875997924804687, 5.23046875) (-0.00011881925964355468, 5.232421875) (-0.00011887662506103515, 5.234375) (-0.00011893151855468749, 5.236328125) (-0.00011898218536376952, 5.23828125) (-0.000119027099609375, 5.240234375) (-0.00011906533813476562, 5.2421875) (-0.00011909503936767577, 5.244140625) (-0.00011911433410644531, 5.24609375) (-0.00011912283325195312, 5.248046875) (-0.00011912086486816406, 5.25) (-0.00011911036682128906, 5.251953125) (-0.00011909623718261719, 5.25390625) (-0.00011908282470703125, 5.255859375) (-0.00011907427215576172, 5.2578125) (-0.00011907730102539062, 5.259765625) (-0.00011909913635253906, 5.26171875) (-0.00011914656829833984, 5.263671875) (-0.0001192270278930664, 5.265625) (-0.00011934535217285155, 5.267578125) (-0.00011950408935546874, 5.26953125) (-0.00011970874023437499, 5.271484375) (-0.00011996691131591796, 5.2734375) (-0.00012028742218017577, 5.275390625) (-0.00012068111419677734, 5.27734375) (-0.00012115703582763671, 5.279296875) (-0.0001217220458984375, 5.28125) (-0.00012238352966308593, 5.283203125) (-0.00012314832305908202, 5.28515625) (-0.00012402200317382812, 5.287109375) (-0.0001250104751586914, 5.2890625) (-0.00012611310577392577, 5.291015625) (-0.00012732272338867188, 5.29296875) (-0.00012863760375976562, 5.294921875) (-0.00013006088256835936, 5.296875) (-0.00013160806274414063, 5.298828125) (-0.00013330718994140623, 5.30078125) (-0.00013517636108398436, 5.302734375) (-0.00013721917724609375, 5.3046875) (-0.0001394320831298828, 5.306640625) (-0.00014180772399902342, 5.30859375) (-0.00014433224487304686, 5.310546875) (-0.00014698687744140625, 5.3125) (-0.000149730712890625, 5.314453125) (-0.00015249423217773438, 5.31640625) (-0.00015520883178710937, 5.318359375) (-0.00015780841064453124, 5.3203125) (-0.00016024102783203123, 5.322265625) (-0.00016246954345703124, 5.32421875) (-0.00016444261169433594, 5.326171875) (-0.00016609042358398438, 5.328125) (-0.00016731314086914061, 5.330078125) (-0.00016799656677246092, 5.33203125) (-0.00016804595947265624, 5.333984375) (-0.00016740692138671876, 5.3359375) (-0.000166059326171875, 5.337890625) (-0.00016398466491699217, 5.33984375) (-0.00016118551635742188, 5.341796875) (-0.00015768205261230468, 5.34375) (-0.00015354373168945313, 5.345703125) (-0.00014893597412109373, 5.34765625) (-0.00014406044006347654, 5.349609375) (-0.00013911813354492187, 5.3515625) (-0.00013428717041015625, 5.353515625) (-0.0001297283172607422, 5.35546875) (-0.00012558458709716796, 5.357421875) (-0.00012207299041748046, 5.359375) (-0.00011953936767578124, 5.361328125) (-0.00011820599365234374, 5.36328125) (-0.00011813706970214843, 5.365234375) (-0.00011919984436035156, 5.3671875) (-0.00012094667053222656, 5.369140625) (-0.0001229693908691406, 5.37109375) (-0.0001250427474975586, 5.373046875) (-0.00012678257751464844, 5.375) (-0.00012761717224121094, 5.376953125) (-0.00012718614196777342, 5.37890625) (-0.0001252549362182617, 5.380859375) (-0.00012204313659667968, 5.3828125) (-0.00011867315673828124, 5.384765625) (-0.00011605860900878906, 5.38671875) (-0.00011458729553222656, 5.388671875) (-0.0001147155303955078, 5.390625) (-0.00011644084930419921, 5.392578125) (-0.00011918795776367187, 5.39453125) (-0.00012241122436523438, 5.396484375) (-0.0001247153091430664, 5.3984375) (-0.00012333311462402343, 5.400390625) (-0.00011574689483642578, 5.40234375) (-9.97021255493164e-05, 5.404296875) (-7.270668792724608e-05, 5.40625) (-3.3480712890624995e-05, 5.408203125) (1.8491743087768553e-05, 5.41015625) (8.418690490722655e-05, 5.412109375) (0.00016354574584960936, 5.4140625) (0.0002553671875, 5.416015625) (0.00035880859374999997, 5.41796875) (0.00047027276611328125, 5.419921875) (0.0005831804199218749, 5.421875) (0.0006927020874023437, 5.423828125) (0.000793765869140625, 5.42578125) (0.000886306640625, 5.427734375) (0.0009782478027343749, 5.4296875) (0.0010713735351562499, 5.431640625) (0.0011629033203125, 5.43359375) (0.001240415283203125, 5.435546875) (0.001275790283203125, 5.4375) (0.0012511380615234375, 5.439453125) (0.0011582054443359374, 5.44140625) (0.0010002594604492188, 5.443359375) (0.0008061856079101562, 5.4453125) (0.0006029108276367187, 5.447265625) (0.00041576385498046873, 5.44921875) (0.0002710428466796875, 5.451171875) (0.0001714903564453125, 5.453125) (0.00011245441436767578, 5.455078125) (8.272379302978515e-05, 5.45703125) (5.915266418457031e-05, 5.458984375) (3.234925079345703e-05, 5.4609375) (1.4940366744995117e-06, 5.462890625) (-3.1163600921630855e-05, 5.46484375) (-5.5816043853759764e-05, 5.466796875) (-7.045796966552734e-05, 5.46875) (-7.986027526855468e-05, 5.470703125) (-8.775508117675781e-05, 5.47265625) (-9.863918304443359e-05, 5.474609375) (-0.00011392660522460937, 5.4765625) (-0.00013160809326171873, 5.478515625) (-0.0001500054016113281, 5.48046875) (-0.00016777532958984375, 5.482421875) (-0.00018318698120117186, 5.484375) (-0.0001947494659423828, 5.486328125) (-0.00020180506896972655, 5.48828125) (-0.00020418080139160156, 5.490234375) (-0.00020233555603027344, 5.4921875) (-0.00019734855651855468, 5.494140625) (-0.00019017498779296874, 5.49609375) (-0.00018160784912109375, 5.498046875) (-0.0001727134094238281, 5.5) (-0.00016457867431640623, 5.501953125) (-0.00015786242675781248, 5.50390625) (-0.0001529538879394531, 5.505859375) (-0.00014992111206054687, 5.5078125) (-0.00014853482055664062, 5.509765625) (-0.00014864421081542967, 5.51171875) (-0.00015012060546874999, 5.513671875) (-0.00015274577331542968, 5.515625) (-0.00015628387451171874, 5.517578125) (-0.0001605009765625, 5.51953125) (-0.00016518495178222654, 5.521484375) (-0.00017017221069335936, 5.5234375) (-0.00017530734252929687, 5.525390625) (-0.00018038186645507812, 5.52734375) (-0.00018516952514648438, 5.529296875) (-0.00018943180847167968, 5.53125) (-0.0001929344024658203, 5.533203125) (-0.00019553424072265625, 5.53515625) (-0.00019714364624023436, 5.537109375) (-0.00019771606445312498, 5.5390625) (-0.00019726928710937498, 5.541015625) (-0.00019583575439453124, 5.54296875) (-0.00019346604919433594, 5.544921875) (-0.000190244384765625, 5.546875) (-0.0001862673797607422, 5.548828125) (-0.0001816304473876953, 5.55078125) (-0.0001764304656982422, 5.552734375) (-0.0001707558898925781, 5.5546875) (-0.00016468844604492186, 5.556640625) (-0.00015832720947265625, 5.55859375) (-0.00015177395629882811, 5.560546875) (-0.00014513316345214844, 5.5625) (-0.000138511962890625, 5.564453125) (-0.00013198080444335936, 5.56640625) (-0.0001255838623046875, 5.568359375) (-0.00011935199737548827, 5.5703125) (-0.00011329364013671874, 5.572265625) (-0.00010740953063964843, 5.57421875) (-0.00010169713592529297, 5.576171875) (-9.613851165771483e-05, 5.578125) (-9.070718383789063e-05, 5.580078125) (-8.538650512695312e-05, 5.58203125) (-8.016345214843749e-05, 5.583984375) (-7.502935028076172e-05, 5.5859375) (-6.998394775390625e-05, 5.587890625) (-6.502046966552735e-05, 5.58984375) (-6.012843322753906e-05, 5.591796875) (-5.5299449920654295e-05, 5.59375) (-5.052423477172851e-05, 5.595703125) (-4.579822921752929e-05, 5.59765625) (-4.112269592285156e-05, 5.599609375) (-3.649950408935547e-05, 5.6015625) (-3.193153381347656e-05, 5.603515625) (-2.742520523071289e-05, 5.60546875) (-2.2988515853881835e-05, 5.607421875) (-1.8632286071777344e-05, 5.609375) (-1.4370330810546875e-05, 5.611328125) (-1.0213115692138671e-05, 5.61328125) (-6.1683688163757324e-06, 5.615234375) (-2.243586301803589e-06, 5.6171875) (1.5546929836273194e-06, 5.619140625) (5.219232082366943e-06, 5.62109375) (8.741449356079102e-06, 5.623046875) (1.2113460540771484e-05, 5.625) (1.5327825546264647e-05, 5.626953125) (1.8375249862670897e-05, 5.62890625) (2.124538993835449e-05, 5.630859375) (2.392728042602539e-05, 5.6328125) (2.6408884048461913e-05, 5.634765625) (2.867881393432617e-05, 5.63671875) (3.072666358947754e-05, 5.638671875) (3.2542114257812495e-05, 5.640625) (3.411536407470703e-05, 5.642578125) (3.543770599365234e-05, 5.64453125) (3.650098419189453e-05, 5.646484375) (3.7298324584960934e-05, 5.6484375) (3.782479476928711e-05, 5.650390625) (3.807659149169922e-05, 5.65234375) (3.805126190185547e-05, 5.654296875) (3.774810409545898e-05, 5.65625) (3.716790008544922e-05, 5.658203125) (3.631318664550781e-05, 5.66015625) (3.518859100341797e-05, 5.662109375) (3.380035400390625e-05, 5.6640625) (3.215606307983398e-05, 5.666015625) (3.0265047073364255e-05, 5.66796875) (2.81380615234375e-05, 5.669921875) (2.5787160873413084e-05, 5.671875) (2.3225795745849607e-05, 5.673828125) (2.046826171875e-05, 5.67578125) (1.7529621124267577e-05, 5.677734375) (1.442587661743164e-05, 5.6796875) (1.117379856109619e-05, 5.681640625) (7.790738105773926e-06, 5.68359375) (4.2947359085083e-06, 5.685546875) (7.042953968048095e-07, 5.6875) (-2.961677074432373e-06, 5.689453125) (-6.683434963226318e-06, 5.69140625) (-1.0440705299377441e-05, 5.693359375) (-1.4212971687316894e-05, 5.6953125) (-1.7979408264160155e-05, 5.697265625) (-2.1719223022460935e-05, 5.69921875) (-2.541189384460449e-05, 5.701171875) (-2.9037099838256836e-05, 5.703125) (-3.257500457763672e-05, 5.705078125) (-3.600669479370117e-05, 5.70703125) (-3.931404113769531e-05, 5.708984375) (-4.2479919433593745e-05, 5.7109375) (-4.548848724365234e-05, 5.712890625) (-4.832515716552734e-05, 5.71484375) (-5.097673797607422e-05, 5.716796875) (-5.34317741394043e-05, 5.71875) (-5.568048858642578e-05, 5.720703125) (-5.7714935302734374e-05, 5.72265625) (-5.952899932861328e-05, 5.724609375) (-6.1118350982666e-05, 5.7265625) (-6.24803352355957e-05, 5.728515625) (-6.361408996582031e-05, 5.73046875) (-6.452037048339843e-05, 5.732421875) (-6.520131683349609e-05, 5.734375) (-6.566029357910156e-05, 5.736328125) (-6.590171051025391e-05, 5.73828125) (-6.593109893798828e-05, 5.740234375) (-6.575511169433593e-05, 5.7421875) (-6.538141632080078e-05, 5.744140625) (-6.481840515136718e-05, 5.74609375) (-6.407516479492188e-05, 5.748046875) (-6.316156387329101e-05, 5.75) (-6.208829498291015e-05, 5.751953125) (-6.0867008209228516e-05, 5.75390625) (-5.950997161865234e-05, 5.755859375) (-5.8029815673828126e-05, 5.7578125) (-5.643970489501953e-05, 5.759765625) (-5.475330352783203e-05, 5.76171875) (-5.2984527587890625e-05, 5.763671875) (-5.1147594451904297e-05, 5.765625) (-4.925673675537109e-05, 5.767578125) (-4.732574081420898e-05, 5.76953125) (-4.536835861206054e-05, 5.771484375) (-4.3398281097412105e-05, 5.7734375) (-4.142869567871094e-05, 5.775390625) (-3.947244262695312e-05, 5.77734375) (-3.754189300537109e-05, 5.779296875) (-3.564839553833008e-05, 5.78125) (-3.3802204132080074e-05, 5.783203125) (-3.201265716552734e-05, 5.78515625) (-3.0287990570068357e-05, 5.787109375) (-2.8635379791259764e-05, 5.7890625) (-2.7061092376708985e-05, 5.791015625) (-2.5570011138916013e-05, 5.79296875) (-2.4165611267089842e-05, 5.794921875) (-2.285055923461914e-05, 5.796875) (-2.1627065658569335e-05, 5.798828125) (-2.0496797561645506e-05, 5.80078125) (-1.9460599899291992e-05, 5.802734375) (-1.8518444061279296e-05, 5.8046875) (-1.766940689086914e-05, 5.806640625) (-1.6912416458129883e-05, 5.80859375) (-1.624639892578125e-05, 5.810546875) (-1.566966915130615e-05, 5.8125) (-1.5179852485656737e-05, 5.814453125) (-1.477364158630371e-05, 5.81640625) (-1.4447325706481933e-05, 5.818359375) (-1.4197374343872069e-05, 5.8203125) (-1.4019643783569335e-05, 5.822265625) (-1.3909141540527344e-05, 5.82421875) (-1.386151123046875e-05, 5.826171875) (-1.3873052597045897e-05, 5.828125) (-1.3941308975219725e-05, 5.830078125) (-1.4066265106201171e-05, 5.83203125) (-1.4248085975646973e-05, 5.833984375) (-1.448652172088623e-05, 5.8359375) (-1.4782829284667968e-05, 5.837890625) (-1.5138847351074218e-05, 5.83984375) (-1.5555397033691405e-05, 5.841796875) (-1.6033401489257812e-05, 5.84375) (-1.6571983337402344e-05, 5.845703125) (-1.7166923522949217e-05, 5.84765625) (-1.7815475463867186e-05, 5.849609375) (-1.8516700744628905e-05, 5.8515625) (-1.9271217346191404e-05, 5.853515625) (-2.0083644866943357e-05, 5.85546875) (-2.0959268569946288e-05, 5.857421875) (-2.1901615142822265e-05, 5.859375) (-2.2913612365722656e-05, 5.861328125) (-2.3998470306396485e-05, 5.86328125) (-2.5159263610839843e-05, 5.865234375) (-2.639889144897461e-05, 5.8671875) (-2.7715900421142576e-05, 5.869140625) (-2.91009407043457e-05, 5.87109375) (-3.0546222686767574e-05, 5.873046875) (-3.204998397827148e-05, 5.875) (-3.36237907409668e-05, 5.876953125) (-3.529411315917968e-05, 5.87890625) (-3.708113098144531e-05, 5.880859375) (-3.899492263793945e-05, 5.8828125) (-4.103714370727539e-05, 5.884765625) (-4.320014572143554e-05, 5.88671875) (-4.547290802001953e-05, 5.888671875) (-4.783761215209961e-05, 5.890625) (-5.025520706176758e-05, 5.892578125) (-5.266160202026367e-05, 5.89453125) (-5.498877716064453e-05, 5.896484375) (-5.7172191619873046e-05, 5.8984375) (-5.916208648681641e-05, 5.900390625) (-6.092788696289062e-05, 5.90234375) (-6.242910766601562e-05, 5.904296875) (-6.360822296142578e-05, 5.90625) (-6.437781524658203e-05, 5.908203125) (-6.463006591796875e-05, 5.91015625) (-6.428219604492187e-05, 5.912109375) (-6.32752456665039e-05, 5.9140625) (-6.158387756347655e-05, 5.916015625) (-5.921229553222656e-05, 5.91796875) (-5.616721343994141e-05, 5.919921875) (-5.24898567199707e-05, 5.921875) (-4.828209686279297e-05, 5.923828125) (-4.368760681152344e-05, 5.92578125) (-3.888153839111328e-05, 5.927734375) (-3.4057586669921874e-05, 5.9296875) (-2.9376598358154296e-05, 5.931640625) (-2.499619674682617e-05, 5.93359375) (-2.110976219177246e-05, 5.935546875) (-1.7893518447875976e-05, 5.9375) (-1.561623191833496e-05, 5.939453125) (-1.4645200729370117e-05, 5.94140625) (-1.5163782119750976e-05, 5.943359375) (-1.714681625366211e-05, 5.9453125) (-2.031995964050293e-05, 5.947265625) (-2.409861373901367e-05, 5.94921875) (-2.7926036834716795e-05, 5.951171875) (-3.1409135818481445e-05, 5.953125) (-3.398140716552734e-05, 5.955078125) (-3.48373908996582e-05, 5.95703125) (-3.348448944091797e-05, 5.958984375) (-2.9964197158813475e-05, 5.9609375) (-2.503513145446777e-05, 5.962890625) (-2.0264667510986326e-05, 5.96484375) (-1.7076433181762694e-05, 5.966796875) (-1.6092708587646483e-05, 5.96875) (-1.7627628326416015e-05, 5.970703125) (-2.2096652984619138e-05, 5.97265625) (-2.9273557662963865e-05, 5.974609375) (-3.783554840087891e-05, 5.9765625) (-4.5328678131103514e-05, 5.978515625) (-4.771839904785156e-05, 5.98046875) (-4.063127136230469e-05, 5.982421875) (-2.1179931640625e-05, 5.984375) (1.285038948059082e-05, 5.986328125) (6.39501724243164e-05, 5.98828125) (0.0001333599395751953, 5.990234375) (0.00022078414916992188, 5.9921875) (0.0003249707336425781, 5.994140625) (0.00044175363159179684, 5.99609375) (0.000565216552734375, 5.998046875) (0.0006912624511718749, 6.0) (0.0008140328369140625, 6.001953125) (0.0009258517456054687, 6.00390625) (0.0010222723388671874, 6.005859375) (0.0010983370361328125, 6.0078125) (0.0011521430664062499, 6.009765625) (0.0011870440673828124, 6.01171875) (0.00120172119140625, 6.013671875) (0.001192046875, 6.015625) (0.0011516932373046875, 6.017578125) (0.0010732701416015624, 6.01953125) (0.000957852783203125, 6.021484375) (0.000816766357421875, 6.0234375) (0.0006691001586914062, 6.025390625) (0.0005340831298828125, 6.02734375) (0.00042543792724609374, 6.029296875) (0.0003456148986816406, 6.03125) (0.00028568927001953125, 6.033203125) (0.00023645205688476562, 6.03515625) (0.00018988494873046875, 6.037109375) (0.000144398681640625, 6.0390625) (0.00010638522338867186, 6.041015625) (7.990164184570313e-05, 6.04296875) (6.637663269042969e-05, 6.044921875) (6.342460632324218e-05, 6.046875) (6.436280059814453e-05, 6.048828125) (6.460052490234374e-05, 6.05078125) (6.236205673217774e-05, 6.052734375) (5.740283203125e-05, 6.0546875) (5.0804672241210936e-05, 6.056640625) (4.3121505737304685e-05, 6.05859375) (3.448241424560547e-05, 6.060546875) (2.5631834030151365e-05, 6.0625) (1.771552848815918e-05, 6.064453125) (1.2077258110046385e-05, 6.06640625) (9.392878532409668e-06, 6.068359375) (9.408023834228514e-06, 6.0703125) (1.1552306175231932e-05, 6.072265625) (1.5092069625854492e-05, 6.07421875) (1.9335556030273437e-05, 6.076171875) (2.3739475250244138e-05, 6.078125) (2.7630170822143555e-05, 6.080078125) (3.0244533538818358e-05, 6.08203125) (3.1190135955810545e-05, 6.083984375) (3.039792442321777e-05, 6.0859375) (2.7960433959960936e-05, 6.087890625) (2.4182748794555664e-05, 6.08984375) (1.934555435180664e-05, 6.091796875) (1.363932418823242e-05, 6.09375) (7.337196826934814e-06, 6.095703125) (7.26945161819458e-07, 6.09765625) (-5.968321800231933e-06, 6.099609375) (-1.2502608299255371e-05, 6.1015625) (-1.865674591064453e-05, 6.103515625) (-2.4255123138427732e-05, 6.10546875) (-2.9092208862304685e-05, 6.107421875) (-3.301406097412109e-05, 6.109375) (-3.59354248046875e-05, 6.111328125) (-3.778973770141601e-05, 6.11328125) (-3.855897521972656e-05, 6.115234375) (-3.8266944885253904e-05, 6.1171875) (-3.6950950622558593e-05, 6.119140625) (-3.468729400634766e-05, 6.12109375) (-3.1579986572265624e-05, 6.123046875) (-2.7718189239501952e-05, 6.125) (-2.319239616394043e-05, 6.126953125) (-1.808988571166992e-05, 6.12890625) (-1.2487055778503418e-05, 6.130859375) (-6.481540203094482e-06, 6.1328125) (-1.7748945951461792e-07, 6.134765625) (6.3243312835693356e-06, 6.13671875) (1.2919949531555176e-05, 6.138671875) (1.9532257080078124e-05, 6.140625) (2.6109815597534178e-05, 6.142578125) (3.2608741760253904e-05, 6.14453125) (3.900125122070312e-05, 6.146484375) (4.527459716796875e-05, 6.1484375) (5.14217300415039e-05, 6.150390625) (5.745037841796875e-05, 6.15234375) (6.337892150878906e-05, 6.154296875) (6.9215087890625e-05, 6.15625) (7.496111297607422e-05, 6.158203125) (8.061730957031249e-05, 6.16015625) (8.617892456054687e-05, 6.162109375) (9.16464385986328e-05, 6.1640625) (9.702403259277344e-05, 6.166015625) (0.00010231416320800781, 6.16796875) (0.00010751949310302733, 6.169921875) (0.00011264015197753905, 6.171875) (0.00011767253112792968, 6.173828125) (0.00012261273193359376, 6.17578125) (0.0001274554214477539, 6.177734375) (0.00013219174194335938, 6.1796875) (0.0001368114318847656, 6.181640625) (0.00014130143737792967, 6.18359375) (0.00014564579772949218, 6.185546875) (0.0001498314514160156, 6.1875) (0.0001538474426269531, 6.189453125) (0.0001576828918457031, 6.19140625) (0.00016132812499999999, 6.193359375) (0.000164772705078125, 6.1953125) (0.00016800491333007812, 6.197265625) (0.00017101364135742187, 6.19921875) (0.00017378823852539063, 6.201171875) (0.00017631637573242186, 6.203125) (0.00017858465576171874, 6.205078125) (0.00018057907104492186, 6.20703125) (0.00018228488159179686, 6.208984375) (0.00018368783569335935, 6.2109375) (0.00018477430725097655, 6.212890625) (0.00018553100585937498, 6.21484375) (0.0001859451904296875, 6.216796875) (0.0001860049591064453, 6.21875) (0.00018569918823242186, 6.220703125) (0.00018501777648925781, 6.22265625) (0.00018395162963867186, 6.224609375) (0.00018249273681640623, 6.2265625) (0.0001806343078613281, 6.228515625) (0.00017837091064453123, 6.23046875) (0.00017569842529296874, 6.232421875) (0.00017261434936523436, 6.234375) (0.000169117919921875, 6.236328125) (0.000165210205078125, 6.23828125) (0.00016089421081542967, 6.240234375) (0.00015617491149902342, 6.2421875) (0.00015105918884277344, 6.244140625) (0.000145555908203125, 6.24609375) (0.00013967587280273438, 6.248046875) (0.00013343156433105467, 6.25) (0.00012683719635009764, 6.251953125) (0.00011990868377685547, 6.25390625) (0.0001126635284423828, 6.255859375) (0.00010512068176269531, 6.2578125) (9.730052185058593e-05, 6.259765625) (8.922473144531249e-05, 6.26171875) (8.091618347167968e-05, 6.263671875) (7.2399169921875e-05, 6.265625) (6.369909286499023e-05, 6.267578125) (5.4842052459716795e-05, 6.26953125) (4.5854789733886716e-05, 6.271484375) (3.676437377929687e-05, 6.2734375) (2.7597909927368164e-05, 6.275390625) (1.8382520675659178e-05, 6.27734375) (9.14501667022705e-06, 6.279296875) (-8.846211433410645e-08, 6.28125) (-9.292354583740233e-06, 6.283203125) (-1.8441802978515624e-05, 6.28515625) (-2.751283264160156e-05, 6.287109375) (-3.6482284545898434e-05, 6.2890625) (-4.532814788818359e-05, 6.291015625) (-5.4029762268066404e-05, 6.29296875) (-6.256781768798828e-05, 6.294921875) (-7.092454528808594e-05, 6.296875) (-7.908384704589843e-05, 6.298828125) (-8.703120422363281e-05, 6.30078125) (-9.475390624999999e-05, 6.302734375) (-0.00010224122619628906, 6.3046875) (-0.000109484130859375, 6.306640625) (-0.00011647531127929687, 6.30859375) (-0.00012320906829833985, 6.310546875) (-0.00012968121337890624, 6.3125) (-0.0001358891906738281, 6.314453125) (-0.00014183241271972655, 6.31640625) (-0.00014751168823242186, 6.318359375) (-0.00015292926025390623, 6.3203125) (-0.00015808883666992187, 6.322265625) (-0.00016299551391601563, 6.32421875) (-0.00016765573120117186, 6.326171875) (-0.00017207745361328124, 6.328125) (-0.00017626950073242186, 6.330078125) (-0.0001802412414550781, 6.33203125) (-0.00018400279235839843, 6.333984375) (-0.000187564697265625, 6.3359375) (-0.00019093768310546875, 6.337890625) (-0.00019413282775878905, 6.33984375) (-0.0001971609191894531, 6.341796875) 