(-0.00012258901214599608, 0.0) (-0.00014407012939453124, 0.001953125) (-0.000161485595703125, 0.00390625) (-0.00017347198486328125, 0.005859375) (-0.00017952018737792968, 0.0078125) (-0.00018010606384277343, 0.009765625) (-0.0001772308349609375, 0.01171875) (-0.00017285281372070313, 0.013671875) (-0.00016812890624999998, 0.015625) (-0.00016458056640625, 0.017578125) (-0.0001645390625, 0.01953125) (-0.00016821688842773438, 0.021484375) (-0.00017271771240234373, 0.0234375) (-0.00017502752685546875, 0.025390625) (-0.00017096615600585937, 0.02734375) (-0.00015949809265136718, 0.029296875) (-0.00014679714965820312, 0.03125) (-0.0001360987091064453, 0.033203125) (-0.0001238400421142578, 0.03515625) (-0.00010159251403808593, 0.037109375) (-5.315862274169922e-05, 0.0390625) (3.5598758697509766e-05, 0.041015625) (0.00016501437377929688, 0.04296875) (0.00032867205810546875, 0.044921875) (0.0005143933105468749, 0.046875) (0.0007031839599609375, 0.048828125) (0.0008799660034179687, 0.05078125) (0.001026846923828125, 0.052734375) (0.00112137548828125, 0.0546875) (0.00114713818359375, 0.056640625) (0.0010934827880859374, 0.05859375) (0.000961976806640625, 0.060546875) (0.0007675580444335937, 0.0625) (0.0005316564331054687, 0.064453125) (0.00027866006469726563, 0.06640625) (3.313078308105469e-05, 0.068359375) (-0.00018232669067382812, 0.0703125) (-0.0003504989624023437, 0.072265625) (-0.0004590172424316406, 0.07421875) (-0.0005069244995117187, 0.076171875) (-0.000501798828125, 0.078125) (-0.0004522167053222656, 0.080078125) (-0.00037424963378906247, 0.08203125) (-0.000281271728515625, 0.083984375) (-0.00018640576171874998, 0.0859375) (-0.0001085600128173828, 0.087890625) (-5.5289794921875e-05, 0.08984375) (-2.8486883163452148e-05, 0.091796875) (-2.3536134719848632e-05, 0.09375) (-2.489873695373535e-05, 0.095703125) (-2.4788551330566406e-05, 0.09765625) (-2.077853775024414e-05, 0.099609375) (-1.4103287696838378e-05, 0.1015625) (-1.3135269165039062e-05, 0.103515625) (-2.0329717636108397e-05, 0.10546875) (-3.3673866271972654e-05, 0.107421875) (-5.0335220336914063e-05, 0.109375) (-6.419351196289062e-05, 0.111328125) (-7.237335205078125e-05, 0.11328125) (-7.546249389648437e-05, 0.115234375) (-7.397478485107422e-05, 0.1171875) (-6.939344787597656e-05, 0.119140625) (-6.321514129638671e-05, 0.12109375) (-5.588665771484375e-05, 0.123046875) (-4.831775665283203e-05, 0.125) (-4.199900817871094e-05, 0.126953125) (-3.760568237304687e-05, 0.12890625) (-3.536244201660156e-05, 0.130859375) (-3.528291320800781e-05, 0.1328125) (-3.683209991455078e-05, 0.134765625) (-3.948941040039062e-05, 0.13671875) (-4.294062423706055e-05, 0.138671875) (-4.6697921752929684e-05, 0.140625) (-5.019406127929687e-05, 0.142578125) (-5.3140068054199215e-05, 0.14453125) (-5.5380863189697266e-05, 0.146484375) (-5.687358856201172e-05, 0.1484375) (-5.775897979736328e-05, 0.150390625) (-5.81160659790039e-05, 0.15234375) (-5.798334503173828e-05, 0.154296875) (-5.745232391357422e-05, 0.15625) (-5.660099411010742e-05, 0.158203125) (-5.5486610412597655e-05, 0.16015625) (-5.416011428833008e-05, 0.162109375) (-5.265945434570312e-05, 0.1640625) (-5.1017250061035155e-05, 0.166015625) (-4.929747772216797e-05, 0.16796875) (-4.758454895019531e-05, 0.169921875) (-4.5943275451660156e-05, 0.171875) (-4.442066955566406e-05, 0.173828125) (-4.3043884277343746e-05, 0.17578125) (-4.182511520385742e-05, 0.177734375) (-4.077120208740234e-05, 0.1796875) (-3.9883354187011714e-05, 0.181640625) (-3.9155265808105466e-05, 0.18359375) (-3.856554794311523e-05, 0.185546875) (-3.809563064575195e-05, 0.1875) (-3.7737064361572266e-05, 0.189453125) (-3.748115158081055e-05, 0.19140625) (-3.7320594787597655e-05, 0.193359375) (-3.724172210693359e-05, 0.1953125) (-3.7221298217773435e-05, 0.197265625) (-3.723158645629882e-05, 0.19921875) (-3.724515914916992e-05, 0.201171875) (-3.723812866210937e-05, 0.203125) (-3.718853759765625e-05, 0.205078125) (-3.707779312133789e-05, 0.20703125) (-3.688956832885742e-05, 0.208984375) (-3.660996246337891e-05, 0.2109375) (-3.6228721618652344e-05, 0.212890625) (-3.5738903045654296e-05, 0.21484375) (-3.513599014282227e-05, 0.216796875) (-3.441268157958984e-05, 0.21875) (-3.355928039550781e-05, 0.220703125) (-3.256590270996094e-05, 0.22265625) (-3.142275238037109e-05, 0.224609375) (-3.0122531890869138e-05, 0.2265625) (-2.866038703918457e-05, 0.228515625) (-2.703224754333496e-05, 0.23046875) (-2.5235061645507812e-05, 0.232421875) (-2.3268754959106445e-05, 0.234375) (-2.1136035919189453e-05, 0.236328125) (-1.8841760635375975e-05, 0.23828125) (-1.639272689819336e-05, 0.240234375) (-1.379629898071289e-05, 0.2421875) (-1.1060529708862305e-05, 0.244140625) (-8.194826126098633e-06, 0.24609375) (-5.2101244926452636e-06, 0.248046875) (-2.1189568042755127e-06, 0.25) (1.0648918151855468e-06, 0.251953125) (4.326691627502441e-06, 0.25390625) (7.650592803955078e-06, 0.255859375) (1.1019557952880859e-05, 0.2578125) (1.4415443420410155e-05, 0.259765625) (1.781875228881836e-05, 0.26171875) (2.1209367752075194e-05, 0.263671875) (2.456720733642578e-05, 0.265625) (2.7871896743774412e-05, 0.267578125) (3.1102888107299807e-05, 0.26953125) (3.4239501953124995e-05, 0.271484375) (3.7260883331298826e-05, 0.2734375) (4.0146438598632814e-05, 0.275390625) (4.287625503540039e-05, 0.27734375) (4.543104553222656e-05, 0.279296875) (4.779197692871094e-05, 0.28125) (4.9940807342529296e-05, 0.283203125) (5.186014175415039e-05, 0.28515625) (5.3533920288085935e-05, 0.287109375) (5.494756698608398e-05, 0.2890625) (5.608815765380859e-05, 0.291015625) (5.694446182250976e-05, 0.29296875) (5.750672149658203e-05, 0.294921875) (5.776720809936523e-05, 0.296875) (5.772061538696289e-05, 0.298828125) (5.7363746643066404e-05, 0.30078125) (5.669548416137695e-05, 0.302734375) (5.5716644287109375e-05, 0.3046875) (5.442962265014648e-05, 0.306640625) (5.283852767944336e-05, 0.30859375) (5.094956588745117e-05, 0.310546875) (4.877083587646484e-05, 0.3125) (4.631208801269531e-05, 0.314453125) (4.3584747314453126e-05, 0.31640625) (4.060162353515625e-05, 0.318359375) (3.737710571289062e-05, 0.3203125) (3.392751312255859e-05, 0.322265625) (3.0270887374877927e-05, 0.32421875) (2.64266300201416e-05, 0.326171875) (2.2415157318115232e-05, 0.328125) (1.825750160217285e-05, 0.330078125) (1.3975496292114258e-05, 0.33203125) (9.592230796813965e-06, 0.333984375) (5.131557941436767e-06, 0.3359375) (6.178730726242065e-07, 0.337890625) (-3.923924922943115e-06, 0.33984375) (-8.46908950805664e-06, 0.341796875) (-1.2992714881896973e-05, 0.34375) (-1.7469148635864255e-05, 0.345703125) (-2.1872800827026366e-05, 0.34765625) (-2.6178871154785156e-05, 0.349609375) (-3.036316680908203e-05, 0.3515625) (-3.440279006958008e-05, 0.353515625) (-3.827638244628906e-05, 0.35546875) (-4.196302413940429e-05, 0.357421875) (-4.5443210601806636e-05, 0.359375) (-4.8699867248535155e-05, 0.361328125) (-5.1717651367187496e-05, 0.36328125) (-5.448322296142578e-05, 0.365234375) (-5.698513031005859e-05, 0.3671875) (-5.9212890625e-05, 0.369140625) (-6.115742874145507e-05, 0.37109375) (-6.281214141845703e-05, 0.373046875) (-6.417247772216797e-05, 0.375) (-6.523593139648437e-05, 0.376953125) (-6.600189208984375e-05, 0.37890625) (-6.647160339355468e-05, 0.380859375) (-6.664910888671875e-05, 0.3828125) (-6.654216766357421e-05, 0.384765625) (-6.616212463378906e-05, 0.38671875) (-6.55227813720703e-05, 0.388671875) (-6.463951110839843e-05, 0.390625) (-6.352883911132812e-05, 0.392578125) (-6.220941162109375e-05, 0.39453125) (-6.070159912109375e-05, 0.396484375) (-5.902609634399414e-05, 0.3984375) (-5.720305633544922e-05, 0.400390625) (-5.525125885009765e-05, 0.40234375) (-5.319003677368164e-05, 0.404296875) (-5.1041080474853514e-05, 0.40625) (-4.882846069335937e-05, 0.408203125) (-4.657724380493164e-05, 0.41015625) (-4.431060791015625e-05, 0.412109375) (-4.2050331115722655e-05, 0.4140625) (-3.981811904907227e-05, 0.416015625) (-3.763513946533203e-05, 0.41796875) (-3.5522663116455074e-05, 0.419921875) (-3.3500514984130855e-05, 0.421875) (-3.158098220825195e-05, 0.423828125) (-2.9770158767700194e-05, 0.42578125) (-2.8079442977905273e-05, 0.427734375) (-2.652444839477539e-05, 0.4296875) (-2.5127593994140623e-05, 0.431640625) (-2.3922605514526366e-05, 0.43359375) (-2.2933605194091796e-05, 0.435546875) (-2.217366600036621e-05, 0.4375) (-2.1659587860107422e-05, 0.439453125) (-2.1405250549316404e-05, 0.44140625) (-2.141794967651367e-05, 0.443359375) (-2.1700275421142577e-05, 0.4453125) (-2.2231037139892576e-05, 0.447265625) (-2.2962970733642576e-05, 0.44921875) (-2.3851804733276367e-05, 0.451171875) (-2.4852262496948242e-05, 0.453125) (-2.5924686431884764e-05, 0.455078125) (-2.7043718338012695e-05, 0.45703125) (-2.8155864715576172e-05, 0.458984375) (-2.919219207763672e-05, 0.4609375) (-3.008407974243164e-05, 0.462890625) (-3.0740840911865234e-05, 0.46484375) (-3.110194969177246e-05, 0.466796875) (-3.114271736145019e-05, 0.46875) (-3.081264114379883e-05, 0.470703125) (-3.0069175720214844e-05, 0.47265625) (-2.890682029724121e-05, 0.474609375) (-2.732105255126953e-05, 0.4765625) (-2.537808609008789e-05, 0.478515625) (-2.3238534927368162e-05, 0.48046875) (-2.1041894912719725e-05, 0.482421875) (-1.8947147369384765e-05, 0.484375) (-1.7146528244018553e-05, 0.486328125) (-1.577494716644287e-05, 0.48828125) (-1.5047165870666503e-05, 0.490234375) (-1.5266355514526366e-05, 0.4921875) (-1.6623908996582032e-05, 0.494140625) (-1.924317932128906e-05, 0.49609375) (-2.3092220306396483e-05, 0.498046875) (-2.7861244201660154e-05, 0.5) (-3.323902130126953e-05, 0.501953125) (-3.897963333129882e-05, 0.50390625) (-4.4634975433349605e-05, 0.505859375) (-4.9638282775878906e-05, 0.5078125) (-5.353541564941406e-05, 0.509765625) (-5.593178558349609e-05, 0.51171875) (-5.690473937988281e-05, 0.513671875) (-5.721242523193359e-05, 0.515625) (-5.7697540283203125e-05, 0.517578125) (-5.91871337890625e-05, 0.51953125) (-6.264174652099609e-05, 0.521484375) (-6.8979736328125e-05, 0.5234375) (-7.886620330810546e-05, 0.525390625) (-9.25874252319336e-05, 0.52734375) (-0.00010954187774658203, 0.529296875) (-0.0001278318176269531, 0.53125) (-0.00014472799682617186, 0.533203125) (-0.00015707557678222656, 0.53515625) (-0.00016139825439453125, 0.537109375) (-0.00015382522583007812, 0.5390625) (-0.00013049517822265625, 0.541015625) (-8.808453369140625e-05, 0.54296875) (-2.389417839050293e-05, 0.544921875) (6.181386566162109e-05, 0.546875) (0.0001651358184814453, 0.548828125) (0.0002812104187011719, 0.55078125) (0.0004038806762695312, 0.552734375) (0.0005290736083984374, 0.5546875) (0.0006571651000976562, 0.556640625) (0.000786932861328125, 0.55859375) (0.000913543212890625, 0.560546875) (0.001025266357421875, 0.5625) (0.0011027435302734374, 0.564453125) (0.0011257922363281248, 0.56640625) (0.001079662109375, 0.568359375) (0.0009613148193359374, 0.5703125) (0.0007770401611328125, 0.572265625) (0.0005443798217773438, 0.57421875) (0.00029088107299804684, 0.576171875) (4.32505874633789e-05, 0.578125) (-0.00016768838500976562, 0.580078125) (-0.00031917529296875, 0.58203125) (-0.00040958410644531247, 0.583984375) (-0.0004436254272460937, 0.5859375) (-0.00043780087280273435, 0.587890625) (-0.00041232379150390623, 0.58984375) (-0.00037033480834960936, 0.591796875) (-0.00031681658935546876, 0.59375) (-0.0002579744873046875, 0.595703125) (-0.0001946535949707031, 0.59765625) (-0.000139208251953125, 0.599609375) (-9.831782531738281e-05, 0.6015625) (-6.742745208740233e-05, 0.603515625) (-4.6059013366699214e-05, 0.60546875) (-2.8951364517211914e-05, 0.607421875) (-1.338608455657959e-05, 0.609375) (-5.200795173645019e-06, 0.611328125) (-6.4142189025878905e-06, 0.61328125) (-1.7237913131713866e-05, 0.615234375) (-3.625286483764648e-05, 0.6171875) (-5.798285675048828e-05, 0.619140625) (-7.799920654296875e-05, 0.62109375) (-9.384319305419922e-05, 0.623046875) (-0.0001043272705078125, 0.625) (-0.00010971939849853515, 0.626953125) (-0.00011061454772949218, 0.62890625) (-0.00010764324951171874, 0.630859375) (-0.00010169134521484374, 0.6328125) (-9.382843017578125e-05, 0.634765625) (-8.556718444824218e-05, 0.63671875) (-7.842121124267578e-05, 0.638671875) (-7.318712615966796e-05, 0.640625) (-7.015554809570312e-05, 0.642578125) (-6.919725799560547e-05, 0.64453125) (-6.989129638671874e-05, 0.646484375) (-7.182643127441406e-05, 0.6484375) (-7.456594848632812e-05, 0.650390625) (-7.753799438476562e-05, 0.65234375) (-8.014836120605468e-05, 0.654296875) (-8.205795288085937e-05, 0.65625) (-8.314530944824218e-05, 0.658203125) (-8.343709564208984e-05, 0.66015625) (-8.307221984863281e-05, 0.662109375) (-8.2148193359375e-05, 0.6640625) (-8.07244873046875e-05, 0.666015625) (-7.888125610351562e-05, 0.66796875) (-7.6716552734375e-05, 0.669921875) (-7.429519653320312e-05, 0.671875) (-7.165394592285156e-05, 0.673828125) (-6.882664489746093e-05, 0.67578125) (-6.583074188232422e-05, 0.677734375) (-6.271590423583984e-05, 0.6796875) (-5.9561542510986324e-05, 0.681640625) (-5.642359161376953e-05, 0.68359375) (-5.334228515625e-05, 0.685546875) (-5.034395599365234e-05, 0.6875) (-4.743462371826172e-05, 0.689453125) (-4.461439895629883e-05, 0.69140625) (-4.188349151611328e-05, 0.693359375) (-3.922832489013672e-05, 0.6953125) (-3.66259765625e-05, 0.697265625) (-3.40654182434082e-05, 0.69921875) (-3.153890800476074e-05, 0.701171875) (-2.903887939453125e-05, 0.703125) (-2.656155776977539e-05, 0.705078125) (-2.409401512145996e-05, 0.70703125) (-2.161674690246582e-05, 0.708984375) (-1.9110614776611327e-05, 0.7109375) (-1.655521583557129e-05, 0.712890625) (-1.3931159973144531e-05, 0.71484375) (-1.1222230911254883e-05, 0.716796875) (-8.415345191955566e-06, 0.71875) (-5.500519752502441e-06, 0.720703125) (-2.473011016845703e-06, 0.72265625) (6.680558323860168e-07, 0.724609375) (3.921283721923828e-06, 0.7265625) (7.282824039459228e-06, 0.728515625) (1.0750581741333007e-05, 0.73046875) (1.4323820114135741e-05, 0.732421875) (1.8000411987304688e-05, 0.734375) (2.17769775390625e-05, 0.736328125) (2.5648250579833985e-05, 0.73828125) (2.9606746673583983e-05, 0.740234375) (3.364381408691406e-05, 0.7421875) (3.774979019165039e-05, 0.744140625) (4.191197967529297e-05, 0.74609375) (4.611502456665039e-05, 0.748046875) (5.034254455566406e-05, 0.75) (5.45770149230957e-05, 0.751953125) (5.880043029785156e-05, 0.75390625) (6.299469757080078e-05, 0.755859375) (6.714059448242188e-05, 0.7578125) (7.121775817871094e-05, 0.759765625) (7.520559692382812e-05, 0.76171875) (7.908313751220703e-05, 0.763671875) (8.28289794921875e-05, 0.765625) (8.64218521118164e-05, 0.767578125) (8.984029388427734e-05, 0.76953125) (9.306263732910156e-05, 0.771484375) (9.606779479980468e-05, 0.7734375) (9.883523559570311e-05, 0.775390625) (0.00010134488677978515, 0.77734375) (0.00010357767486572265, 0.779296875) (0.000105515380859375, 0.78125) (0.0001071407470703125, 0.783203125) (0.00010843800354003905, 0.78515625) (0.00010939285278320312, 0.787109375) (0.00010999247741699218, 0.7890625) (0.00011022611236572265, 0.791015625) (0.00011008479309082031, 0.79296875) (0.00010956147003173828, 0.794921875) (0.00010865151977539062, 0.796875) (0.00010735234832763671, 0.798828125) (0.00010566333770751952, 0.80078125) (0.00010358636474609374, 0.802734375) (0.00010112544250488281, 0.8046875) (9.82865753173828e-05, 0.806640625) (9.507827758789062e-05, 0.80859375) (9.151107788085937e-05, 0.810546875) (8.759722900390625e-05, 0.8125) (8.33511962890625e-05, 0.814453125) (7.878943634033202e-05, 0.81640625) (7.3929931640625e-05, 0.818359375) (6.879237365722655e-05, 0.8203125) (6.339788818359375e-05, 0.822265625) (5.7768646240234374e-05, 0.82421875) (5.1928344726562496e-05, 0.826171875) (4.590202713012695e-05, 0.828125) (3.971536636352539e-05, 0.830078125) (3.3394630432128904e-05, 0.83203125) (2.6966342926025388e-05, 0.833984375) (2.0457061767578124e-05, 0.8359375) (1.3893980026245116e-05, 0.837890625) (7.304583072662353e-06, 0.83984375) (7.161324024200439e-07, 0.841796875) (-5.844194412231445e-06, 0.84375) (-1.2349875450134277e-05, 0.845703125) (-1.8775146484375e-05, 0.84765625) (-2.5094226837158202e-05, 0.849609375) (-3.128190231323242e-05, 0.8515625) (-3.7314567565917965e-05, 0.853515625) (-4.3169868469238276e-05, 0.85546875) (-4.882719421386718e-05, 0.857421875) (-5.426813888549804e-05, 0.859375) (-5.947499084472656e-05, 0.861328125) (-6.443125915527343e-05, 0.86328125) (-6.912312316894531e-05, 0.865234375) (-7.353884887695312e-05, 0.8671875) (-7.766854858398437e-05, 0.869140625) (-8.150469970703125e-05, 0.87109375) (-8.504092407226562e-05, 0.873046875) (-8.827212524414062e-05, 0.875) (-9.119625091552734e-05, 0.876953125) (-9.38143081665039e-05, 0.87890625) (-9.612913513183594e-05, 0.880859375) (-9.814556884765625e-05, 0.8828125) (-9.987049865722656e-05, 0.884765625) (-0.00010131248474121094, 0.88671875) (-0.00010248379516601562, 0.888671875) (-0.00010340059661865234, 0.890625) (-0.00010408046722412109, 0.892578125) (-0.00010454183959960937, 0.89453125) (-0.00010480438232421875, 0.896484375) (-0.00010488893127441406, 0.8984375) (-0.00010481791687011718, 0.900390625) (-0.00010461529541015624, 0.90234375) (-0.00010430355834960937, 0.904296875) (-0.00010390319061279296, 0.90625) (-0.00010343498229980469, 0.908203125) (-0.00010291974639892577, 0.91015625) (-0.0001023810043334961, 0.912109375) (-0.00010184478759765625, 0.9140625) (-0.00010133525085449219, 0.916015625) (-0.00010087611389160155, 0.91796875) (-0.00010049108886718749, 0.919921875) (-0.00010020176696777343, 0.921875) (-0.00010003060913085938, 0.923828125) (-0.00010000125885009765, 0.92578125) (-0.00010012759399414062, 0.927734375) (-0.00010041474914550781, 0.9296875) (-0.00010087179565429687, 0.931640625) (-0.00010150569915771483, 0.93359375) (-0.00010233109283447265, 0.935546875) (-0.00010337644958496093, 0.9375) (-0.00010465715789794922, 0.939453125) (-0.00010617779541015625, 0.94140625) (-0.0001079440689086914, 0.943359375) (-0.00010995390319824219, 0.9453125) (-0.00011219530487060546, 0.947265625) (-0.00011464945983886719, 0.94921875) (-0.00011727214050292968, 0.951171875) (-0.00011999295806884766, 0.953125) (-0.00012275006103515623, 0.955078125) (-0.00012548239135742187, 0.95703125) (-0.000128143310546875, 0.958984375) (-0.00013071247863769532, 0.9609375) (-0.00013314624023437498, 0.962890625) (-0.00013539607238769531, 0.96484375) (-0.00013741075134277343, 0.966796875) (-0.000139113525390625, 0.96875) (-0.0001404599609375, 0.970703125) (-0.000141433837890625, 0.97265625) (-0.0001419999542236328, 0.974609375) (-0.00014212985229492187, 0.9765625) (-0.000141848876953125, 0.978515625) (-0.00014121713256835938, 0.98046875) (-0.0001403610382080078, 0.982421875) (-0.0001394923858642578, 0.984375) (-0.00013876678466796875, 0.986328125) (-0.00013829684448242186, 0.98828125) (-0.00013820654296875, 0.990234375) (-0.00013858644104003905, 0.9921875) (-0.00013957131958007812, 0.994140625) (-0.00014131988525390625, 0.99609375) (-0.00014394509887695313, 0.998046875) (-0.00014750836181640623, 1.0) (-0.00015205352783203123, 1.001953125) (-0.00015769003295898438, 1.00390625) (-0.00016445989990234374, 1.005859375) (-0.00017226298522949219, 1.0078125) (-0.00018073803710937498, 1.009765625) (-0.00018914828491210938, 1.01171875) (-0.0001966705322265625, 1.013671875) (-0.00020262005615234374, 1.015625) (-0.00020634495544433594, 1.017578125) (-0.00020700991821289062, 1.01953125) (-0.0002040863800048828, 1.021484375) (-0.0001975447998046875, 1.0234375) (-0.00018785296630859373, 1.025390625) (-0.000176619140625, 1.02734375) (-0.00016555030822753904, 1.029296875) (-0.0001555537872314453, 1.03125) (-0.0001478341522216797, 1.033203125) (-0.00014396212768554687, 1.03515625) (-0.00014466580200195311, 1.037109375) (-0.00014971685791015623, 1.0390625) (-0.0001565025177001953, 1.041015625) (-0.000159109619140625, 1.04296875) (-0.00015199259948730468, 1.044921875) (-0.00013216433715820312, 1.046875) (-0.00010055229187011718, 1.048828125) (-5.968468856811523e-05, 1.05078125) (-1.056328773498535e-05, 1.052734375) (4.797786331176758e-05, 1.0546875) (0.00012406639099121094, 1.056640625) (0.0002250331115722656, 1.05859375) (0.00035390936279296875, 1.060546875) (0.0005127086181640624, 1.0625) (0.0006914620971679688, 1.064453125) (0.0008721240844726562, 1.06640625) (0.0010324262695312499, 1.068359375) (0.00114309521484375, 1.0703125) (0.001178109619140625, 1.072265625) (0.0011226890869140624, 1.07421875) (0.0009764221801757812, 1.076171875) (0.0007515166015624999, 1.078125) (0.00047521350097656247, 1.080078125) (0.00018310333251953125, 1.08203125) (-9.342759704589844e-05, 1.083984375) (-0.0003218198547363281, 1.0859375) (-0.0004796835021972656, 1.087890625) (-0.0005652486572265625, 1.08984375) (-0.00058233642578125, 1.091796875) (-0.0005454381103515625, 1.09375) (-0.0004787854309082031, 1.095703125) (-0.00039632711791992185, 1.09765625) (-0.00031363226318359373, 1.099609375) (-0.00024765972900390624, 1.1015625) (-0.0002003845977783203, 1.103515625) (-0.00017335794067382813, 1.10546875) (-0.00016223466491699219, 1.107421875) (-0.00015220068359375, 1.109375) (-0.00013912025451660154, 1.111328125) (-0.0001234128875732422, 1.11328125) (-0.00010746107482910155, 1.115234375) (-0.000100539306640625, 1.1171875) (-0.00010529281616210937, 1.119140625) (-0.00011832870483398437, 1.12109375) (-0.00013615629577636717, 1.123046875) (-0.00015291912841796875, 1.125) (-0.00016469268798828126, 1.126953125) (-0.00017121299743652342, 1.12890625) (-0.00017270477294921874, 1.130859375) (-0.00016977682495117186, 1.1328125) (-0.00016355352783203124, 1.134765625) (-0.00015503443908691407, 1.13671875) (-0.0001451663818359375, 1.138671875) (-0.0001353644104003906, 1.140625) (-0.00012706149291992188, 1.142578125) (-0.00012087756347656249, 1.14453125) (-0.00011705186462402343, 1.146484375) (-0.00011557237243652343, 1.1484375) (-0.00011598470306396484, 1.150390625) (-0.00011783406829833984, 1.15234375) (-0.00012069070434570313, 1.154296875) (-0.00012388209533691405, 1.15625) (-0.0001267721939086914, 1.158203125) (-0.00012903601074218748, 1.16015625) (-0.00013049792480468748, 1.162109375) (-0.00013113778686523438, 1.1640625) (-0.00013106556701660157, 1.166015625) (-0.00013031613159179687, 1.16796875) (-0.00012892102050781248, 1.169921875) (-0.00012697592163085937, 1.171875) (-0.00012456752014160154, 1.173828125) (-0.00012176362609863281, 1.17578125) (-0.00011860882568359375, 1.177734375) (-0.00011511314392089843, 1.1796875) (-0.00011129548645019531, 1.181640625) (-0.00010721375274658203, 1.18359375) (-0.00010295312499999999, 1.185546875) (-9.861109924316406e-05, 1.1875) (-9.425988006591796e-05, 1.189453125) (-8.99359359741211e-05, 1.19140625) (-8.566284942626952e-05, 1.193359375) (-8.1450439453125e-05, 1.1953125) (-7.730070495605468e-05, 1.197265625) (-7.32152099609375e-05, 1.19921875) (-6.917565155029297e-05, 1.201171875) (-6.51513671875e-05, 1.203125) (-6.112371063232422e-05, 1.205078125) (-5.7077594757080075e-05, 1.20703125) (-5.300096130371094e-05, 1.208984375) (-4.888731002807617e-05, 1.2109375) (-4.472012710571289e-05, 1.212890625) (-4.04752197265625e-05, 1.21484375) (-3.613052749633789e-05, 1.216796875) (-3.166270065307617e-05, 1.21875) (-2.7051719665527342e-05, 1.220703125) (-2.2286224365234375e-05, 1.22265625) (-1.7357257843017577e-05, 1.224609375) (-1.2258937835693358e-05, 1.2265625) (-6.992291450500488e-06, 1.228515625) (-1.561160922050476e-06, 1.23046875) (4.026453018188477e-06, 1.232421875) (9.757823944091796e-06, 1.234375) (1.5622617721557615e-05, 1.236328125) (2.161178207397461e-05, 1.23828125) (2.7714422225952148e-05, 1.240234375) (3.3919250488281245e-05, 1.2421875) (4.0212936401367186e-05, 1.244140625) (4.657919692993164e-05, 1.24609375) (5.300131607055664e-05, 1.248046875) (5.946161651611328e-05, 1.25) (6.59389190673828e-05, 1.251953125) (7.241004943847655e-05, 1.25390625) (7.885063171386719e-05, 1.255859375) (8.523471069335938e-05, 1.2578125) (9.15362548828125e-05, 1.259765625) (9.772929382324218e-05, 1.26171875) (0.00010378681945800781, 1.263671875) (0.0001096815948486328, 1.265625) (0.00011538681030273437, 1.267578125) (0.00012087586212158202, 1.26953125) (0.00012612265014648436, 1.271484375) (0.00013110186767578124, 1.2734375) (0.0001357886505126953, 1.275390625) (0.00014015878295898436, 1.27734375) (0.0001441895751953125, 1.279296875) (0.00014785972595214843, 1.28125) (0.00015114955139160157, 1.283203125) (0.00015404135131835936, 1.28515625) (0.00015651939392089843, 1.287109375) (0.00015857000732421875, 1.2890625) (0.00016018218994140625, 1.291015625) (0.00016134757995605467, 1.29296875) (0.00016206027221679688, 1.294921875) (0.00016231707763671873, 1.296875) (0.00016211709594726563, 1.298828125) (0.00016146168518066406, 1.30078125) (0.00016035485839843749, 1.302734375) (0.0001588031311035156, 1.3046875) (0.00015681530761718748, 1.306640625) (0.00015440264892578124, 1.30859375) (0.00015157852172851562, 1.310546875) (0.0001483585205078125, 1.3125) (0.0001447608642578125, 1.314453125) (0.0001408059844970703, 1.31640625) (0.0001365163116455078, 1.318359375) (0.0001319160461425781, 1.3203125) (0.00012703082275390625, 1.322265625) (0.00012188737487792968, 1.32421875) (0.00011651370239257812, 1.326171875) (0.00011093868255615233, 1.328125) (0.00010519169616699218, 1.330078125) (9.930248260498047e-05, 1.33203125) (9.330108642578125e-05, 1.333984375) (8.721747589111328e-05, 1.3359375) (8.10816650390625e-05, 1.337890625) (7.492340087890624e-05, 1.33984375) (6.877174377441406e-05, 1.341796875) (6.265499114990235e-05, 1.34375) (5.6600341796874996e-05, 1.345703125) (5.063370895385742e-05, 1.34765625) (4.4779556274414064e-05, 1.349609375) (3.9060791015625e-05, 1.3515625) (3.3498573303222654e-05, 1.353515625) (2.8112270355224608e-05, 1.35546875) (2.2919429779052735e-05, 1.357421875) (1.7935728073120117e-05, 1.359375) (1.3175017356872558e-05, 1.361328125) (8.649285316467285e-06, 1.36328125) (4.36857795715332e-06, 1.365234375) (3.409898281097412e-07, 1.3671875) (-3.4273583889007567e-06, 1.369140625) (-6.9323348999023435e-06, 1.37109375) (-1.0171730995178222e-05, 1.373046875) (-1.3145231246948242e-05, 1.375) (-1.5854368209838868e-05, 1.376953125) (-1.8302392959594726e-05, 1.37890625) (-2.04941349029541e-05, 1.380859375) (-2.243588638305664e-05, 1.3828125) (-2.4135246276855468e-05, 1.384765625) (-2.5601001739501952e-05, 1.38671875) (-2.6843036651611325e-05, 1.388671875) (-2.787221336364746e-05, 1.390625) (-2.8700281143188475e-05, 1.392578125) (-2.9339780807495115e-05, 1.39453125) (-2.9803897857666016e-05, 1.396484375) (-3.0106332778930662e-05, 1.3984375) (-3.0261112213134764e-05, 1.400390625) (-3.0282405853271484e-05, 1.40234375) (-3.018436622619629e-05, 1.404296875) (-2.998094367980957e-05, 1.40625) (-2.9685741424560545e-05, 1.408203125) (-2.9311878204345702e-05, 1.41015625) (-2.887187576293945e-05, 1.412109375) (-2.837755966186523e-05, 1.4140625) (-2.7840080261230467e-05, 1.416015625) (-2.7269842147827147e-05, 1.41796875) (-2.6676456451416015e-05, 1.419921875) (-2.6068731307983397e-05, 1.421875) (-2.5454538345336914e-05, 1.423828125) (-2.4840749740600586e-05, 1.42578125) (-2.42332763671875e-05, 1.427734375) (-2.3636974334716795e-05, 1.4296875) (-2.3055568695068358e-05, 1.431640625) (-2.24916934967041e-05, 1.43359375) (-2.1946834564208983e-05, 1.435546875) (-2.1421379089355468e-05, 1.4375) (-2.0914817810058592e-05, 1.439453125) (-2.0425827026367188e-05, 1.44140625) (-1.9952274322509764e-05, 1.443359375) (-1.9491333007812498e-05, 1.4453125) (-1.9039512634277342e-05, 1.447265625) (-1.8592718124389646e-05, 1.44921875) (-1.8146448135375974e-05, 1.451171875) (-1.769583702087402e-05, 1.453125) (-1.723554992675781e-05, 1.455078125) (-1.675991630554199e-05, 1.45703125) (-1.626298713684082e-05, 1.458984375) (-1.5738670349121092e-05, 1.4609375) (-1.5181090354919433e-05, 1.462890625) (-1.4584672927856444e-05, 1.46484375) (-1.3944142341613769e-05, 1.466796875) (-1.3254727363586425e-05, 1.46875) (-1.2512117385864258e-05, 1.470703125) (-1.1712537765502929e-05, 1.47265625) (-1.0853043556213379e-05, 1.474609375) (-9.9313907623291e-06, 1.4765625) (-8.945792198181152e-06, 1.478515625) (-7.895069122314453e-06, 1.48046875) (-6.7785730361938475e-06, 1.482421875) (-5.596130847930908e-06, 1.484375) (-4.348575115203857e-06, 1.486328125) (-3.0376319885253903e-06, 1.48828125) (-1.6655919551849364e-06, 1.490234375) (-2.3555630445480345e-07, 1.4921875) (1.2485498189926147e-06, 1.494140625) (2.7820563316345214e-06, 1.49609375) (4.359224319458008e-06, 1.498046875) (5.973386287689209e-06, 1.5) (7.617580413818359e-06, 1.501953125) (9.284511566162108e-06, 1.50390625) (1.0966455459594727e-05, 1.505859375) (1.2655399322509765e-05, 1.5078125) (1.4342820167541503e-05, 1.509765625) (1.60198917388916e-05, 1.51171875) (1.7678085327148436e-05, 1.513671875) (1.930909538269043e-05, 1.515625) (2.0904502868652343e-05, 1.517578125) (2.2455904006958007e-05, 1.51953125) (2.395471954345703e-05, 1.521484375) (2.539250373840332e-05, 1.5234375) (2.6761899948120115e-05, 1.525390625) (2.8056354522705077e-05, 1.52734375) (2.926990509033203e-05, 1.529296875) (3.039756965637207e-05, 1.53125) (3.1434818267822265e-05, 1.533203125) (3.237786102294922e-05, 1.53515625) (3.322456741333008e-05, 1.537109375) (3.397384262084961e-05, 1.5390625) (3.4624897003173825e-05, 1.541015625) (3.5177726745605466e-05, 1.54296875) (3.563264846801758e-05, 1.544921875) (3.5990200042724606e-05, 1.546875) (3.625267028808594e-05, 1.548828125) (3.642332458496093e-05, 1.55078125) (3.6505287170410156e-05, 1.552734375) (3.6502235412597657e-05, 1.5546875) (3.6418197631835934e-05, 1.556640625) (3.6257545471191404e-05, 1.55859375) (3.602603912353516e-05, 1.560546875) (3.573015594482422e-05, 1.5625) (3.5375633239746093e-05, 1.564453125) (3.4967792510986326e-05, 1.56640625) (3.451220703125e-05, 1.568359375) (3.4014682769775386e-05, 1.5703125) (3.348128890991211e-05, 1.572265625) (3.291752624511719e-05, 1.57421875) (3.232651138305664e-05, 1.576171875) (3.1709186553955075e-05, 1.578125) (3.106619262695312e-05, 1.580078125) (3.0398109436035154e-05, 1.58203125) (2.9705150604248044e-05, 1.583984375) (2.8986705780029296e-05, 1.5859375) (2.8240341186523435e-05, 1.587890625) (2.7462902069091796e-05, 1.58984375) (2.6653623580932615e-05, 1.591796875) (2.5814029693603513e-05, 1.59375) (2.4945474624633787e-05, 1.595703125) (2.404833221435547e-05, 1.59765625) (2.3119186401367188e-05, 1.599609375) (2.2151283264160156e-05, 1.6015625) (2.1140037536621094e-05, 1.603515625) (2.0082107543945312e-05, 1.60546875) (1.8973537445068358e-05, 1.607421875) (1.781119346618652e-05, 1.609375) (1.6589488983154298e-05, 1.611328125) (1.5301790237426756e-05, 1.61328125) (1.3950913429260253e-05, 1.615234375) (1.2546514511108397e-05, 1.6171875) (1.1094000816345214e-05, 1.619140625) (9.596448898315429e-06, 1.62109375) (8.044666290283203e-06, 1.623046875) (6.4146232604980465e-06, 1.625) (4.692667007446289e-06, 1.626953125) (2.8733236789703366e-06, 1.62890625) (9.501358270645141e-07, 1.630859375) (-1.0747318267822266e-06, 1.6328125) (-3.19603157043457e-06, 1.634765625) (-5.406425952911377e-06, 1.63671875) (-7.672935009002686e-06, 1.638671875) (-9.940851211547852e-06, 1.640625) (-1.2160364151000976e-05, 1.642578125) (-1.4281038284301757e-05, 1.64453125) (-1.6269195556640623e-05, 1.646484375) (-1.8111894607543945e-05, 1.6484375) (-1.977133560180664e-05, 1.650390625) (-2.1199193954467773e-05, 1.65234375) (-2.233783721923828e-05, 1.654296875) (-2.310355758666992e-05, 1.65625) (-2.3440788269042968e-05, 1.658203125) (-2.331688117980957e-05, 1.66015625) (-2.268526840209961e-05, 1.662109375) (-2.1526845932006833e-05, 1.6640625) (-1.986768341064453e-05, 1.666015625) (-1.775225067138672e-05, 1.66796875) (-1.5278284072875976e-05, 1.669921875) (-1.2589693069458008e-05, 1.671875) (-9.80068588256836e-06, 1.673828125) (-7.04396629333496e-06, 1.67578125) (-4.479801654815673e-06, 1.677734375) (-2.2349889278411863e-06, 1.6796875) (-4.484341442584991e-07, 1.681640625) (7.475149631500244e-07, 1.68359375) (1.195174217224121e-06, 1.685546875) (6.384548544883728e-07, 1.6875) (-1.1250331401824951e-06, 1.689453125) (-4.12046480178833e-06, 1.69140625) (-8.13707160949707e-06, 1.693359375) (-1.2734828948974608e-05, 1.6953125) (-1.738253021240234e-05, 1.697265625) (-2.1566179275512695e-05, 1.69921875) (-2.465250778198242e-05, 1.701171875) (-2.5789644241333007e-05, 1.703125) (-2.4249610900878906e-05, 1.705078125) (-1.974361419677734e-05, 1.70703125) (-1.2849554061889647e-05, 1.708984375) (-4.8018951416015626e-06, 1.7109375) (3.1792209148406982e-06, 1.712890625) (9.62098503112793e-06, 1.71484375) (1.2945259094238281e-05, 1.716796875) (1.1887906074523925e-05, 1.71875) (5.110843658447266e-06, 1.720703125) (-6.510132312774658e-06, 1.72265625) (-1.857413101196289e-05, 1.724609375) (-2.8100126266479493e-05, 1.7265625) (-3.302192687988281e-05, 1.728515625) (-3.279037475585937e-05, 1.73046875) (-3.0333583831787107e-05, 1.732421875) (-2.023762512207031e-05, 1.734375) (9.39737319946289e-06, 1.736328125) (6.977147674560547e-05, 1.73828125) (0.0001709886474609375, 1.740234375) (0.00030703106689453124, 1.7421875) (0.0004602763671875, 1.744140625) (0.0006149467163085937, 1.74609375) (0.0007582243652343749, 1.748046875) (0.0008913327026367187, 1.75) (0.001019781005859375, 1.751953125) (0.00113772705078125, 1.75390625) (0.0012316806640624998, 1.755859375) (0.001277487060546875, 1.7578125) (0.0012524824218749999, 1.759765625) (0.001152923828125, 1.76171875) (0.000986816650390625, 1.763671875) (0.00077089306640625, 1.765625) (0.0005288274536132812, 1.767578125) (0.00027994784545898435, 1.76953125) (4.3496177673339845e-05, 1.771484375) (-0.0001552006072998047, 1.7734375) (-0.0002954550170898437, 1.775390625) (-0.00036614886474609375, 1.77734375) (-0.0003654046936035156, 1.779296875) (-0.00030896459960937496, 1.78125) (-0.00022342236328125, 1.783203125) (-0.00013167398071289063, 1.78515625) (-5.535391235351562e-05, 1.787109375) (-6.1419401168823236e-06, 1.7890625) (1.920193862915039e-05, 1.791015625) (2.7400314331054687e-05, 1.79296875) (3.0481145858764647e-05, 1.794921875) (3.842972564697265e-05, 1.796875) (5.121134185791015e-05, 1.798828125) (6.522599792480468e-05, 1.80078125) (7.345703125e-05, 1.802734375) (7.059801483154297e-05, 1.8046875) (5.7938652038574216e-05, 1.806640625) (3.94205436706543e-05, 1.80859375) (2.0206735610961914e-05, 1.810546875) (4.57023286819458e-06, 1.8125) (-6.320422172546386e-06, 1.814453125) (-1.2837323188781737e-05, 1.81640625) (-1.5601526260375977e-05, 1.818359375) (-1.533327865600586e-05, 1.8203125) (-1.2790436744689941e-05, 1.822265625) (-8.754631042480468e-06, 1.82421875) (-4.363779544830322e-06, 1.826171875) (-1.0885007381439208e-06, 1.828125) (2.928703427314758e-07, 1.830078125) (-4.116963744163513e-07, 1.83203125) (-3.2293457984924316e-06, 1.833984375) (-7.766285896301269e-06, 1.8359375) (-1.3588274002075194e-05, 1.837890625) (-2.0355941772460937e-05, 1.83984375) (-2.7468326568603514e-05, 1.841796875) (-3.426578521728515e-05, 1.84375) (-4.0394012451171875e-05, 1.845703125) (-4.566632461547851e-05, 1.84765625) (-5.003738403320312e-05, 1.849609375) (-5.363600921630859e-05, 1.8515625) (-5.6511505126953125e-05, 1.853515625) (-5.8674285888671875e-05, 1.85546875) (-6.0227149963378905e-05, 1.857421875) (-6.126517868041992e-05, 1.859375) (-6.186550903320313e-05, 1.861328125) (-6.21032485961914e-05, 1.86328125) (-6.200643920898437e-05, 1.865234375) (-6.160224151611327e-05, 1.8671875) (-6.095866775512695e-05, 1.869140625) (-6.016389465332031e-05, 1.87109375) (-5.931968688964844e-05, 1.873046875) (-5.850934982299804e-05, 1.875) (-5.77762451171875e-05, 1.876953125) (-5.714834213256836e-05, 1.87890625) (-5.6643165588378905e-05, 1.880859375) (-5.626561737060547e-05, 1.8828125) (-5.6023468017578125e-05, 1.884765625) (-5.5911144256591793e-05, 1.88671875) (-5.5903686523437494e-05, 1.888671875) (-5.5987693786621094e-05, 1.890625) (-5.6154266357421875e-05, 1.892578125) (-5.6392375946044916e-05, 1.89453125) (-5.6697547912597654e-05, 1.896484375) (-5.705628967285156e-05, 1.8984375) (-5.7443447113037104e-05, 1.900390625) (-5.7834354400634763e-05, 1.90234375) (-5.820398712158203e-05, 1.904296875) (-5.852774810791015e-05, 1.90625) (-5.878817749023437e-05, 1.908203125) (-5.897017288208008e-05, 1.91015625) (-5.9058456420898434e-05, 1.912109375) (-5.904280090332031e-05, 1.9140625) (-5.891530227661133e-05, 1.916015625) (-5.8670017242431636e-05, 1.91796875) (-5.8304130554199216e-05, 1.919921875) (-5.781208801269531e-05, 1.921875) (-5.71856575012207e-05, 1.923828125) (-5.641737365722656e-05, 1.92578125) (-5.550038146972656e-05, 1.927734375) (-5.4429313659667965e-05, 1.9296875) (-5.320108795166016e-05, 1.931640625) (-5.18132095336914e-05, 1.93359375) (-5.026391220092773e-05, 1.935546875) (-4.855455017089843e-05, 1.9375) (-4.668896865844726e-05, 1.939453125) (-4.4672641754150386e-05, 1.94140625) (-4.2512779235839844e-05, 1.943359375) (-4.021742248535156e-05, 1.9453125) (-3.779545593261719e-05, 1.947265625) (-3.525751495361328e-05, 1.94921875) (-3.261602401733398e-05, 1.951171875) (-2.9884471893310547e-05, 1.953125) (-2.707721710205078e-05, 1.955078125) (-2.420966911315918e-05, 1.95703125) (-2.1298171997070312e-05, 1.958984375) (-1.8360172271728516e-05, 1.9609375) (-1.541458034515381e-05, 1.962890625) (-1.2481021881103515e-05, 1.96484375) (-9.579248428344727e-06, 1.966796875) (-6.729606628417968e-06, 1.96875) (-3.952932357788086e-06, 1.970703125) (-1.2703030109405518e-06, 1.97265625) (1.2968685626983642e-06, 1.974609375) (3.7274022102355957e-06, 1.9765625) (6.000986099243164e-06, 1.978515625) (8.097959518432616e-06, 1.98046875) (9.999175071716308e-06, 1.982421875) (1.1686332702636718e-05, 1.984375) (1.3142099380493163e-05, 1.986328125) (1.4350388526916504e-05, 1.98828125) (1.5296730041503907e-05, 1.990234375) (1.5968063354492188e-05, 1.9921875) (1.6352523803710938e-05, 1.994140625) (1.6439655303955078e-05, 1.99609375) (1.622075843811035e-05, 1.998046875) (1.5689201354980468e-05, 2.0) (1.4840483665466309e-05, 2.001953125) (1.3672019004821777e-05, 2.00390625) (1.2182849884033202e-05, 2.005859375) (1.0373672485351561e-05, 2.0078125) (8.247154235839843e-06, 2.009765625) (5.807950496673584e-06, 2.01171875) (3.062523126602173e-06, 2.013671875) (1.8813371658325194e-08, 2.015625) (-3.313979625701904e-06, 2.017578125) (-6.925172805786133e-06, 2.01953125) (-1.0802214622497559e-05, 2.021484375) (-1.4930755615234375e-05, 2.0234375) (-1.9295017242431638e-05, 2.025390625) (-2.3877988815307617e-05, 2.02734375) (-2.866181182861328e-05, 2.029296875) (-3.3627593994140626e-05, 2.03125) (-3.8754875183105466e-05, 2.033203125) (-4.402220916748047e-05, 2.03515625) (-4.940761566162109e-05, 2.037109375) (-5.488848495483398e-05, 2.0390625) (-6.04422607421875e-05, 2.041015625) (-6.604621124267577e-05, 2.04296875) (-7.167682647705077e-05, 2.044921875) (-7.731057739257812e-05, 2.046875) (-8.292474365234375e-05, 2.048828125) (-8.849705505371093e-05, 2.05078125) (-9.400619506835937e-05, 2.052734375) (-9.943200683593749e-05, 2.0546875) (-0.00010475434875488281, 2.056640625) (-0.00010995399475097656, 2.05859375) (-0.00011501383972167969, 2.060546875) (-0.00011991814422607421, 2.0625) (-0.0001246526412963867, 2.064453125) (-0.00012920462036132812, 2.06640625) (-0.00013356182861328124, 2.068359375) (-0.00013771319580078124, 2.0703125) (-0.00014165007019042967, 2.072265625) (-0.00014536572265625, 2.07421875) (-0.0001488546142578125, 2.076171875) (-0.0001521127014160156, 2.078125) (-0.00015513723754882812, 2.080078125) (-0.000157927734375, 2.08203125) (-0.00016048760986328125, 2.083984375) (-0.0001628236846923828, 2.0859375) (-0.00016494448852539062, 2.087890625) (-0.00016685984802246092, 2.08984375) (-0.00016858093261718749, 2.091796875) (-0.00017012078857421873, 2.09375) (-0.0001714949035644531, 2.095703125) (-0.00017271932983398437, 2.09765625) (-0.00017380790710449219, 2.099609375) (-0.000174772705078125, 2.1015625) (-0.00017562582397460935, 2.103515625) (-0.000176380859375, 2.10546875) (-0.00017705526733398437, 2.107421875) (-0.000177667724609375, 2.109375) (-0.0001782340545654297, 2.111328125) (-0.0001787688293457031, 2.11328125) (-0.00017928651428222655, 2.115234375) (-0.00017980064392089843, 2.1171875) (-0.0001803260498046875, 2.119140625) (-0.0001808764190673828, 2.12109375) (-0.000181455078125, 2.123046875) (-0.00018205908203125, 2.125) (-0.0001826892852783203, 2.126953125) (-0.00018334934997558594, 2.12890625) (-0.00018405401611328124, 2.130859375) (-0.0001848299560546875, 2.1328125) (-0.00018569476318359374, 2.134765625) (-0.0001866571350097656, 2.13671875) (-0.0001877259063720703, 2.138671875) (-0.00018890560913085937, 2.140625) (-0.000190196533203125, 2.142578125) (-0.00019159402465820311, 2.14453125) (-0.00019306849670410156, 2.146484375) (-0.00019456602478027342, 2.1484375) (-0.00019603488159179687, 2.150390625) (-0.000197423095703125, 2.15234375) (-0.00019869180297851563, 2.154296875) (-0.00019981832885742186, 2.15625) (-0.00020075599670410155, 2.158203125) (-0.00020144613647460937, 2.16015625) (-0.00020182449340820313, 2.162109375) (-0.00020180572509765623, 2.1640625) (-0.0002013259582519531, 2.166015625) (-0.00020034988403320312, 2.16796875) (-0.00019883232116699217, 2.169921875) (-0.00019673681640624999, 2.171875) (-0.000194072265625, 2.173828125) (-0.0001908603820800781, 2.17578125) (-0.00018716424560546874, 2.177734375) (-0.00018312809753417967, 2.1796875) (-0.00017888645935058592, 2.181640625) (-0.00017458184814453124, 2.18359375) (-0.00017039295959472655, 2.185546875) (-0.00016646994018554686, 2.1875) (-0.00016296578979492187, 2.189453125) (-0.00016008807373046874, 2.19140625) (-0.00015807763671875, 2.193359375) (-0.000157124267578125, 2.1953125) (-0.00015732984924316404, 2.197265625) (-0.00015860545349121092, 2.19921875) (-0.0001606165008544922, 2.201171875) (-0.00016295423889160155, 2.203125) (-0.00016515805053710938, 2.205078125) (-0.0001666338195800781, 2.20703125) (-0.00016668751525878906, 2.208984375) (-0.0001647047424316406, 2.2109375) (-0.00016029037475585937, 2.212890625) (-0.0001535947265625, 2.21484375) (-0.00014557012939453125, 2.216796875) (-0.00013748883056640624, 2.21875) (-0.0001307048645019531, 2.220703125) (-0.00012672037506103516, 2.22265625) (-0.00012685284423828125, 2.224609375) (-0.0001319792938232422, 2.2265625) (-0.00014252806091308594, 2.228515625) (-0.00015765948486328124, 2.23046875) (-0.00017462741088867186, 2.232421875) (-0.00018976119995117187, 2.234375) (-0.0001988590545654297, 2.236328125) (-0.00019690704345703123, 2.23828125) (-0.00017904637145996094, 2.240234375) (-0.00014098501586914063, 2.2421875) (-7.832078552246093e-05, 2.244140625) (9.819107055664062e-06, 2.24609375) (0.000118608154296875, 2.248046875) (0.0002420440979003906, 2.25) (0.00037298016357421876, 2.251953125) (0.0005072013244628906, 2.25390625) (0.0006492161865234375, 2.255859375) (0.0008008051757812499, 2.2578125) (0.0009538842163085937, 2.259765625) (0.001091286865234375, 2.26171875) (0.0011824412841796874, 2.263671875) (0.00119747021484375, 2.265625) (0.00112626806640625, 2.267578125) (0.0009744157104492187, 2.26953125) (0.0007616842651367187, 2.271484375) (0.0005190908203124999, 2.2734375) (0.0002709725341796875, 2.275390625) (3.683559417724609e-05, 2.27734375) (-0.0001610450439453125, 2.279296875) (-0.00030700039672851563, 2.28125) (-0.00039172250366210936, 2.283203125) (-0.00041043634033203125, 2.28515625) (-0.0003738505249023437, 2.287109375) (-0.0003033984375, 2.2890625) (-0.000219044677734375, 2.291015625) (-0.00014278132629394531, 2.29296875) (-8.837350463867188e-05, 2.294921875) (-5.500917816162109e-05, 2.296875) (-3.8083625793457027e-05, 2.298828125) (-2.6802139282226562e-05, 2.30078125) (-1.1932113647460937e-05, 2.302734375) (6.187623977661133e-06, 2.3046875) (2.3907047271728514e-05, 2.306640625) (3.444426345825195e-05, 2.30859375) (3.320973205566406e-05, 2.310546875) (2.1926794052124024e-05, 2.3125) (5.009416103363037e-06, 2.314453125) (-1.1907228469848632e-05, 2.31640625) (-2.4563163757324217e-05, 2.318359375) (-3.163208198547363e-05, 2.3203125) (-3.329708480834961e-05, 2.322265625) (-3.030929946899414e-05, 2.32421875) (-2.3514831542968748e-05, 2.326171875) (-1.3871671676635741e-05, 2.328125) (-2.5505838394165036e-06, 2.330078125) (9.067852020263671e-06, 2.33203125) (1.943792724609375e-05, 2.333984375) (2.7646488189697265e-05, 2.3359375) (3.345883941650391e-05, 2.337890625) (3.6841476440429686e-05, 2.33984375) (3.808023071289062e-05, 2.341796875) (3.761725234985351e-05, 2.34375) (3.5825302124023434e-05, 2.345703125) (3.328376770019531e-05, 2.34765625) (3.074496078491211e-05, 2.349609375) (2.8637508392333982e-05, 2.3515625) (2.716019630432129e-05, 2.353515625) (2.6414695739746093e-05, 2.35546875) (2.6301851272583008e-05, 2.357421875) (2.6763521194458005e-05, 2.359375) (2.7831348419189454e-05, 2.361328125) (2.9442211151123045e-05, 2.36328125) (3.148539924621582e-05, 2.365234375) (3.3896636962890624e-05, 2.3671875) (3.660582733154297e-05, 2.369140625) (3.957363891601562e-05, 2.37109375) (4.281336212158203e-05, 2.373046875) (4.628080368041992e-05, 2.375) (4.9895092010498046e-05, 2.376953125) (5.356803894042968e-05, 2.37890625) (5.718582153320312e-05, 2.380859375) (6.067243957519531e-05, 2.3828125) (6.399246978759765e-05, 2.384765625) (6.711376190185547e-05, 2.38671875) (7.001788330078125e-05, 2.388671875) (7.269546508789063e-05, 2.390625) (7.513552856445312e-05, 2.392578125) (7.734770202636719e-05, 2.39453125) (7.936140441894531e-05, 2.396484375) (8.119656372070312e-05, 2.3984375) (8.286942291259765e-05, 2.400390625) (8.439476013183594e-05, 2.40234375) (8.578092193603515e-05, 2.404296875) (8.704740905761719e-05, 2.40625) (8.822382354736328e-05, 2.408203125) (8.933989715576172e-05, 2.41015625) (9.04257354736328e-05, 2.412109375) (9.150553894042968e-05, 2.4140625) (9.259660339355468e-05, 2.416015625) (9.371537780761719e-05, 2.41796875) (9.487734985351562e-05, 2.419921875) (9.609436035156249e-05, 2.421875) (9.737528228759766e-05, 2.423828125) (9.872438049316406e-05, 2.42578125) (0.00010014231872558593, 2.427734375) (0.00010163194274902344, 2.4296875) (0.00010319790649414062, 2.431640625) (0.00010484386444091796, 2.43359375) (0.00010657237243652343, 2.435546875) (0.00010838345336914062, 2.4375) (0.00011027476501464843, 2.439453125) (0.00011224333190917968, 2.44140625) (0.00011428549194335937, 2.443359375) (0.00011639492797851561, 2.4453125) (0.00011856268310546875, 2.447265625) (0.0001207779541015625, 2.44921875) (0.0001230283432006836, 2.451171875) (0.00012530049133300782, 2.453125) (0.0001275803985595703, 2.455078125) (0.00012985255432128905, 2.45703125) (0.00013209976196289062, 2.458984375) (0.0001343040771484375, 2.4609375) (0.0001364470520019531, 2.462890625) (0.00013850965881347655, 2.46484375) (0.00014047244262695312, 2.466796875) (0.00014231552124023436, 2.46875) (0.00014401797485351562, 2.470703125) (0.00014555909729003906, 2.47265625) (0.00014691879272460938, 2.474609375) (0.00014807720947265625, 2.4765625) (0.0001490149383544922, 2.478515625) (0.00014971310424804688, 2.48046875) (0.00015015328979492188, 2.482421875) (0.00015031828308105467, 2.484375) (0.00015019268798828126, 2.486328125) (0.0001497625732421875, 2.48828125) (0.00014901567077636719, 2.490234375) (0.00014794122314453124, 2.4921875) (0.00014652996826171875, 2.494140625) (0.0001447747802734375, 2.49609375) (0.0001426708221435547, 2.498046875) (0.00014021514892578125, 2.5) (0.00013740689086914063, 2.501953125) (0.00013424679565429687, 2.50390625) (0.0001307372131347656, 2.505859375) (0.00012688298797607422, 2.5078125) (0.00012269145202636718, 2.509765625) (0.00011817182922363281, 2.51171875) (0.0001133354263305664, 2.513671875) (0.00010819507598876952, 2.515625) (0.00010276492309570311, 2.517578125) (9.706107330322265e-05, 2.51953125) (9.11015625e-05, 2.521484375) (8.490553283691406e-05, 2.5234375) (7.849319458007812e-05, 2.525390625) (7.18857192993164e-05, 2.52734375) (6.510497283935547e-05, 2.529296875) (5.8174011230468746e-05, 2.53125) (5.111723709106445e-05, 2.533203125) (4.3959510803222654e-05, 2.53515625) (3.672584915161133e-05, 2.537109375) (2.944126319885254e-05, 2.5390625) (2.2130615234374998e-05, 2.541015625) (1.4819015502929686e-05, 2.54296875) (7.531736850738525e-06, 2.544921875) (2.935347557067871e-07, 2.546875) (-6.871588706970214e-06, 2.548828125) (-1.3940699577331542e-05, 2.55078125) (-2.0891963958740233e-05, 2.552734375) (-2.7703914642333984e-05, 2.5546875) (-3.435563659667969e-05, 2.556640625) (-4.0827796936035156e-05, 2.55859375) (-4.7102428436279296e-05, 2.560546875) (-5.316316223144531e-05, 2.5625) (-5.899556732177734e-05, 2.564453125) (-6.458563232421875e-05, 2.56640625) (-6.992003631591796e-05, 2.568359375) (-7.498762512207031e-05, 2.5703125) (-7.977916717529296e-05, 2.572265625) (-8.428697204589843e-05, 2.57421875) (-8.850534057617187e-05, 2.576171875) (-9.24295883178711e-05, 2.578125) (-9.605559539794922e-05, 2.580078125) (-9.938178253173828e-05, 2.58203125) (-0.00010240933227539062, 2.583984375) (-0.00010514086151123046, 2.5859375) (-0.00010758047485351562, 2.587890625) (-0.00010973384857177734, 2.58984375) (-0.00011160765075683593, 2.591796875) (-0.0001132112579345703, 2.59375) (-0.00011455766296386719, 2.595703125) (-0.00011566102600097656, 2.59765625) (-0.00011653595733642577, 2.599609375) (-0.00011719810485839844, 2.6015625) (-0.00011766387939453125, 2.603515625) (-0.00011795084381103514, 2.60546875) (-0.00011807817077636719, 2.607421875) (-0.00011806388092041016, 2.609375) (-0.00011792372894287109, 2.611328125) (-0.00011767335510253906, 2.61328125) (-0.00011732797241210937, 2.615234375) (-0.00011690460968017577, 2.6171875) (-0.00011642253112792969, 2.619140625) (-0.00011589926147460938, 2.62109375) (-0.0001153517608642578, 2.623046875) (-0.00011479710388183593, 2.625) (-0.0001142507095336914, 2.626953125) (-0.00011372918701171874, 2.62890625) (-0.00011325051116943359, 2.630859375) (-0.00011282463073730469, 2.6328125) (-0.00011245376586914062, 2.634765625) (-0.000112142822265625, 2.63671875) (-0.00011189514160156249, 2.638671875) (-0.00011171984100341797, 2.640625) (-0.00011163732910156249, 2.642578125) (-0.00011165716552734375, 2.64453125) (-0.00011177909088134766, 2.646484375) (-0.00011200442504882812, 2.6484375) (-0.00011233034515380859, 2.650390625) (-0.00011274715423583984, 2.65234375) (-0.00011324034881591797, 2.654296875) (-0.00011377484130859374, 2.65625) (-0.00011429293823242187, 2.658203125) (-0.00011474398040771483, 2.66015625) (-0.00011508296203613281, 2.662109375) (-0.00011527872467041015, 2.6640625) (-0.00011532080841064452, 2.666015625) (-0.00011518180847167968, 2.66796875) (-0.00011482688903808594, 2.669921875) (-0.00011421883392333984, 2.671875) (-0.0001133067398071289, 2.673828125) (-0.0001120661392211914, 2.67578125) (-0.00011049301147460938, 2.677734375) (-0.00010856462860107421, 2.6796875) (-0.00010625849151611328, 2.681640625) (-0.00010359612274169921, 2.68359375) (-0.0001006355972290039, 2.685546875) (-9.749147796630859e-05, 2.6875) (-9.434043884277343e-05, 2.689453125) (-9.130587768554687e-05, 2.69140625) (-8.846809387207031e-05, 2.693359375) (-8.591542816162109e-05, 2.6953125) (-8.370814514160156e-05, 2.697265625) (-8.192472076416016e-05, 2.69921875) (-8.065589904785155e-05, 2.701171875) (-7.996745300292968e-05, 2.703125) (-7.991239929199219e-05, 2.705078125) (-8.057582092285155e-05, 2.70703125) (-8.208697509765625e-05, 2.708984375) (-8.45223388671875e-05, 2.7109375) (-8.788668823242188e-05, 2.712890625) (-9.198375701904297e-05, 2.71484375) (-9.632889556884765e-05, 2.716796875) (-0.00010026593017578125, 2.71875) (-0.00010305333709716796, 2.720703125) (-0.00010389492797851562, 2.72265625) (-0.00010199047088623047, 2.724609375) (-9.681826782226562e-05, 2.7265625) (-8.810983276367187e-05, 2.728515625) (-7.597744750976562e-05, 2.73046875) (-6.149222564697265e-05, 2.732421875) (-4.639335250854492e-05, 2.734375) (-3.260576248168945e-05, 2.736328125) (-2.2269031524658202e-05, 2.73828125) (-1.6028499603271483e-05, 2.740234375) (-1.2615104675292968e-05, 2.7421875) (-1.1155813217163086e-05, 2.744140625) (-1.1387268066406249e-05, 2.74609375) (-1.576523208618164e-05, 2.748046875) (-2.8191619873046872e-05, 2.75) (-4.719964218139648e-05, 2.751953125) (-6.40954818725586e-05, 2.75390625) (-6.241397476196289e-05, 2.755859375) (-2.416298675537109e-05, 2.7578125) (5.8182952880859375e-05, 2.759765625) (0.00017711558532714842, 2.76171875) (0.0003137058715820312, 2.763671875) (0.0004480781860351562, 2.765625) (0.0005705162353515624, 2.767578125) (0.0006866295166015624, 2.76953125) (0.00080685400390625, 2.771484375) (0.0009312794189453125, 2.7734375) (0.001046044677734375, 2.775390625) (0.0011214852294921874, 2.77734375) (0.0011262406005859375, 2.779296875) (0.0010486838378906248, 2.78125) (0.0008938306884765624, 2.783203125) (0.0006822188110351562, 2.78515625) (0.0004443004455566406, 2.787109375) (0.0002002593078613281, 2.7890625) (-3.189856719970703e-05, 2.791015625) (-0.0002344546661376953, 2.79296875) (-0.0003975838012695312, 2.794921875) (-0.0005075059814453125, 2.796875) (-0.0005584586181640624, 2.798828125) (-0.000555652587890625, 2.80078125) (-0.0005060888671875, 2.802734375) (-0.00042780465698242186, 2.8046875) (-0.0003401062316894531, 2.806640625) (-0.0002598260803222656, 2.80859375) (-0.00020163331604003905, 2.810546875) (-0.000167081298828125, 2.8125) (-0.00014967027282714843, 2.814453125) (-0.0001381757354736328, 2.81640625) (-0.0001226731414794922, 2.818359375) (-0.00010259355163574218, 2.8203125) (-8.231385803222656e-05, 2.822265625) (-6.881417846679688e-05, 2.82421875) (-6.665034484863281e-05, 2.826171875) (-7.444515228271484e-05, 2.828125) (-8.866246032714843e-05, 2.830078125) (-0.000104849365234375, 2.83203125) (-0.00011917047119140625, 2.833984375) (-0.0001298495635986328, 2.8359375) (-0.00013639805603027344, 2.837890625) (-0.0001390080871582031, 2.83984375) (-0.00013828268432617186, 2.841796875) (-0.00013498117065429687, 2.84375) (-0.00012972787475585938, 2.845703125) (-0.00012323610687255858, 2.84765625) (-0.00011663430786132811, 2.849609375) (-0.00011110943603515625, 2.8515625) (-0.00010737913513183593, 2.853515625) (-0.00010568730163574219, 2.85546875) (-0.0001058588638305664, 2.857421875) (-0.00010740283966064452, 2.859375) (-0.00010984961700439453, 2.861328125) (-0.00011283456420898437, 2.86328125) (-0.00011590324401855468, 2.865234375) (-0.0001185591812133789, 2.8671875) (-0.00012051573181152343, 2.869140625) (-0.00012164994812011718, 2.87109375) (-0.0001219603271484375, 2.873046875) (-0.00012159297943115234, 2.875) (-0.0001206848373413086, 2.876953125) (-0.00011930409240722656, 2.87890625) (-0.00011754103851318359, 2.880859375) (-0.00011549154663085937, 2.8828125) (-0.00011320623779296875, 2.884765625) (-0.00011075076293945312, 2.88671875) (-0.000108187255859375, 2.888671875) (-0.00010555851745605468, 2.890625) (-0.000102943359375, 2.892578125) (-0.00010040725708007812, 2.89453125) (-9.79826431274414e-05, 2.896484375) (-9.570260620117187e-05, 2.8984375) (-9.35816650390625e-05, 2.900390625) (-9.161553192138672e-05, 2.90234375) (-8.980280303955078e-05, 2.904296875) (-8.812506103515625e-05, 2.90625) (-8.654116821289062e-05, 2.908203125) (-8.502512359619141e-05, 2.91015625) (-8.356242370605468e-05, 2.912109375) (-8.2138916015625e-05, 2.9140625) (-8.074832916259766e-05, 2.916015625) (-7.937455749511718e-05, 2.91796875) (-7.798907470703125e-05, 2.919921875) (-7.656550598144531e-05, 2.921875) (-7.507908630371094e-05, 2.923828125) (-7.350787353515625e-05, 2.92578125) (-7.183416748046875e-05, 2.927734375) (-7.003977966308594e-05, 2.9296875) (-6.810877990722656e-05, 2.931640625) (-6.603284454345703e-05, 2.93359375) (-6.380906677246093e-05, 2.935546875) (-6.14399528503418e-05, 2.9375) (-5.8931827545166015e-05, 2.939453125) (-5.628728103637695e-05, 2.94140625) (-5.3506706237792964e-05, 2.943359375) (-5.05925064086914e-05, 2.9453125) (-4.754804992675781e-05, 2.947265625) (-4.4379272460937495e-05, 2.94921875) (-4.109507369995117e-05, 2.951171875) (-3.770462799072265e-05, 2.953125) (-3.421821975708008e-05, 2.955078125) (-3.06501350402832e-05, 2.95703125) (-2.701784896850586e-05, 2.958984375) (-2.3340770721435545e-05, 2.9609375) (-1.963977813720703e-05, 2.962890625) (-1.5935705184936523e-05, 2.96484375) (-1.2249254226684569e-05, 2.966796875) (-8.602181434631347e-06, 2.96875) (-5.017403125762939e-06, 2.970703125) (-1.5180790424346923e-06, 2.97265625) (1.8727321624755858e-06, 2.974609375) (5.132009506225586e-06, 2.9765625) (8.236936569213866e-06, 2.978515625) (1.116474151611328e-05, 2.98046875) (1.3892473220825195e-05, 2.982421875) (1.639800453186035e-05, 2.984375) (1.8660789489746094e-05, 2.986328125) (2.06614990234375e-05, 2.98828125) (2.2382211685180663e-05, 2.990234375) (2.3806514739990234e-05, 2.9921875) (2.4919391632080078e-05, 2.994140625) (2.5707847595214843e-05, 2.99609375) (2.6161306381225585e-05, 2.998046875) (2.6271387100219724e-05, 3.0) (2.603188133239746e-05, 3.001953125) (2.5438756942749023e-05, 3.00390625) (2.4490215301513672e-05, 3.005859375) (2.3187137603759764e-05, 3.0078125) (2.1533241271972655e-05, 3.009765625) (1.9534751892089842e-05, 3.01171875) (1.720045471191406e-05, 3.013671875) (1.4541456222534179e-05, 3.015625) (1.157102584838867e-05, 3.017578125) (8.305104255676269e-06, 3.01953125) (4.762053966522217e-06, 3.021484375) (9.621387720108032e-07, 3.0234375) (-3.072597503662109e-06, 3.025390625) (-7.318659782409667e-06, 3.02734375) (-1.1751361846923828e-05, 3.029296875) (-1.6344676971435545e-05, 3.03125) (-2.1071369171142578e-05, 3.033203125) (-2.590353775024414e-05, 3.03515625) (-3.0812767028808594e-05, 3.037109375) (-3.57702751159668e-05, 3.0390625) (-4.07472038269043e-05, 3.041015625) (-4.571466064453125e-05, 3.04296875) (-5.0643905639648435e-05, 3.044921875) (-5.550680541992187e-05, 3.046875) (-6.027601623535156e-05, 3.048828125) (-6.492518615722656e-05, 3.05078125) (-6.942910766601562e-05, 3.052734375) (-7.376380920410156e-05, 3.0546875) (-7.790663146972656e-05, 3.056640625) (-8.183650207519531e-05, 3.05859375) (-8.553401947021484e-05, 3.060546875) (-8.898167419433593e-05, 3.0625) (-9.216387939453124e-05, 3.064453125) (-9.506713104248046e-05, 3.06640625) (-9.768009948730468e-05, 3.068359375) (-9.999381256103516e-05, 3.0703125) (-0.00010200173950195312, 3.072265625) (-0.0001036997299194336, 3.07421875) (-0.0001050860595703125, 3.076171875) (-0.00010616127014160155, 3.078125) (-0.0001069280776977539, 3.080078125) (-0.00010739130401611327, 3.08203125) (-0.00010755773925781249, 3.083984375) (-0.00010743598175048828, 3.0859375) (-0.00010703638458251953, 3.087890625) (-0.00010637078857421874, 3.08984375) (-0.00010545249938964843, 3.091796875) (-0.00010429618072509765, 3.09375) (-0.0001029177017211914, 3.095703125) (-0.0001013339385986328, 3.09765625) (-9.956268310546875e-05, 3.099609375) (-9.762232971191406e-05, 3.1015625) (-9.553176879882812e-05, 3.103515625) (-9.331015014648437e-05, 3.10546875) (-9.097664642333984e-05, 3.107421875) (-8.855036163330078e-05, 3.109375) (-8.60501480102539e-05, 3.111328125) (-8.349449920654296e-05, 3.11328125) (-8.090145111083984e-05, 3.115234375) (-7.828849029541015e-05, 3.1171875) (-7.567242431640625e-05, 3.119140625) (-7.306930541992187e-05, 3.12109375) (-7.049436950683593e-05, 3.123046875) (-6.796182250976563e-05, 3.125) (-6.548466491699218e-05, 3.126953125) (-6.30745506286621e-05, 3.12890625) (-6.0741607666015624e-05, 3.130859375) (-5.849443817138671e-05, 3.1328125) (-5.6340099334716796e-05, 3.134765625) (-5.428396606445312e-05, 3.13671875) (-5.232978057861328e-05, 3.138671875) (-5.047975921630859e-05, 3.140625) (-4.87346076965332e-05, 3.142578125) (-4.709368133544922e-05, 3.14453125) (-4.555517196655273e-05, 3.146484375) (-4.411599731445312e-05, 3.1484375) (-4.277188110351562e-05, 3.150390625) (-4.1517494201660154e-05, 3.15234375) (-4.0346431732177735e-05, 3.154296875) (-3.925143051147461e-05, 3.15625) (-3.822462463378906e-05, 3.158203125) (-3.725749206542969e-05, 3.16015625) (-3.6341064453124996e-05, 3.162109375) (-3.5466117858886715e-05, 3.1640625) (-3.4623252868652345e-05, 3.166015625) (-3.380316162109375e-05, 3.16796875) (-3.2996978759765625e-05, 3.169921875) (-3.219604873657226e-05, 3.171875) (-3.139198112487793e-05, 3.173828125) (-3.057678413391113e-05, 3.17578125) (-2.9742774963378904e-05, 3.177734375) (-2.8882804870605466e-05, 3.1796875) (-2.7990562438964842e-05, 3.181640625) (-2.7060237884521484e-05, 3.18359375) (-2.6086448669433594e-05, 3.185546875) (-2.5064708709716797e-05, 3.1875) (-2.3991390228271484e-05, 3.189453125) (-2.2863964080810546e-05, 3.19140625) (-2.1681390762329102e-05, 3.193359375) (-2.044357109069824e-05, 3.1953125) (-1.915126037597656e-05, 3.197265625) (-1.780643844604492e-05, 3.19921875) (-1.6412111282348633e-05, 3.201171875) (-1.4972183227539063e-05, 3.203125) (-1.349171257019043e-05, 3.205078125) (-1.1976260185241699e-05, 3.20703125) (-1.0431562423706054e-05, 3.208984375) (-8.864261627197264e-06, 3.2109375) (-7.281615257263183e-06, 3.212890625) (-5.691395282745361e-06, 3.21484375) (-4.102330684661865e-06, 3.216796875) (-2.5232901573181153e-06, 3.21875) (-9.628050327301025e-07, 3.220703125) (5.703998804092406e-07, 3.22265625) (2.0676867961883544e-06, 3.224609375) (3.520863056182861e-06, 3.2265625) (4.921751022338867e-06, 3.228515625) (6.26302433013916e-06, 3.23046875) (7.538893699645996e-06, 3.232421875) (8.744063377380371e-06, 3.234375) (9.873689651489257e-06, 3.236328125) (1.092367172241211e-05, 3.23828125) (1.1890162467956543e-05, 3.240234375) (1.2770300865173339e-05, 3.2421875) (1.3562924385070801e-05, 3.244140625) (1.4267196655273436e-05, 3.24609375) (1.4882204055786133e-05, 3.248046875) (1.5408071517944337e-05, 3.25) (1.584548854827881e-05, 3.251953125) (1.619632339477539e-05, 3.25390625) (1.6464347839355467e-05, 3.255859375) (1.665336799621582e-05, 3.2578125) (1.6766925811767576e-05, 3.259765625) (1.6809587478637695e-05, 3.26171875) (1.678652572631836e-05, 3.263671875) (1.6702945709228515e-05, 3.265625) (1.6564687728881835e-05, 3.267578125) (1.6376281738281248e-05, 3.26953125) (1.6140039443969725e-05, 3.271484375) (1.5858855247497557e-05, 3.2734375) (1.553598594665527e-05, 3.275390625) (1.5174068450927734e-05, 3.27734375) (1.4776342391967772e-05, 3.279296875) (1.4345855712890624e-05, 3.28125) (1.3884242057800292e-05, 3.283203125) (1.3394742012023925e-05, 3.28515625) (1.2883121490478515e-05, 3.287109375) (1.2354032516479491e-05, 3.2890625) (1.1811532974243164e-05, 3.291015625) (1.1258074760437012e-05, 3.29296875) (1.0691533088684081e-05, 3.294921875) (1.010909080505371e-05, 3.296875) (9.50994873046875e-06, 3.298828125) (8.892042160034179e-06, 3.30078125) (8.252471923828124e-06, 3.302734375) (7.58856201171875e-06, 3.3046875) (6.8941268920898434e-06, 3.306640625) (6.167346954345703e-06, 3.30859375) (5.415944576263427e-06, 3.310546875) (4.644436836242676e-06, 3.3125) (3.853471755981445e-06, 3.314453125) (3.0373644828796387e-06, 3.31640625) (2.1767828464508056e-06, 3.318359375) (1.2564001083374024e-06, 3.3203125) (2.7401202917098996e-07, 3.322265625) (-7.737911939620971e-07, 3.32421875) (-1.8898609876632689e-06, 3.326171875) (-3.067033290863037e-06, 3.328125) (-4.298226833343506e-06, 3.330078125) (-5.560812950134277e-06, 3.33203125) (-6.80532169342041e-06, 3.333984375) (-7.987961292266845e-06, 3.3359375) (-9.070955276489257e-06, 3.337890625) (-1.0022442817687988e-05, 3.33984375) (-1.0833949089050292e-05, 3.341796875) (-1.1491005897521972e-05, 3.34375) (-1.1957162857055664e-05, 3.345703125) (-1.2191970825195312e-05, 3.34765625) (-1.2145624160766601e-05, 3.349609375) (-1.1774377822875977e-05, 3.3515625) (-1.1071583747863769e-05, 3.353515625) (-1.0029811859130858e-05, 3.35546875) (-8.625861167907714e-06, 3.357421875) (-6.877372741699219e-06, 3.359375) (-4.8351731300354005e-06, 3.361328125) (-2.596590042114258e-06, 3.36328125) (-3.2453012466430664e-07, 3.365234375) (1.8419853448867796e-06, 3.3671875) (3.8005104064941405e-06, 3.369140625) (5.439693450927734e-06, 3.37109375) (6.6450376510620115e-06, 3.373046875) (7.277954578399658e-06, 3.375) (7.1783471107482905e-06, 3.376953125) (6.246069431304931e-06, 3.37890625) (4.395519733428955e-06, 3.380859375) (1.4884897470474243e-06, 3.3828125) (-2.530740976333618e-06, 3.384765625) (-7.665446758270263e-06, 3.38671875) (-1.380355453491211e-05, 3.388671875) (-2.0489831924438477e-05, 3.390625) (-2.7169464111328125e-05, 3.392578125) (-3.336193466186523e-05, 3.39453125) (-3.8451427459716795e-05, 3.396484375) (-4.1745052337646486e-05, 3.3984375) (-4.2734031677246093e-05, 3.400390625) (-4.097319793701172e-05, 3.40234375) (-3.648698043823242e-05, 3.404296875) (-3.025033950805664e-05, 3.40625) (-2.3304088592529294e-05, 3.408203125) (-1.641739845275879e-05, 3.41015625) (-1.0720081329345703e-05, 3.412109375) (-7.44545841217041e-06, 3.4140625) (-7.610785961151123e-06, 3.416015625) (-1.2237226486206054e-05, 3.41796875) (-1.9622577667236328e-05, 3.419921875) (-2.4883258819580075e-05, 3.421875) (-2.412857437133789e-05, 3.423828125) (-1.5180460929870605e-05, 3.42578125) (-1.2032032012939453e-07, 3.427734375) (1.6323484420776366e-05, 3.4296875) (3.500956726074219e-05, 3.431640625) (6.420539855957032e-05, 3.43359375) (0.00011782242584228515, 3.435546875) (0.00020682644653320312, 3.4375) (0.0003317030029296875, 3.439453125) (0.000481098876953125, 3.44140625) (0.0006364388427734374, 3.443359375) (0.0007865228271484374, 3.4453125) (0.0009261066284179687, 3.447265625) (0.0010500008544921874, 3.44921875) (0.0011516591796874999, 3.451171875) (0.001210851806640625, 3.453125) (0.0012039873046875, 3.455078125) (0.0011220914306640625, 3.45703125) (0.0009669512329101562, 3.458984375) (0.0007564820556640625, 3.4609375) (0.0005194796142578125, 3.462890625) (0.0002751614990234375, 3.46484375) (4.190866470336914e-05, 3.466796875) (-0.00016295277404785157, 3.46875) (-0.00032941192626953123, 3.470703125) (-0.0004420615234375, 3.47265625) (-0.0004930359497070312, 3.474609375) (-0.00048431173706054684, 3.4765625) (-0.00042141143798828123, 3.478515625) (-0.00032385192871093747, 3.48046875) (-0.00021311183166503904, 3.482421875) (-0.00010976557159423828, 3.484375) (-3.2294361114501955e-05, 3.486328125) (1.6016502380371092e-05, 3.48828125) (4.046670532226562e-05, 3.490234375) (5.20285415649414e-05, 3.4921875) (6.224056243896484e-05, 3.494140625) (7.367539978027344e-05, 3.49609375) (8.305526733398437e-05, 3.498046875) (8.397306060791015e-05, 3.5) (7.287208557128906e-05, 3.501953125) (5.2046848297119137e-05, 3.50390625) (2.6745235443115232e-05, 3.505859375) (3.90629768371582e-06, 3.5078125) (-1.2424728393554687e-05, 3.509765625) (-2.170301055908203e-05, 3.51171875) (-2.431485366821289e-05, 3.513671875) (-2.1640392303466797e-05, 3.515625) (-1.5250740051269531e-05, 3.517578125) (-6.320022106170654e-06, 3.51953125) (3.499061107635498e-06, 3.521484375) (1.2158556938171385e-05, 3.5234375) (1.8548643112182617e-05, 3.525390625) (2.2289024353027342e-05, 3.52734375) (2.3310729980468747e-05, 3.529296875) (2.2099039077758786e-05, 3.53125) (1.920901870727539e-05, 3.533203125) (1.5118545532226562e-05, 3.53515625) (1.0564838409423827e-05, 3.537109375) (6.349148273468017e-06, 3.5390625) (2.8916082382202146e-06, 3.541015625) (3.6586326360702516e-07, 3.54296875) (-1.2081809043884276e-06, 3.544921875) (-1.998621106147766e-06, 3.546875) (-2.0925335884094237e-06, 3.548828125) (-1.5232452154159545e-06, 3.55078125) (-4.0744346380233763e-07, 3.552734375) (1.1459914445877075e-06, 3.5546875) (3.063980102539062e-06, 3.556640625) (5.289691925048828e-06, 3.55859375) (7.808012962341308e-06, 3.560546875) (1.0609162330627442e-05, 3.5625) (1.3638466835021971e-05, 3.564453125) (1.681502342224121e-05, 3.56640625) (2.005075454711914e-05, 3.568359375) (2.327554702758789e-05, 3.5703125) (2.6455921173095702e-05, 3.572265625) (2.9573499679565428e-05, 3.57421875) (3.261704635620117e-05, 3.576171875) (3.5583217620849605e-05, 3.578125) (3.84654655456543e-05, 3.580078125) (4.1268756866455074e-05, 3.58203125) (4.401116561889648e-05, 3.583984375) (4.6698783874511714e-05, 3.5859375) (4.9334289550781246e-05, 3.587890625) (5.192230606079101e-05, 3.58984375) (5.4463386535644526e-05, 3.591796875) (5.696802520751953e-05, 3.59375) (5.945697021484375e-05, 3.595703125) (6.194994735717773e-05, 3.59765625) (6.446785736083984e-05, 3.599609375) (6.70304718017578e-05, 3.6015625) (6.964913940429687e-05, 3.603515625) (7.233236694335938e-05, 3.60546875) (7.508756256103516e-05, 3.607421875) (7.791676330566405e-05, 3.609375) (8.082057189941406e-05, 3.611328125) (8.379818725585938e-05, 3.61328125) (8.68456802368164e-05, 3.615234375) (8.996199798583984e-05, 3.6171875) (9.314846038818359e-05, 3.619140625) (9.640530395507812e-05, 3.62109375) (9.973220062255859e-05, 3.623046875) (0.00010312730407714843, 3.625) (0.00010658628845214844, 3.626953125) (0.00011010424804687499, 3.62890625) (0.00011367572784423827, 3.630859375) (0.00011729248046874999, 3.6328125) (0.00012094456481933593, 3.634765625) (0.0001246213836669922, 3.63671875) (0.00012831126403808592, 3.638671875) (0.00013200245666503905, 3.640625) (0.00013568309020996094, 3.642578125) (0.00013934008789062499, 3.64453125) (0.000142959228515625, 3.646484375) (0.00014652598571777343, 3.6484375) (0.00015002519226074219, 3.650390625) (0.00015344097900390623, 3.65234375) (0.00015675717163085936, 3.654296875) (0.00015995675659179686, 3.65625) (0.00016302188110351563, 3.658203125) (0.00016593487548828125, 3.66015625) (0.00016867814636230467, 3.662109375) (0.0001712342834472656, 3.6640625) (0.00017358636474609375, 3.666015625) (0.00017571768188476562, 3.66796875) (0.00017761190795898436, 3.669921875) (0.000179253662109375, 3.671875) (0.00018062864685058593, 3.673828125) (0.0001817235565185547, 3.67578125) (0.00018252627563476563, 3.677734375) (0.00018302565002441406, 3.6796875) (0.00018321160888671873, 3.681640625) (0.0001830758056640625, 3.68359375) (0.00018261160278320313, 3.685546875) (0.00018181401062011718, 3.6875) (0.00018067987060546873, 3.689453125) (0.00017920750427246094, 3.69140625) (0.00017739663696289063, 3.693359375) (0.00017524935913085937, 3.6953125) (0.00017276972961425782, 3.697265625) (0.00016996337890625, 3.69921875) (0.00016683767700195312, 3.701171875) (0.00016340116882324217, 3.703125) (0.00015966357421875, 3.705078125) (0.00015563653564453124, 3.70703125) (0.00015133346557617188, 3.708984375) (0.0001467689514160156, 3.7109375) (0.00014195896911621094, 3.712890625) (0.00013692059326171873, 3.71484375) (0.00013167196655273437, 3.716796875) (0.00012623294067382813, 3.71875) (0.00012062478637695311, 3.720703125) (0.00011486932373046874, 3.72265625) (0.00010898897552490233, 3.724609375) (0.00010300627136230468, 3.7265625) (9.694383239746093e-05, 3.728515625) (9.082520294189453e-05, 3.73046875) (8.467416381835937e-05, 3.732421875) (7.851426696777344e-05, 3.734375) (7.236904144287109e-05, 3.736328125) (6.626139068603515e-05, 3.73828125) (6.0213668823242185e-05, 3.740234375) (5.4248512268066406e-05, 3.7421875) (4.838803100585937e-05, 3.744140625) (4.265284729003906e-05, 3.74609375) (3.706248092651367e-05, 3.748046875) (3.1634851455688476e-05, 3.75) (2.6385955810546872e-05, 3.751953125) (2.1331338882446288e-05, 3.75390625) (1.648531150817871e-05, 3.755859375) (1.1859625816345214e-05, 3.7578125) (7.464287757873535e-06, 3.759765625) (3.307549238204956e-06, 3.76171875) (-6.041649580001831e-07, 3.763671875) (-4.26511812210083e-06, 3.765625) (-7.67077112197876e-06, 3.767578125) (-1.0819465637207031e-05, 3.76953125) (-1.3712024688720703e-05, 3.771484375) (-1.6350873947143554e-05, 3.7734375) (-1.8740089416503905e-05, 3.775390625) (-2.0885341644287107e-05, 3.77734375) (-2.2794490814208983e-05, 3.779296875) (-2.4479341506958008e-05, 3.78125) (-2.5955200195312498e-05, 3.783203125) (-2.7238536834716795e-05, 3.78515625) (-2.8346557617187497e-05, 3.787109375) (-2.929743194580078e-05, 3.7890625) (-3.0110673904418944e-05, 3.791015625) (-3.0807830810546876e-05, 3.79296875) (-3.141136932373047e-05, 3.794921875) (-3.1941640853881834e-05, 3.796875) (-3.241670989990234e-05, 3.798828125) (-3.285503768920898e-05, 3.80078125) (-3.327602767944336e-05, 3.802734375) (-3.37021484375e-05, 3.8046875) (-3.4158340454101563e-05, 3.806640625) (-3.466649627685547e-05, 3.80859375) (-3.5246246337890625e-05, 3.810546875) (-3.5916812896728513e-05, 3.8125) (-3.6695465087890624e-05, 3.814453125) (-3.759994888305664e-05, 3.81640625) (-3.864784240722656e-05, 3.818359375) (-3.984657287597656e-05, 3.8203125) (-4.119491577148437e-05, 3.822265625) (-4.2695587158203125e-05, 3.82421875) (-4.435212707519531e-05, 3.826171875) (-4.617686462402343e-05, 3.828125) (-4.819573974609375e-05, 3.830078125) (-5.04219856262207e-05, 3.83203125) (-5.28575439453125e-05, 3.833984375) (-5.550488662719726e-05, 3.8359375) (-5.835750198364258e-05, 3.837890625) (-6.140304565429687e-05, 3.83984375) (-6.462690734863281e-05, 3.841796875) (-6.798973846435546e-05, 3.84375) (-7.14284896850586e-05, 3.845703125) (-7.488836669921875e-05, 3.84765625) (-7.831529235839843e-05, 3.849609375) (-8.16680450439453e-05, 3.8515625) (-8.492819213867187e-05, 3.853515625) (-8.805184173583984e-05, 3.85546875) (-9.098387908935546e-05, 3.857421875) (-9.366593170166015e-05, 3.859375) (-9.601426696777343e-05, 3.861328125) (-9.797189331054687e-05, 3.86328125) (-9.950823211669922e-05, 3.865234375) (-0.00010057858276367187, 3.8671875) (-0.00010115668487548828, 3.869140625) (-0.00010126014709472655, 3.87109375) (-0.00010092658996582031, 3.873046875) (-0.0001002462921142578, 3.875) (-9.936672210693359e-05, 3.876953125) (-9.840188598632812e-05, 3.87890625) (-9.746705627441406e-05, 3.880859375) (-9.669517517089844e-05, 3.8828125) (-9.619721221923828e-05, 3.884765625) (-9.612432861328124e-05, 3.88671875) (-9.660987091064453e-05, 3.888671875) (-9.776789855957031e-05, 3.890625) (-9.9766357421875e-05, 3.892578125) (-0.00010269749450683593, 3.89453125) (-0.00010655081939697265, 3.896484375) (-0.00011122108459472655, 3.8984375) (-0.00011636263275146484, 3.900390625) (-0.00012143814086914062, 3.90234375) (-0.00012595814514160155, 3.904296875) (-0.00012937234497070312, 3.90625) (-0.00013099806213378906, 3.908203125) (-0.0001303766632080078, 3.91015625) (-0.00012724347686767577, 3.912109375) (-0.00012168887329101562, 3.9140625) (-0.0001145652618408203, 3.916015625) (-0.00010709554290771484, 3.91796875) (-0.00010037502288818359, 3.919921875) (-9.537630462646484e-05, 3.921875) (-9.310692596435547e-05, 3.923828125) (-9.443479919433594e-05, 3.92578125) (-9.98916244506836e-05, 3.927734375) (-0.00010903461456298828, 3.9296875) (-0.00011856275939941406, 3.931640625) (-0.00012311358642578125, 3.93359375) (-0.00011784873962402343, 3.935546875) (-9.954219818115233e-05, 3.9375) (-7.00045166015625e-05, 3.939453125) (-3.3438835144042965e-05, 3.94140625) (8.981722831726074e-06, 3.943359375) (5.959173583984375e-05, 3.9453125) (0.00012804866027832032, 3.947265625) (0.00022474601745605467, 3.94921875) (0.0003543656616210937, 3.951171875) (0.0005152117309570312, 3.953125) (0.0006932025146484374, 3.955078125) (0.0008694168701171874, 3.95703125) (0.0010209088134765624, 3.958984375) (0.0011227968749999999, 3.9609375) (0.0011597691650390624, 3.962890625) (0.00112121533203125, 3.96484375) (0.0010100679931640624, 3.966796875) (0.0008418123779296875, 3.96875) (0.0006298949584960937, 3.970703125) (0.0003936733703613281, 3.97265625) (0.000151734375, 3.974609375) (-8.054640197753906e-05, 3.9765625) (-0.0002786154174804687, 3.978515625) (-0.00042072735595703124, 3.98046875) (-0.0004973055419921874, 3.982421875) (-0.0005060929565429687, 3.984375) (-0.00045928741455078124, 3.986328125) (-0.00038209405517578124, 3.98828125) (-0.00029325335693359373, 3.990234375) (-0.0002098798828125, 3.9921875) (-0.00014867057800292967, 3.994140625) (-0.00010919850158691406, 3.99609375) (-8.927880859375e-05, 3.998046875) (-8.598727416992187e-05, 4.0) (-8.534129333496093e-05, 4.001953125) (-8.555569458007812e-05, 4.00390625) (-9.01737060546875e-05, 4.005859375) (-9.586295318603515e-05, 4.0078125) (-0.00010740936279296875, 4.009765625) (-0.00012233419799804687, 4.01171875) (-0.00013119757080078123, 4.013671875) (-0.00013611456298828124, 4.015625) (-0.00013680203247070312, 4.017578125) (-0.00013430033874511717, 4.01953125) (-0.00013478297424316405, 4.021484375) (-0.00013542584228515625, 4.0234375) (-0.0001336883544921875, 4.025390625) (-0.0001299906005859375, 4.02734375) (-0.00012304724884033204, 4.029296875) (-0.00011554055786132812, 4.03125) (-0.00011028427124023436, 4.033203125) (-0.00010734991455078125, 4.03515625) (-0.00010694217681884766, 4.037109375) (-0.00010866412353515624, 4.0390625) (-0.00011176335144042968, 4.041015625) (-0.00011609233093261718, 4.04296875) (-0.000121338623046875, 4.044921875) (-0.00012676548767089844, 4.046875) (-0.00013183351135253904, 4.048828125) (-0.0001362933349609375, 4.05078125) (-0.00014003038024902343, 4.052734375) (-0.0001430813446044922, 4.0546875) (-0.0001455039825439453, 4.056640625) (-0.00014725335693359373, 4.05859375) (-0.000148315673828125, 4.060546875) (-0.00014879763793945313, 4.0625) (-0.00014878948974609375, 4.064453125) (-0.0001483516387939453, 4.06640625) (-0.0001475360107421875, 4.068359375) (-0.0001463494873046875, 4.0703125) (-0.00014481802368164061, 4.072265625) (-0.00014301596069335936, 4.07421875) (-0.0001410275421142578, 4.076171875) (-0.00013894717407226563, 4.078125) (-0.00013686431884765625, 4.080078125) (-0.00013483033752441405, 4.08203125) (-0.0001328759765625, 4.083984375) (-0.00013102433776855467, 4.0859375) (-0.00012928416442871093, 4.087890625) (-0.00012766221618652342, 4.08984375) (-0.00012615869140624998, 4.091796875) (-0.00012475228881835937, 4.09375) (-0.00012341397094726563, 4.095703125) (-0.00012212134552001952, 4.09765625) (-0.00012085427856445313, 4.099609375) (-0.0001195970687866211, 4.1015625) (-0.00011833463287353515, 4.103515625) (-0.0001170408477783203, 4.10546875) (-0.00011568475341796875, 4.107421875) (-0.0001142372589111328, 4.109375) (-0.00011267187499999999, 4.111328125) (-0.00011096900939941406, 4.11328125) (-0.00010911415100097656, 4.115234375) (-0.00010709341430664062, 4.1171875) (-0.00010489474487304687, 4.119140625) (-0.00010251057434082031, 4.12109375) (-9.993661499023437e-05, 4.123046875) (-9.717263031005859e-05, 4.125) (-9.422161865234374e-05, 4.126953125) (-9.108457946777343e-05, 4.12890625) (-8.776205444335937e-05, 4.130859375) (-8.425677490234375e-05, 4.1328125) (-8.057289886474609e-05, 4.134765625) (-7.671722412109374e-05, 4.13671875) (-7.269923400878906e-05, 4.138671875) (-6.852919006347656e-05, 4.140625) (-6.421833038330078e-05, 4.142578125) (-5.978108215332031e-05, 4.14453125) (-5.523423385620117e-05, 4.146484375) (-5.059622955322266e-05, 4.1484375) (-4.5887687683105464e-05, 4.150390625) (-4.112997817993164e-05, 4.15234375) (-3.634529876708984e-05, 4.154296875) (-3.155780029296875e-05, 4.15625) (-2.679286193847656e-05, 4.158203125) (-2.2076454162597656e-05, 4.16015625) (-1.7435359954833984e-05, 4.162109375) (-1.2896596908569335e-05, 4.1640625) (-8.487146377563476e-06, 4.166015625) (-4.234695434570312e-06, 4.16796875) (-1.6684198379516602e-07, 4.169921875) (3.689644336700439e-06, 4.171875) (7.308508872985839e-06, 4.173828125) (1.0664443969726562e-05, 4.17578125) (1.3733276367187499e-05, 4.177734375) (1.649176597595215e-05, 4.1796875) (1.891815185546875e-05, 4.181640625) (2.0992681503295896e-05, 4.18359375) (2.2697561264038084e-05, 4.185546875) (2.401726150512695e-05, 4.1875) (2.4938718795776366e-05, 4.189453125) (2.5451122283935545e-05, 4.19140625) (2.554629898071289e-05, 4.193359375) (2.521875e-05, 4.1953125) (2.446553039550781e-05, 4.197265625) (2.3286508560180662e-05, 4.19921875) (2.1684200286865233e-05, 4.201171875) (1.966343879699707e-05, 4.203125) (1.7231536865234375e-05, 4.205078125) (1.4398367881774902e-05, 4.20703125) (1.1176170349121093e-05, 4.208984375) (7.579848766326904e-06, 4.2109375) (3.6268429756164548e-06, 4.212890625) (-6.633954048156738e-07, 4.21484375) (-5.269349098205566e-06, 4.216796875) (-1.0167547225952148e-05, 4.21875) (-1.5332748413085938e-05, 4.220703125) (-2.073777961730957e-05, 4.22265625) (-2.6353832244873047e-05, 4.224609375) (-3.215119552612305e-05, 4.2265625) (-3.809943389892578e-05, 4.228515625) (-4.416764831542969e-05, 4.23046875) (-5.0324707031249995e-05, 4.232421875) (-5.6538764953613276e-05, 4.234375) (-6.277783584594726e-05, 4.236328125) (-6.901036834716797e-05, 4.23828125) (-7.520510864257812e-05, 4.240234375) (-8.133171081542968e-05, 4.2421875) (-8.736073303222656e-05, 4.244140625) (-9.32630615234375e-05, 4.24609375) (-9.901063537597655e-05, 4.248046875) (-0.000104577392578125, 4.25) (-0.00010993898773193359, 4.251953125) (-0.00011507322692871093, 4.25390625) (-0.00011996044921874999, 4.255859375) (-0.00012458223724365233, 4.2578125) (-0.00012892208862304687, 4.259765625) (-0.00013296658325195312, 4.26171875) (-0.00013670472717285155, 4.263671875) (-0.0001401277618408203, 4.265625) (-0.0001432293701171875, 4.267578125) (-0.00014600448608398438, 4.26953125) (-0.00014844972229003905, 4.271484375) (-0.00015056495666503905, 4.2734375) (-0.00015235289001464843, 4.275390625) (-0.00015381828308105467, 4.27734375) (-0.00015496791076660156, 4.279296875) (-0.00015581057739257813, 4.28125) (-0.00015635763549804688, 4.283203125) (-0.00015662451171874998, 4.28515625) (-0.00015663041687011717, 4.287109375) (-0.0001563959045410156, 4.2890625) (-0.00015594241333007812, 4.291015625) (-0.00015529229736328123, 4.29296875) (-0.0001544691619873047, 4.294921875) (-0.0001534984893798828, 4.296875) (-0.00015240652465820312, 4.298828125) (-0.0001512172088623047, 4.30078125) (-0.00014995190429687499, 4.302734375) (-0.00014863201904296875, 4.3046875) (-0.00014727946472167967, 4.306640625) (-0.00014591891479492187, 4.30859375) (-0.00014457730102539063, 4.310546875) (-0.00014327813720703124, 4.3125) (-0.00014204214477539062, 4.314453125) (-0.000140889404296875, 4.31640625) (-0.0001398376770019531, 4.318359375) (-0.00013890512084960936, 4.3203125) (-0.00013810992431640624, 4.322265625) (-0.0001374599609375, 4.32421875) (-0.00013695399475097657, 4.326171875) (-0.00013659432983398437, 4.328125) (-0.00013638372802734374, 4.330078125) (-0.00013633351135253904, 4.33203125) (-0.00013646873474121093, 4.333984375) (-0.00013680168151855468, 4.3359375) (-0.00013733326721191406, 4.337890625) (-0.00013806462097167967, 4.33984375) (-0.00013898788452148438, 4.341796875) (-0.00014009039306640624, 4.34375) (-0.0001413584747314453, 4.345703125) (-0.0001427535705566406, 4.34765625) (-0.0001442128143310547, 4.349609375) (-0.00014568037414550782, 4.3515625) (-0.0001470993194580078, 4.353515625) (-0.00014842626953125, 4.35546875) (-0.00014964268493652342, 4.357421875) (-0.00015070431518554686, 4.359375) (-0.00015155572509765626, 4.361328125) (-0.00015213922119140623, 4.36328125) (-0.0001523716583251953, 4.365234375) (-0.0001521978759765625, 4.3671875) (-0.000151592041015625, 4.369140625) (-0.00015051263427734375, 4.37109375) (-0.00014893382263183593, 4.373046875) (-0.00014687426757812498, 4.375) (-0.0001443696594238281, 4.376953125) (-0.00014150714111328124, 4.37890625) (-0.00013843429565429686, 4.380859375) (-0.00013526654052734374, 4.3828125) (-0.00013212136840820313, 4.384765625) (-0.0001291418762207031, 4.38671875) (-0.00012644786071777344, 4.388671875) (-0.00012417791748046874, 4.390625) (-0.0001224487075805664, 4.392578125) (-0.00012136260986328125, 4.39453125) (-0.00012107693481445312, 4.396484375) (-0.00012168919372558593, 4.3984375) (-0.00012320744323730468, 4.400390625) (-0.00012550740051269532, 4.40234375) (-0.00012821484375, 4.404296875) (-0.0001308615264892578, 4.40625) (-0.00013305865478515624, 4.408203125) (-0.0001343353576660156, 4.41015625) (-0.0001340855255126953, 4.412109375) (-0.00013184576416015625, 4.4140625) (-0.0001272512512207031, 4.416015625) (-0.0001203998565673828, 4.41796875) (-0.00011224097442626953, 4.419921875) (-0.00010376245117187499, 4.421875) (-9.570072937011718e-05, 4.423828125) (-8.905392456054687e-05, 4.42578125) (-8.475202941894531e-05, 4.427734375) (-8.356739807128906e-05, 4.4296875) (-8.657334899902343e-05, 4.431640625) (-9.20329132080078e-05, 4.43359375) (-9.507467651367187e-05, 4.435546875) (-9.21209259033203e-05, 4.4375) (-7.951309204101562e-05, 4.439453125) (-5.837172698974609e-05, 4.44140625) (-3.59379653930664e-05, 4.443359375) (-1.2718632698059081e-05, 4.4453125) (1.4440815925598143e-05, 4.447265625) (5.464631652832031e-05, 4.44921875) (0.00012593714141845703, 4.451171875) (0.00023446937561035156, 4.453125) (0.0003783401489257812, 4.455078125) (0.000549553955078125, 4.45703125) (0.0007267354736328125, 4.458984375) (0.0008939935913085937, 4.4609375) (0.001034675048828125, 4.462890625) (0.0011285397949218749, 4.46484375) (0.0011651572265624999, 4.466796875) (0.0011343992919921875, 4.46875) (0.0010370621337890623, 4.470703125) (0.0008860983886718749, 4.47265625) (0.0006916341552734374, 4.474609375) (0.0004701535034179687, 4.4765625) (0.00023804650878906248, 4.478515625) (1.1329500198364258e-05, 4.48046875) (-0.00018387020874023437, 4.482421875) (-0.0003269400634765625, 4.484375) (-0.0004084768676757812, 4.486328125) (-0.0004290151672363281, 4.48828125) (-0.0004033013916015625, 4.490234375) (-0.00034938018798828124, 4.4921875) (-0.00027976806640625, 4.494140625) (-0.0002054872131347656, 4.49609375) (-0.00013684701538085937, 4.498046875) (-8.145624542236327e-05, 4.5) (-4.5558338165283204e-05, 4.501953125) (-2.9272695541381835e-05, 4.50390625) (-2.411453628540039e-05, 4.505859375) (-2.1912359237670897e-05, 4.5078125) (-1.7980253219604492e-05, 4.509765625) (-1.2325546264648438e-05, 4.51171875) (-1.085435676574707e-05, 4.513671875) (-1.695700454711914e-05, 4.515625) (-2.945263671875e-05, 4.517578125) (-4.5120285034179685e-05, 4.51953125) (-5.849686431884765e-05, 4.521484375) (-6.651277160644531e-05, 4.5234375) (-6.931897735595703e-05, 4.525390625) (-6.754934692382813e-05, 4.52734375) (-6.241972351074219e-05, 4.529296875) (-5.5202369689941404e-05, 4.53125) (-4.6711788177490234e-05, 4.533203125) (-3.8096534729003903e-05, 4.53515625) (-3.088526916503906e-05, 4.537109375) (-2.5862417221069336e-05, 4.5390625) (-2.3175336837768555e-05, 4.541015625) (-2.279634857177734e-05, 4.54296875) (-2.4346946716308592e-05, 4.544921875) (-2.7409103393554685e-05, 4.546875) (-3.1664163589477536e-05, 4.548828125) (-3.654677581787109e-05, 4.55078125) (-4.1332447052001954e-05, 4.552734375) (-4.560948944091797e-05, 4.5546875) (-4.918742752075195e-05, 4.556640625) (-5.1995483398437496e-05, 4.55859375) (-5.4146888732910154e-05, 4.560546875) (-5.568149948120117e-05, 4.5625) (-5.6569831848144525e-05, 4.564453125) (-5.688010025024414e-05, 4.56640625) (-5.670748901367187e-05, 4.568359375) (-5.6120292663574213e-05, 4.5703125) (-5.518653106689453e-05, 4.572265625) (-5.393062591552734e-05, 4.57421875) (-5.234371948242187e-05, 4.576171875) (-5.0466342926025386e-05, 4.578125) (-4.8367214202880855e-05, 4.580078125) (-4.612791061401367e-05, 4.58203125) (-4.3845035552978514e-05, 4.583984375) (-4.157357406616211e-05, 4.5859375) (-3.933664321899414e-05, 4.587890625) (-3.715230560302734e-05, 4.58984375) (-3.5022907257080075e-05, 4.591796875) (-3.295005798339844e-05, 4.59375) (-3.093323516845703e-05, 4.595703125) (-2.8948863983154295e-05, 4.59765625) (-2.6964103698730468e-05, 4.599609375) (-2.495499038696289e-05, 4.6015625) (-2.2899715423583984e-05, 4.603515625) (-2.0782363891601563e-05, 4.60546875) (-1.8591583251953125e-05, 4.607421875) (-1.6303600311279296e-05, 4.609375) (-1.3889963150024414e-05, 4.611328125) (-1.1324710845947265e-05, 4.61328125) (-8.580650329589843e-06, 4.615234375) (-5.638860702514648e-06, 4.6171875) (-2.4879918098449704e-06, 4.619140625) (8.829658031463623e-07, 4.62109375) (4.4811191558837886e-06, 4.623046875) (8.30827522277832e-06, 4.625) (1.2363568305969238e-05, 4.626953125) (1.6641000747680664e-05, 4.62890625) (2.1130266189575193e-05, 4.630859375) (2.5823307037353516e-05, 4.6328125) (3.0712381362915036e-05, 4.634765625) (3.578745651245117e-05, 4.63671875) (4.103768157958984e-05, 4.638671875) (4.6449378967285154e-05, 4.640625) (5.200600051879883e-05, 4.642578125) (5.769038391113281e-05, 4.64453125) (6.348405456542968e-05, 4.646484375) (6.936533355712891e-05, 4.6484375) (7.531047058105468e-05, 4.650390625) (8.129418945312499e-05, 4.65234375) (8.728951263427734e-05, 4.654296875) (9.326917266845702e-05, 4.65625) (9.920549011230469e-05, 4.658203125) (0.00010506945037841797, 4.66015625) (0.00011083153533935547, 4.662109375) (0.00011646243286132812, 4.6640625) (0.00012193283081054688, 4.666015625) (0.0001272138671875, 4.66796875) (0.0001322774200439453, 4.669921875) (0.00013709532165527344, 4.671875) (0.00014164012145996094, 4.673828125) (0.00014588601684570313, 4.67578125) (0.00014980851745605468, 4.677734375) (0.00015338476562499998, 4.6796875) (0.00015659371948242187, 4.681640625) (0.00015941600036621092, 4.68359375) (0.00016183422851562498, 4.685546875) (0.00016383380126953125, 4.6875) (0.00016540264892578123, 4.689453125) (0.00016653115844726562, 4.69140625) (0.0001672125244140625, 4.693359375) (0.00016744219970703125, 4.6953125) (0.00016721817016601562, 4.697265625) (0.00016654135131835936, 4.69921875) (0.0001654152374267578, 4.701171875) (0.00016384588623046873, 4.703125) (0.00016184179687499998, 4.705078125) (0.00015941383361816407, 4.70703125) (0.00015657505798339844, 4.708984375) (0.00015334127807617188, 4.7109375) (0.00014973077392578125, 4.712890625) (0.00014576391601562499, 4.71484375) (0.00014146305847167968, 4.716796875) (0.00013685214233398436, 4.71875) (0.0001319565734863281, 4.720703125) (0.00012680322265625, 4.72265625) (0.00012142011260986327, 4.724609375) (0.00011583598327636718, 4.7265625) (0.00011008010864257812, 4.728515625) (0.00010418211364746093, 4.73046875) (9.817172241210937e-05, 4.732421875) (9.207879638671875e-05, 4.734375) (8.593300628662109e-05, 4.736328125) (7.976347351074219e-05, 4.73828125) (7.359866333007812e-05, 4.740234375) (6.746602630615235e-05, 4.7421875) (6.139188003540038e-05, 4.744140625) (5.540129470825195e-05, 4.74609375) (4.9517929077148433e-05, 4.748046875) (4.376374816894531e-05, 4.75) (3.815902709960937e-05, 4.751953125) (3.272220611572266e-05, 4.75390625) (2.7469852447509764e-05, 4.755859375) (2.2416698455810546e-05, 4.7578125) (1.7575584411621093e-05, 4.759765625) (1.2957362174987793e-05, 4.76171875) (8.570924758911133e-06, 4.763671875) (4.423169136047363e-06, 4.765625) (5.190023183822632e-07, 4.767578125) (-3.1385767459869384e-06, 4.76953125) (-6.54847240447998e-06, 4.771484375) (-9.711496353149414e-06, 4.7734375) (-1.2630261421203613e-05, 4.775390625) (-1.5309101104736327e-05, 4.77734375) (-1.775396919250488e-05, 4.779296875) (-1.9972259521484375e-05, 4.78125) (-2.197272491455078e-05, 4.783203125) (-2.3765363693237304e-05, 4.78515625) (-2.5361276626586912e-05, 4.787109375) (-2.6772567749023437e-05, 4.7890625) (-2.8012216567993162e-05, 4.791015625) (-2.909389877319336e-05, 4.79296875) (-3.00318603515625e-05, 4.794921875) (-3.0840778350830074e-05, 4.796875) (-3.1535545349121095e-05, 4.798828125) (-3.213114929199219e-05, 4.80078125) (-3.264247512817383e-05, 4.802734375) (-3.3084083557128905e-05, 4.8046875) (-3.3470123291015624e-05, 4.806640625) (-3.381416320800781e-05, 4.80859375) (-3.4129112243652345e-05, 4.810546875) (-3.4427120208740234e-05, 4.8125) (-3.4719547271728516e-05, 4.814453125) (-3.501686096191406e-05, 4.81640625) (-3.532860565185547e-05, 4.818359375) (-3.5663360595703126e-05, 4.8203125) (-3.602863311767578e-05, 4.822265625) (-3.643091583251953e-05, 4.82421875) (-3.6875595092773434e-05, 4.826171875) (-3.736688232421875e-05, 4.828125) (-3.790780639648437e-05, 4.830078125) (-3.850019073486328e-05, 4.83203125) (-3.9144615173339843e-05, 4.833984375) (-3.984060287475586e-05, 4.8359375) (-4.058663940429687e-05, 4.837890625) (-4.1380187988281246e-05, 4.83984375) (-4.22177505493164e-05, 4.841796875) (-4.3095008850097657e-05, 4.84375) (-4.4006820678710934e-05, 4.845703125) (-4.4947448730468746e-05, 4.84765625) (-4.5910633087158204e-05, 4.849609375) (-4.688947677612304e-05, 4.8515625) (-4.787654113769531e-05, 4.853515625) (-4.886396408081054e-05, 4.85546875) (-4.984348678588867e-05, 4.857421875) (-5.0806724548339845e-05, 4.859375) (-5.1745292663574216e-05, 4.861328125) (-5.265084075927734e-05, 4.86328125) (-5.351522064208984e-05, 4.865234375) (-5.433066177368164e-05, 4.8671875) (-5.508977890014648e-05, 4.869140625) (-5.578583145141601e-05, 4.87109375) (-5.6412799835205074e-05, 4.873046875) (-5.696523284912109e-05, 4.875) (-5.743827819824219e-05, 4.876953125) (-5.7827766418457026e-05, 4.87890625) (-5.813002777099609e-05, 4.880859375) (-5.834225845336914e-05, 4.8828125) (-5.846261596679687e-05, 4.884765625) (-5.8489913940429686e-05, 4.88671875) (-5.842375946044921e-05, 4.888671875) (-5.826477813720703e-05, 4.890625) (-5.801447296142578e-05, 4.892578125) (-5.767549896240234e-05, 4.89453125) (-5.725175094604492e-05, 4.896484375) (-5.674781799316406e-05, 4.8984375) (-5.616892623901367e-05, 4.900390625) (-5.552110290527343e-05, 4.90234375) (-5.4811008453369136e-05, 4.904296875) (-5.404582595825195e-05, 4.90625) (-5.32333869934082e-05, 4.908203125) (-5.238154220581054e-05, 4.91015625) (-5.149809265136718e-05, 4.912109375) (-5.059131240844726e-05, 4.9140625) (-4.9669776916503904e-05, 4.916015625) (-4.8742347717285156e-05, 4.91796875) (-4.7818305969238276e-05, 4.919921875) (-4.6906726837158204e-05, 4.921875) (-4.601627731323242e-05, 4.923828125) (-4.515556335449218e-05, 4.92578125) (-4.433275985717773e-05, 4.927734375) (-4.355554962158203e-05, 4.9296875) (-4.2831325531005855e-05, 4.931640625) (-4.216645050048828e-05, 4.93359375) (-4.156622314453125e-05, 4.935546875) (-4.1035568237304686e-05, 4.9375) (-4.057888031005859e-05, 4.939453125) (-4.0200050354003907e-05, 4.94140625) (-3.990293121337891e-05, 4.943359375) (-3.969050598144531e-05, 4.9453125) (-3.956453704833984e-05, 4.947265625) (-3.952675628662109e-05, 4.94921875) (-3.957855606079101e-05, 4.951171875) (-3.972041702270508e-05, 4.953125) (-3.9952396392822266e-05, 4.955078125) (-4.027341842651367e-05, 4.95703125) (-4.068104553222656e-05, 4.958984375) (-4.117292022705078e-05, 4.9609375) (-4.1746967315673826e-05, 4.962890625) (-4.2400306701660156e-05, 4.96484375) (-4.3129642486572265e-05, 4.966796875) (-4.393204116821289e-05, 4.96875) (-4.480461120605469e-05, 4.970703125) (-4.574617004394531e-05, 4.97265625) (-4.675771331787109e-05, 4.974609375) (-4.784004974365234e-05, 4.9765625) (-4.899375534057617e-05, 4.978515625) (-5.022007751464844e-05, 4.98046875) (-5.152037811279297e-05, 4.982421875) (-5.28962173461914e-05, 4.984375) (-5.434991836547851e-05, 4.986328125) (-5.588145065307617e-05, 4.98828125) (-5.748786544799804e-05, 4.990234375) (-5.916713714599609e-05, 4.9921875) (-6.091744232177734e-05, 4.994140625) (-6.273892974853515e-05, 4.99609375) (-6.463536071777343e-05, 4.998046875) (-6.660897827148438e-05, 5.0) (-6.865965270996093e-05, 5.001953125) (-7.078819274902343e-05, 5.00390625) (-7.299434661865235e-05, 5.005859375) (-7.527738189697265e-05, 5.0078125) (-7.76390380859375e-05, 5.009765625) (-8.007431030273437e-05, 5.01171875) (-8.256994628906249e-05, 5.013671875) (-8.511738586425781e-05, 5.015625) (-8.771063232421874e-05, 5.017578125) (-9.035240936279296e-05, 5.01953125) (-9.306195831298827e-05, 5.021484375) (-9.585266876220703e-05, 5.0234375) (-9.872772216796874e-05, 5.025390625) (-0.00010169081115722656, 5.02734375) (-0.00010473822021484374, 5.029296875) (-0.00010786005401611328, 5.03125) (-0.00011104710388183594, 5.033203125) (-0.00011427000427246093, 5.03515625) (-0.00011747442626953125, 5.037109375) (-0.0001206091079711914, 5.0390625) (-0.00012362187194824218, 5.041015625) (-0.00012646866607666016, 5.04296875) (-0.00012913014221191404, 5.044921875) (-0.00013157281494140623, 5.046875) (-0.00013374615478515625, 5.048828125) (-0.00013559323120117186, 5.05078125) (-0.00013703192138671874, 5.052734375) (-0.00013799221801757811, 5.0546875) (-0.00013843524169921876, 5.056640625) (-0.00013832380676269531, 5.05859375) (-0.00013763505554199217, 5.060546875) (-0.00013638171386718748, 5.0625) (-0.00013460350036621093, 5.064453125) (-0.000132384033203125, 5.06640625) (-0.00012986363220214843, 5.068359375) (-0.00012718772888183592, 5.0703125) (-0.00012450268554687499, 5.072265625) (-0.00012197457885742187, 5.07421875) (-0.00011976373291015624, 5.076171875) (-0.00011803379821777343, 5.078125) (-0.00011692386627197264, 5.080078125) (-0.00011659144592285156, 5.08203125) (-0.00011727529144287109, 5.083984375) (-0.00011913459777832031, 5.0859375) (-0.0001222178192138672, 5.087890625) (-0.00012639378356933594, 5.08984375) (-0.00013120654296875, 5.091796875) (-0.00013613255310058594, 5.09375) (-0.00014075952148437498, 5.095703125) (-0.0001445478820800781, 5.09765625) (-0.00014676354980468749, 5.099609375) (-0.00014685823059082032, 5.1015625) (-0.00014445703125, 5.103515625) (-0.0001397366943359375, 5.10546875) (-0.0001339212646484375, 5.107421875) (-0.00012827792358398438, 5.109375) (-0.00012365093994140625, 5.111328125) (-0.00012110748291015624, 5.11328125) (-0.00012178648376464843, 5.115234375) (-0.00012646068572998045, 5.1171875) (-0.0001356951446533203, 5.119140625) (-0.00014751852416992187, 5.12109375) (-0.0001566835479736328, 5.123046875) (-0.00015855738830566405, 5.125) (-0.00015040370178222656, 5.126953125) (-0.0001333028106689453, 5.12890625) (-0.00011088327026367186, 5.130859375) (-8.259501647949219e-05, 5.1328125) (-4.116518402099609e-05, 5.134765625) (2.5756677627563476e-05, 5.13671875) (0.00012753540802001954, 5.138671875) (0.00026424243164062497, 5.140625) (0.00042459152221679687, 5.142578125) (0.0005903576049804687, 5.14453125) (0.0007491553955078124, 5.146484375) (0.0008948858642578124, 5.1484375) (0.0010246304931640624, 5.150390625) (0.001133640869140625, 5.15234375) (0.00120649560546875, 5.154296875) (0.0012228209228515624, 5.15625) (0.001167155029296875, 5.158203125) (0.001035593505859375, 5.16015625) (0.0008375714111328124, 5.162109375) (0.000593465087890625, 5.1640625) (0.00032873095703125, 5.166015625) (6.788858032226562e-05, 5.16796875) (-0.0001636585235595703, 5.169921875) (-0.00034238781738281246, 5.171875) (-0.0004531819152832031, 5.173828125) (-0.0004895884094238281, 5.17578125) (-0.00045637802124023436, 5.177734375) (-0.0003744620361328125, 5.1796875) (-0.00027042083740234376, 5.181640625) (-0.0001705277099609375, 5.18359375) (-9.946428680419921e-05, 5.185546875) (-6.280332565307618e-05, 5.1875) (-5.29841079711914e-05, 5.189453125) (-5.7438461303710937e-05, 5.19140625) (-5.7236976623535154e-05, 5.193359375) (-4.6300811767578125e-05, 5.1953125) (-2.8860923767089842e-05, 5.197265625) (-1.0377052307128907e-05, 5.19921875) (-4.481653273105621e-07, 5.201171875) (-2.0704548358917233e-06, 5.203125) (-1.1415436744689942e-05, 5.205078125) (-2.5089771270751953e-05, 5.20703125) (-3.841304779052734e-05, 5.208984375) (-4.780388641357422e-05, 5.2109375) (-5.2969501495361325e-05, 5.212890625) (-5.42471809387207e-05, 5.21484375) (-5.2092430114746095e-05, 5.216796875) (-4.755555725097656e-05, 5.21875) (-4.156066513061523e-05, 5.220703125) (-3.463701248168945e-05, 5.22265625) (-2.772831153869629e-05, 5.224609375) (-2.217362594604492e-05, 5.2265625) (-1.8599103927612304e-05, 5.228515625) (-1.724292755126953e-05, 5.23046875) (-1.8167253494262694e-05, 5.232421875) (-2.0859909057617188e-05, 5.234375) (-2.481242561340332e-05, 5.236328125) (-2.9680397033691406e-05, 5.23828125) (-3.4878814697265624e-05, 5.240234375) (-3.9792465209960934e-05, 5.2421875) (-4.4095279693603514e-05, 5.244140625) (-4.7578239440917964e-05, 5.24609375) (-5.0174541473388667e-05, 5.248046875) (-5.200437545776367e-05, 5.25) (-5.311749267578125e-05, 5.251953125) (-5.354339218139648e-05, 5.25390625) (-5.3383941650390624e-05, 5.255859375) (-5.2720252990722654e-05, 5.2578125) (-5.1620922088623044e-05, 5.259765625) (-5.014777755737305e-05, 5.26171875) (-4.8326278686523434e-05, 5.263671875) (-4.618983078002929e-05, 5.265625) (-4.380881118774414e-05, 5.267578125) (-4.127543258666992e-05, 5.26953125) (-3.869393157958984e-05, 5.271484375) (-3.614459991455078e-05, 5.2734375) (-3.3670871734619136e-05, 5.275390625) (-3.130340957641601e-05, 5.27734375) (-2.905838394165039e-05, 5.279296875) (-2.694003677368164e-05, 5.28125) (-2.4951976776123047e-05, 5.283203125) (-2.307694435119629e-05, 5.28515625) (-2.128388214111328e-05, 5.287109375) (-1.9557071685791014e-05, 5.2890625) (-1.7883525848388672e-05, 5.291015625) (-1.625090789794922e-05, 5.29296875) (-1.4652736663818358e-05, 5.294921875) (-1.3070838928222655e-05, 5.296875) (-1.1478578567504882e-05, 5.298828125) (-9.852119445800781e-06, 5.30078125) (-8.165548324584961e-06, 5.302734375) (-6.394600391387939e-06, 5.3046875) (-4.522886753082275e-06, 5.306640625) (-2.5354416370391847e-06, 5.30859375) (-4.191988110542297e-07, 5.310546875) (1.832460880279541e-06, 5.3125) (4.224273681640625e-06, 5.314453125) (6.758111953735351e-06, 5.31640625) (9.43208885192871e-06, 5.318359375) (1.2247756004333496e-05, 5.3203125) (1.5208916664123534e-05, 5.322265625) (1.831821060180664e-05, 5.32421875) (2.1578411102294922e-05, 5.326171875) (2.4990726470947265e-05, 5.328125) (2.8553777694702147e-05, 5.330078125) (3.2265960693359374e-05, 5.33203125) (3.61248664855957e-05, 5.333984375) (4.0124744415283204e-05, 5.3359375) (4.425775527954102e-05, 5.337890625) (4.8514762878417965e-05, 5.33984375) (5.288478088378906e-05, 5.341796875) (5.735625457763671e-05, 5.34375) (6.191698837280273e-05, 5.345703125) (6.655301666259765e-05, 5.34765625) (7.12490234375e-05, 5.349609375) (7.59888916015625e-05, 5.3515625) (8.075534057617187e-05, 5.353515625) (8.552997589111328e-05, 5.35546875) (9.029359436035156e-05, 5.357421875) (9.502595520019531e-05, 5.359375) (9.970596313476562e-05, 5.361328125) (0.0001043123550415039, 5.36328125) (0.00010882372283935547, 5.365234375) (0.00011321844482421875, 5.3671875) (0.00011747514343261718, 5.369140625) (0.00012157257080078124, 5.37109375) (0.00012548976135253907, 5.373046875) (0.00012920655822753905, 5.375) (0.00013270370483398436, 5.376953125) (0.00013596257019042967, 5.37890625) (0.00013896551513671875, 5.380859375) (0.0001416959686279297, 5.3828125) (0.00014413845825195313, 5.384765625) (0.00014627911376953123, 5.38671875) (0.00014810581970214844, 5.388671875) (0.0001496076965332031, 5.390625) (0.00015077555847167967, 5.392578125) (0.00015160202026367187, 5.39453125) (0.00015208132934570312, 5.396484375) (0.0001522100372314453, 5.3984375) (0.00015198666381835936, 5.400390625) (0.00015141140747070312, 5.40234375) (0.00015048606872558593, 5.404296875) (0.00014921456909179688, 5.40625) (0.00014760256958007813, 5.408203125) (0.0001456577911376953, 5.41015625) (0.00014338970947265625, 5.412109375) (0.00014080950927734375, 5.4140625) (0.00013793002319335937, 5.416015625) (0.00013476612854003905, 5.41796875) (0.00013133468627929686, 5.419921875) (0.00012765394592285155, 5.421875) (0.00012374336242675782, 5.423828125) (0.00011962328338623046, 5.42578125) (0.00011531494140624999, 5.427734375) (0.00011084062957763672, 5.4296875) (0.00010622333526611328, 5.431640625) (0.00010148660278320312, 5.43359375) (9.665438842773437e-05, 5.435546875) (9.175068664550781e-05, 5.4375) (8.679976654052734e-05, 5.439453125) (8.182625579833984e-05, 5.44140625) (7.685475158691406e-05, 5.443359375) (7.190933227539063e-05, 5.4453125) (6.701351165771484e-05, 5.447265625) (6.218976211547851e-05, 5.44921875) (5.745935821533203e-05, 5.451171875) (5.2843002319335935e-05, 5.453125) (4.8360240936279294e-05, 5.455078125) (4.4029037475585936e-05, 5.45703125) (3.9865745544433595e-05, 5.458984375) (3.588519668579101e-05, 5.4609375) (3.2100990295410156e-05, 5.462890625) (2.852554702758789e-05, 5.46484375) (2.5170063018798826e-05, 5.466796875) (2.2043596267700195e-05, 5.46875) (1.9152832031249998e-05, 5.470703125) (1.6502958297729492e-05, 5.47265625) (1.4097929000854492e-05, 5.474609375) (1.1939315795898438e-05, 5.4765625) (1.002581214904785e-05, 5.478515625) (8.352558135986327e-06, 5.48046875) (6.910551071166992e-06, 5.482421875) (5.689181327819824e-06, 5.484375) (4.677220821380615e-06, 5.486328125) (3.861289024353027e-06, 5.48828125) (3.2259416580200192e-06, 5.490234375) (2.7545025348663327e-06, 5.4921875) (2.4293835163116453e-06, 5.494140625) (2.2348508834838864e-06, 5.49609375) (2.1582434177398682e-06, 5.498046875) (2.1854965686798095e-06, 5.5) (2.3004186153411865e-06, 5.501953125) (2.484389543533325e-06, 5.50390625) (2.7154979705810546e-06, 5.505859375) (2.9736928939819335e-06, 5.5078125) (3.2411794662475583e-06, 5.509765625) (3.499683856964111e-06, 5.51171875) (3.731295824050903e-06, 5.513671875) (3.918141841888428e-06, 5.515625) (4.042349815368652e-06, 5.517578125) (4.094320297241211e-06, 5.51953125) (4.073368072509766e-06, 5.521484375) (3.974505186080932e-06, 5.5234375) (3.790130853652954e-06, 5.525390625) (3.5019497871398923e-06, 5.52734375) (3.0761680603027343e-06, 5.529296875) (2.4894299507141113e-06, 5.53125) (1.7289708852767943e-06, 5.533203125) (7.846378087997436e-07, 5.53515625) (-3.4427374601364134e-07, 5.537109375) (-1.6533653736114502e-06, 5.5390625) (-3.1348352432250974e-06, 5.541015625) (-4.755825519561768e-06, 5.54296875) (-6.457673549652099e-06, 5.544921875) (-8.18472671508789e-06, 5.546875) (-9.880338668823243e-06, 5.548828125) (-1.1505009651184082e-05, 5.55078125) (-1.3042247772216796e-05, 5.552734375) (-1.4455287933349609e-05, 5.5546875) (-1.5699825286865234e-05, 5.556640625) (-1.6714778900146485e-05, 5.55859375) (-1.7412315368652344e-05, 5.560546875) (-1.7732839584350586e-05, 5.5625) (-1.7640655517578123e-05, 5.564453125) (-1.7103988647460938e-05, 5.56640625) (-1.6118331909179686e-05, 5.568359375) (-1.4711196899414062e-05, 5.5703125) (-1.293120002746582e-05, 5.572265625) (-1.088871669769287e-05, 5.57421875) (-8.747102737426757e-06, 5.576171875) (-6.661425113677978e-06, 5.578125) (-4.803797721862793e-06, 5.580078125) (-3.337071895599365e-06, 5.58203125) (-2.4047164916992187e-06, 5.583984375) (-2.1590268611907958e-06, 5.5859375) (-2.7003288269042966e-06, 5.587890625) (-4.164448738098145e-06, 5.58984375) (-6.762263774871826e-06, 5.591796875) (-1.0601722717285156e-05, 5.59375) (-1.5679699897766113e-05, 5.595703125) (-2.1783124923706055e-05, 5.59765625) (-2.837743759155273e-05, 5.599609375) (-3.490669250488281e-05, 5.6015625) (-4.095648956298828e-05, 5.603515625) (-4.5988067626953124e-05, 5.60546875) (-4.933179473876953e-05, 5.607421875) (-5.0456153869628904e-05, 5.609375) (-4.898151779174805e-05, 5.611328125) (-4.529281616210937e-05, 5.61328125) (-4.075306701660156e-05, 5.615234375) (-3.6663204193115234e-05, 5.6171875) (-3.393866348266602e-05, 5.619140625) (-3.3484683990478514e-05, 5.62109375) (-3.6056373596191406e-05, 5.623046875) (-4.236330413818359e-05, 5.625) (-5.322759246826172e-05, 5.626953125) (-6.607344055175781e-05, 5.62890625) (-7.484498596191406e-05, 5.630859375) (-7.463360595703124e-05, 5.6328125) (-6.062816619873047e-05, 5.634765625) (-3.411571502685547e-05, 5.63671875) (-3.459149360656738e-06, 5.638671875) (2.9860153198242187e-05, 5.640625) (6.740553283691406e-05, 5.642578125) (0.00011690293884277343, 5.64453125) (0.00019702561950683592, 5.646484375) (0.0003143911743164062, 5.6484375) (0.00046793328857421874, 5.650390625) (0.0006515673828124999, 5.65234375) (0.00084180322265625, 5.654296875) (0.001017922607421875, 5.65625) (0.0011595831298828125, 5.658203125) (0.001242144775390625, 5.66015625) (0.001252474365234375, 5.662109375) (0.00118311181640625, 5.6640625) (0.001035253173828125, 5.666015625) (0.0008226607666015624, 5.66796875) (0.0005660508422851562, 5.669921875) (0.00029155581665039063, 5.671875) (2.8414726257324217e-05, 5.673828125) (-0.00019508023071289061, 5.67578125) (-0.0003601568603515625, 5.677734375) (-0.000457645263671875, 5.6796875) (-0.0004918173828125, 5.681640625) (-0.0004755989074707031, 5.68359375) (-0.00041919085693359375, 5.685546875) (-0.0003373828125, 5.6875) (-0.0002421720275878906, 5.689453125) (-0.00014693487548828125, 5.69140625) (-7.340560913085937e-05, 5.693359375) (-3.046061325073242e-05, 5.6953125) (-1.850617218017578e-05, 5.697265625) (-2.9532455444335936e-05, 5.69921875) (-4.2777259826660154e-05, 5.701171875) (-4.8011459350585935e-05, 5.703125) (-4.4412528991699214e-05, 5.705078125) (-3.553976821899414e-05, 5.70703125) (-3.189200019836426e-05, 5.708984375) (-3.751499557495117e-05, 5.7109375) (-5.034518051147461e-05, 5.712890625) (-6.725736999511718e-05, 5.71484375) (-8.328295135498046e-05, 5.716796875) (-9.592404174804687e-05, 5.71875) (-0.00010501760864257812, 5.720703125) (-0.00011078087615966796, 5.72265625) (-0.00011409622192382812, 5.724609375) (-0.00011559819793701171, 5.7265625) (-0.00011553739929199219, 5.728515625) (-0.00011445654296874999, 5.73046875) (-0.00011284579467773436, 5.732421875) (-0.0001112825698852539, 5.734375) (-0.00011063736724853515, 5.736328125) (-0.0001112576904296875, 5.73828125) (-0.0001130956573486328, 5.740234375) (-0.00011599662780761718, 5.7421875) (-0.0001195591583251953, 5.744140625) (-0.00012345315551757813, 5.74609375) (-0.00012751075744628904, 5.748046875) (-0.00013143994140625, 5.75) (-0.00013484623718261718, 5.751953125) (-0.00013752890014648436, 5.75390625) (-0.00013940341186523438, 5.755859375) (-0.00014047705078125, 5.7578125) (-0.00014091342163085937, 5.759765625) (-0.00014080419921875, 5.76171875) (-0.00014017222595214844, 5.763671875) (-0.00013908506774902343, 5.765625) (-0.0001376103820800781, 5.767578125) (-0.00013582049560546873, 5.76953125) (-0.00013380278015136718, 5.771484375) (-0.00013162527465820312, 5.7734375) (-0.00012933837890625, 5.775390625) (-0.000126988525390625, 5.77734375) (-0.00012461152648925782, 5.779296875) (-0.00012223905944824218, 5.78125) (-0.0001199031982421875, 5.783203125) (-0.00011761902618408203, 5.78515625) (-0.00011539148712158202, 5.787109375) (-0.00011321331787109375, 5.7890625) (-0.00011105860900878906, 5.791015625) (-0.00010891307830810546, 5.79296875) (-0.00010677101135253905, 5.794921875) (-0.00010462562561035156, 5.796875) (-0.00010247525787353516, 5.798828125) (-0.00010030880737304687, 5.80078125) (-9.810568237304687e-05, 5.802734375) (-9.584584045410155e-05, 5.8046875) (-9.35099639892578e-05, 5.806640625) (-9.108052062988281e-05, 5.80859375) (-8.854336547851562e-05, 5.810546875) (-8.588300323486328e-05, 5.8125) (-8.308197784423828e-05, 5.814453125) (-8.012864685058593e-05, 5.81640625) (-7.70159454345703e-05, 5.818359375) (-7.374137878417968e-05, 5.8203125) (-7.030738830566406e-05, 5.822265625) (-6.671299743652344e-05, 5.82421875) (-6.29546241760254e-05, 5.826171875) (-5.9030029296875e-05, 5.828125) (-5.4937744140625e-05, 5.830078125) (-5.06787109375e-05, 5.83203125) (-4.6256553649902344e-05, 5.833984375) (-4.16751708984375e-05, 5.8359375) (-3.693910217285156e-05, 5.837890625) (-3.205646514892578e-05, 5.83984375) (-2.703846549987793e-05, 5.841796875) (-2.1898889541625977e-05, 5.84375) (-1.6653966903686523e-05, 5.845703125) (-1.1320501327514648e-05, 5.84765625) (-5.915869235992431e-06, 5.849609375) (-4.588779807090759e-07, 5.8515625) (5.030200481414795e-06, 5.853515625) (1.0529837608337402e-05, 5.85546875) (1.601746940612793e-05, 5.857421875) (2.1469766616821287e-05, 5.859375) (2.686260986328125e-05, 5.861328125) (3.2170936584472655e-05, 5.86328125) (3.736867523193359e-05, 5.865234375) (4.242900085449219e-05, 5.8671875) (4.732509994506836e-05, 5.869140625) (5.203034210205078e-05, 5.87109375) (5.6518478393554686e-05, 5.873046875) (6.0763916015625e-05, 5.875) (6.474165344238281e-05, 5.876953125) (6.842776489257812e-05, 5.87890625) (7.17997817993164e-05, 5.880859375) (7.483686828613281e-05, 5.8828125) (7.751985931396483e-05, 5.884765625) (7.983123779296875e-05, 5.88671875) (8.175509643554688e-05, 5.888671875) (8.327751159667969e-05, 5.890625) (8.438702392578124e-05, 5.892578125) (8.507445526123047e-05, 5.89453125) (8.533312988281249e-05, 5.896484375) (8.515896606445312e-05, 5.8984375) (8.455007171630859e-05, 5.900390625) (8.350746154785156e-05, 5.90234375) (8.203529357910156e-05, 5.904296875) (8.014041137695312e-05, 5.90625) (7.783209991455078e-05, 5.908203125) (7.512203979492188e-05, 5.91015625) (7.202377319335937e-05, 5.912109375) (6.855278778076172e-05, 5.9140625) (6.472693634033203e-05, 5.916015625) (6.0566017150878905e-05, 5.91796875) (5.609147262573242e-05, 5.919921875) (5.132637786865234e-05, 5.921875) (4.6295211791992184e-05, 5.923828125) (4.1023841857910155e-05, 5.92578125) (3.553981399536133e-05, 5.927734375) (2.9872001647949217e-05, 5.9296875) (2.4049839019775388e-05, 5.931640625) (1.8103031158447265e-05, 5.93359375) (1.2061120986938475e-05, 5.935546875) (5.953345298767089e-06, 5.9375) (-1.909661293029785e-07, 5.939453125) (-6.342823982238769e-06, 5.94140625) (-1.247406768798828e-05, 5.943359375) (-1.8557262420654297e-05, 5.9453125) (-2.4566162109374998e-05, 5.947265625) (-3.0475631713867186e-05, 5.94921875) (-3.626096343994141e-05, 5.951171875) (-4.189850616455078e-05, 5.953125) (-4.736653518676758e-05, 5.955078125) (-5.2644950866699214e-05, 5.95703125) (-5.7715747833251954e-05, 5.958984375) (-6.256336975097656e-05, 5.9609375) (-6.717340087890624e-05, 5.962890625) (-7.15331802368164e-05, 5.96484375) (-7.5633056640625e-05, 5.966796875) (-7.9465576171875e-05, 5.96875) (-8.302540588378906e-05, 5.970703125) (-8.630945587158202e-05, 5.97265625) (-8.931584167480469e-05, 5.974609375) (-9.204411315917969e-05, 5.9765625) (-9.44968032836914e-05, 5.978515625) (-9.667906188964844e-05, 5.98046875) (-9.859782409667968e-05, 5.982421875) (-0.0001002617950439453, 5.984375) (-0.00010168135833740234, 5.986328125) (-0.00010286888122558593, 5.98828125) (-0.0001038399200439453, 5.990234375) (-0.00010461309814453125, 5.9921875) (-0.00010520799255371093, 5.994140625) (-0.00010564439392089843, 5.99609375) (-0.00010594252777099609, 5.998046875) (-0.00010612327575683593, 6.0) (-0.00010620819091796874, 6.001953125) (-0.00010621920013427734, 6.00390625) (-0.0001061762466430664, 6.005859375) (-0.00010609642028808593, 6.0078125) (-0.00010599630737304688, 6.009765625) (-0.00010589271545410156, 6.01171875) (-0.0001058039321899414, 6.013671875) (-0.00010574990844726562, 6.015625) (-0.0001057486114501953, 6.017578125) (-0.00010581556701660156, 6.01953125) (-0.00010596549224853515, 6.021484375) (-0.0001062110595703125, 6.0234375) (-0.00010656436920166015, 6.025390625) (-0.00010703744506835938, 6.02734375) (-0.00010763317871093749, 6.029296875) (-0.00010834535980224608, 6.03125) (-0.00010917058563232421, 6.033203125) (-0.00011010492706298828, 6.03515625) (-0.00011115005493164062, 6.037109375) (-0.00011232044982910156, 6.0390625) (-0.00011362011718749999, 6.041015625) (-0.00011504168701171874, 6.04296875) (-0.00011658062744140624, 6.044921875) (-0.00011822584533691406, 6.046875) (-0.00011995704650878905, 6.048828125) (-0.00012175346374511719, 6.05078125) (-0.00012357403564453124, 6.052734375) (-0.00012535520935058592, 6.0546875) (-0.00012704423522949217, 6.056640625) (-0.00012859051513671875, 6.05859375) (-0.00012995541381835937, 6.060546875) (-0.00013112628173828124, 6.0625) (-0.00013207095336914063, 6.064453125) (-0.0001327490997314453, 6.06640625) (-0.00013312054443359375, 6.068359375) (-0.00013311935424804687, 6.0703125) (-0.00013270327758789063, 6.072265625) (-0.00013185772705078124, 6.07421875) (-0.0001305445556640625, 6.076171875) (-0.0001287344970703125, 6.078125) (-0.00012644712829589845, 6.080078125) (-0.00012371557617187499, 6.08203125) (-0.00012063163757324218, 6.083984375) (-0.00011735038757324218, 6.0859375) (-0.00011396344757080078, 6.087890625) (-0.00011055133056640624, 6.08984375) (-0.00010720974731445311, 6.091796875) (-0.00010400135803222656, 6.09375) (-0.00010104981994628906, 6.095703125) (-9.847904205322266e-05, 6.09765625) (-9.633795928955077e-05, 6.099609375) (-9.471932983398437e-05, 6.1015625) (-9.37442169189453e-05, 6.103515625) (-9.34829864501953e-05, 6.10546875) (-9.399331665039062e-05, 6.107421875) (-9.513497161865234e-05, 6.109375) (-9.642012786865234e-05, 6.111328125) (-9.730706787109375e-05, 6.11328125) (-9.729273986816405e-05, 6.115234375) (-9.578267669677733e-05, 6.1171875) (-9.220358276367187e-05, 6.119140625) (-8.602103424072265e-05, 6.12109375) (-7.686743927001952e-05, 6.123046875) (-6.514295959472656e-05, 6.125) (-5.20257568359375e-05, 6.126953125) (-3.890141677856445e-05, 6.12890625) (-2.6962337493896484e-05, 6.130859375) (-1.7344406127929686e-05, 6.1328125) (-1.1421493530273436e-05, 6.134765625) (-1.0544864654541015e-05, 6.13671875) (-1.5536260604858397e-05, 6.138671875) (-2.4077850341796875e-05, 6.140625) (-3.099137115478516e-05, 6.142578125) (-3.1775924682617185e-05, 6.14453125) (-2.344673728942871e-05, 6.146484375) (-8.16341495513916e-06, 6.1484375) (9.481740951538086e-06, 6.150390625) (3.129769325256348e-05, 6.15234375) (6.418533325195313e-05, 6.154296875) (0.0001196789321899414, 6.15625) (0.00020948980712890623, 6.158203125) (0.00033342889404296876, 6.16015625) (0.00048228759765625, 6.162109375) (0.0006427657470703125, 6.1640625) (0.0008000164794921875, 6.166015625) (0.0009438905639648438, 6.16796875) (0.0010642596435546875, 6.169921875) (0.001147692138671875, 6.171875) (0.001177101806640625, 6.173828125) (0.00113591064453125, 6.17578125) (0.0010181525268554688, 6.177734375) (0.0008283108520507812, 6.1796875) (0.0005847946166992187, 6.181640625) (0.000316574462890625, 6.18359375) (5.208214569091797e-05, 6.185546875) (-0.00017926942443847655, 6.1875) (-0.00035328698730468746, 6.189453125) (-0.0004572783203125, 6.19140625) (-0.00048782269287109373, 6.193359375) (-0.00045473522949218746, 6.1953125) (-0.0003796199035644531, 6.197265625) (-0.00028812982177734374, 6.19921875) (-0.0002044388732910156, 6.201171875) (-0.0001435792236328125, 6.203125) (-0.00010789892578124999, 6.205078125) (-8.95443878173828e-05, 6.20703125) (-7.578650665283203e-05, 6.208984375) (-5.842612838745117e-05, 6.2109375) (-3.670802307128906e-05, 6.212890625) (-1.580891227722168e-05, 6.21484375) (-4.121809959411621e-06, 6.216796875) (-5.679963111877441e-06, 6.21875) (-1.8746158599853516e-05, 6.220703125) (-3.8594329833984374e-05, 6.22265625) (-5.89373550415039e-05, 6.224609375) (-7.534619140625e-05, 6.2265625) (-8.632115173339843e-05, 6.228515625) (-9.169142150878905e-05, 6.23046875) (-9.197776794433593e-05, 6.232421875) (-8.797036743164061e-05, 6.234375) (-8.071145629882812e-05, 6.236328125) (-7.156205749511718e-05, 6.23828125) (-6.208110427856445e-05, 6.240234375) (-5.3925155639648436e-05, 6.2421875) (-4.8044647216796876e-05, 6.244140625) (-4.471763229370117e-05, 6.24609375) (-4.403051376342773e-05, 6.248046875) (-4.5687377929687496e-05, 6.25) (-4.9199256896972656e-05, 6.251953125) (-5.409648895263672e-05, 6.25390625) (-5.9683994293212886e-05, 6.255859375) (-6.516770935058593e-05, 6.2578125) (-7.011419677734374e-05, 6.259765625) (-7.432662963867187e-05, 6.26171875) (-7.771487426757813e-05, 6.263671875) (-8.037026977539062e-05, 6.265625) (-8.233522033691406e-05, 6.267578125) (-8.358769226074219e-05, 6.26953125) (-8.42084503173828e-05, 6.271484375) (-8.430318450927735e-05, 6.2734375) (-8.392924499511719e-05, 6.275390625) (-8.314115905761718e-05, 6.27734375) (-8.195368194580078e-05, 6.279296875) (-8.035115051269531e-05, 6.28125) (-7.837786102294921e-05, 6.283203125) (-7.610920715332031e-05, 6.28515625) (-7.363087463378906e-05, 6.287109375) (-7.104383850097656e-05, 6.2890625) (-6.840696716308593e-05, 6.291015625) (-6.574514007568358e-05, 6.29296875) (-6.308084869384765e-05, 6.294921875) (-6.042148971557617e-05, 6.296875) (-5.7769538879394526e-05, 6.298828125) (-5.5127502441406246e-05, 6.30078125) (-5.247589111328125e-05, 6.302734375) (-4.978491973876953e-05, 6.3046875) (-4.703670501708984e-05, 6.306640625) (-4.421645355224609e-05, 6.30859375) (-4.131406021118164e-05, 6.310546875) (-3.8324306488037106e-05, 6.3125) (-3.523044967651367e-05, 6.314453125) (-3.201004409790039e-05, 6.31640625) (-2.8642826080322265e-05, 6.318359375) (-2.5108043670654296e-05, 6.3203125) (-2.139301300048828e-05, 6.322265625) (-1.7493249893188475e-05, 6.32421875) (-1.3405426979064941e-05, 6.326171875) (-9.130005836486815e-06, 6.328125) (-4.672399520874023e-06, 6.330078125) (-4.05731201171875e-08, 6.33203125) 