(-0.00012968411254882811, 0.0) (-0.0001238123550415039, 0.001953125) (-0.00011782140350341796, 0.00390625) (-0.00011173455810546874, 0.005859375) (-0.00010557568359375, 0.0078125) (-9.936901092529297e-05, 0.009765625) (-9.313902282714843e-05, 0.01171875) (-8.691021728515625e-05, 0.013671875) (-8.070702362060547e-05, 0.015625) (-7.455358123779297e-05, 0.017578125) (-6.847370147705078e-05, 0.01953125) (-6.249067687988281e-05, 0.021484375) (-5.6627140045166014e-05, 0.0234375) (-5.090491485595703e-05, 0.025390625) (-4.534489059448242e-05, 0.02734375) (-3.9966922760009763e-05, 0.029296875) (-3.478972244262695e-05, 0.03125) (-2.983075714111328e-05, 0.033203125) (-2.5106197357177733e-05, 0.03515625) (-2.063086700439453e-05, 0.037109375) (-1.641824722290039e-05, 0.0390625) (-1.248049545288086e-05, 0.041015625) (-8.828453063964843e-06, 0.04296875) (-5.4716358184814454e-06, 0.044921875) (-2.4182233810424804e-06, 0.046875) (3.249912858009338e-07, 0.048828125) (2.7526392936706543e-06, 0.05078125) (4.860830783843994e-06, 0.052734375) (6.647238731384277e-06, 0.0546875) (8.111178398132324e-06, 0.056640625) (9.25368881225586e-06, 0.05859375) (1.0077573776245117e-05, 0.060546875) (1.0587396621704101e-05, 0.0625) (1.0789433479309081e-05, 0.064453125) (1.0691630363464355e-05, 0.06640625) (1.0303537368774413e-05, 0.068359375) (9.636237144470214e-06, 0.0703125) (8.702265739440917e-06, 0.072265625) (7.515506267547607e-06, 0.07421875) (6.091103553771973e-06, 0.076171875) (4.445394039154052e-06, 0.078125) (2.5958447456359864e-06, 0.080078125) (5.609659552574157e-07, 0.08203125) (-1.6397870779037475e-06, 0.083984375) (-3.986145973205566e-06, 0.0859375) (-6.457170486450195e-06, 0.087890625) (-9.031366348266602e-06, 0.08984375) (-1.168680191040039e-05, 0.091796875) (-1.4401227951049804e-05, 0.09375) (-1.7152170181274415e-05, 0.095703125) (-1.9917028427124023e-05, 0.09765625) (-2.2673149108886718e-05, 0.099609375) (-2.5397857666015625e-05, 0.1015625) (-2.806848907470703e-05, 0.103515625) (-3.066244506835938e-05, 0.10546875) (-3.315724182128906e-05, 0.107421875) (-3.5530616760253906e-05, 0.109375) (-3.776068115234375e-05, 0.111328125) (-3.982598114013672e-05, 0.11328125) (-4.1705711364746095e-05, 0.115234375) (-4.337982940673828e-05, 0.1171875) (-4.482927703857422e-05, 0.119140625) (-4.603612518310547e-05, 0.12109375) (-4.6983760833740235e-05, 0.123046875) (-4.765699005126953e-05, 0.125) (-4.804212188720703e-05, 0.126953125) (-4.8127044677734374e-05, 0.12890625) (-4.790131378173828e-05, 0.130859375) (-4.735619735717773e-05, 0.1328125) (-4.6484748840332026e-05, 0.134765625) (-4.5281837463378907e-05, 0.13671875) (-4.374413681030273e-05, 0.138671875) (-4.18702278137207e-05, 0.140625) (-3.966060256958008e-05, 0.142578125) (-3.7117713928222655e-05, 0.14453125) (-3.424592590332031e-05, 0.146484375) (-3.105151748657226e-05, 0.1484375) (-2.7542583465576172e-05, 0.150390625) (-2.37289981842041e-05, 0.15234375) (-1.962235641479492e-05, 0.154296875) (-1.5235906600952148e-05, 0.15625) (-1.0584497451782226e-05, 0.158203125) (-5.68449592590332e-06, 0.16015625) (-5.537478923797607e-07, 0.162109375) (4.788455963134765e-06, 0.1640625) (1.0321412086486816e-05, 0.166015625) (1.602305221557617e-05, 0.16796875) (2.187002944946289e-05, 0.169921875) (2.783783721923828e-05, 0.171875) (3.3900962829589844e-05, 0.173828125) (4.003302001953125e-05, 0.17578125) (4.620692443847656e-05, 0.177734375) (5.2395088195800776e-05, 0.1796875) (5.856962585449219e-05, 0.181640625) (6.470262908935547e-05, 0.18359375) (7.076632690429687e-05, 0.185546875) (7.67332763671875e-05, 0.1875) (8.257655334472656e-05, 0.189453125) (8.826985168457031e-05, 0.19140625) (9.378770446777344e-05, 0.193359375) (9.91056671142578e-05, 0.1953125) (0.00010420034790039062, 0.197265625) (0.00010904969787597656, 0.19921875) (0.00011363294219970702, 0.201171875) (0.00011793087005615233, 0.203125) (0.00012192588806152343, 0.205078125) (0.00012560218811035156, 0.20703125) (0.00012894577026367188, 0.208984375) (0.0001319445343017578, 0.2109375) (0.00013458828735351562, 0.212890625) (0.00013686875915527343, 0.21484375) (0.00013877972412109374, 0.216796875) (0.00014031687927246094, 0.21875) (0.00014147799682617186, 0.220703125) (0.00014226283264160157, 0.22265625) (0.00014267306518554686, 0.224609375) (0.0001427124328613281, 0.2265625) (0.00014238665771484373, 0.228515625) (0.0001417035217285156, 0.23046875) (0.00014067277526855467, 0.232421875) (0.0001393059387207031, 0.234375) (0.00013761631774902343, 0.236328125) (0.00013561878967285155, 0.23828125) (0.0001333297119140625, 0.240234375) (0.00013076690673828123, 0.2421875) (0.0001279491958618164, 0.244140625) (0.00012489639282226562, 0.24609375) (0.00012162899780273437, 0.248046875) (0.00011816815185546875, 0.25) (0.00011453546142578125, 0.251953125) (0.00011075289154052734, 0.25390625) (0.00010684249114990234, 0.255859375) (0.00010282626342773437, 0.2578125) (9.872598266601562e-05, 0.259765625) (9.456315612792969e-05, 0.26171875) (9.035882568359374e-05, 0.263671875) (8.613356018066406e-05, 0.265625) (8.190715026855468e-05, 0.267578125) (7.769840240478515e-05, 0.26953125) (7.352513885498046e-05, 0.271484375) (6.94041519165039e-05, 0.2734375) (6.53510971069336e-05, 0.275390625) (6.13803939819336e-05, 0.27734375) (5.7505126953125e-05, 0.279296875) (5.373681259155273e-05, 0.28125) (5.0085521697998047e-05, 0.283203125) (4.655987930297851e-05, 0.28515625) (4.31669692993164e-05, 0.287109375) (3.991236114501953e-05, 0.2890625) (3.679995727539062e-05, 0.291015625) (3.383184051513672e-05, 0.29296875) (3.100845718383789e-05, 0.294921875) (2.8328739166259766e-05, 0.296875) (2.579018211364746e-05, 0.298828125) (2.3389007568359374e-05, 0.30078125) (2.1120115280151366e-05, 0.302734375) (1.897703170776367e-05, 0.3046875) (1.6952287673950196e-05, 0.306640625) (1.5037672042846679e-05, 0.30859375) (1.3224323272705077e-05, 0.310546875) (1.150291633605957e-05, 0.3125) (9.863556861877441e-06, 0.314453125) (8.295662879943847e-06, 0.31640625) (6.788405418395996e-06, 0.318359375) (5.331062316894531e-06, 0.3203125) (3.912883281707764e-06, 0.322265625) (2.5232462882995604e-06, 0.32421875) (1.1515893936157225e-06, 0.326171875) (-2.1274301409721375e-07, 0.328125) (-1.5799628496170043e-06, 0.330078125) (-2.9595613479614257e-06, 0.33203125) (-4.360424518585205e-06, 0.333984375) (-5.790783405303955e-06, 0.3359375) (-7.258111953735351e-06, 0.337890625) (-8.769227027893066e-06, 0.33984375) (-1.0329934120178223e-05, 0.341796875) (-1.1944538116455078e-05, 0.34375) (-1.3616128921508788e-05, 0.345703125) (-1.534663772583008e-05, 0.34765625) (-1.7136812210083007e-05, 0.349609375) (-1.898645782470703e-05, 0.3515625) (-2.0894424438476563e-05, 0.353515625) (-2.2857997894287108e-05, 0.35546875) (-2.487238311767578e-05, 0.357421875) (-2.693174934387207e-05, 0.359375) (-2.902978515625e-05, 0.361328125) (-3.115886688232422e-05, 0.36328125) (-3.331229400634766e-05, 0.365234375) (-3.5482360839843747e-05, 0.3671875) (-3.765571594238281e-05, 0.369140625) (-3.981907272338867e-05, 0.37109375) (-4.1961193084716795e-05, 0.373046875) (-4.4069587707519526e-05, 0.375) (-4.613506317138672e-05, 0.376953125) (-4.815131378173828e-05, 0.37890625) (-5.0099533081054684e-05, 0.380859375) (-5.196076202392578e-05, 0.3828125) (-5.374027252197265e-05, 0.384765625) (-5.543992233276367e-05, 0.38671875) (-5.70594482421875e-05, 0.388671875) (-5.860526275634765e-05, 0.390625) (-6.0053955078124994e-05, 0.392578125) (-6.137093734741211e-05, 0.39453125) (-6.257137298583984e-05, 0.396484375) (-6.367250823974609e-05, 0.3984375) (-6.461664581298828e-05, 0.400390625) (-6.53609390258789e-05, 0.40234375) (-6.587357330322266e-05, 0.404296875) (-6.610844421386719e-05, 0.40625) (-6.611184692382812e-05, 0.408203125) (-6.597257995605468e-05, 0.41015625) (-6.565377807617187e-05, 0.412109375) (-6.508282470703125e-05, 0.4140625) (-6.448638916015624e-05, 0.416015625) (-6.413194274902343e-05, 0.41796875) (-6.387867736816406e-05, 0.419921875) (-6.375111007690429e-05, 0.421875) (-6.380877685546874e-05, 0.423828125) (-6.351514053344726e-05, 0.42578125) (-6.436405944824218e-05, 0.427734375) (-6.781422424316406e-05, 0.4296875) (-7.182769012451171e-05, 0.431640625) (-7.579656219482421e-05, 0.43359375) (-7.595887756347656e-05, 0.435546875) (-6.780753326416015e-05, 0.4375) (-5.6362548828124996e-05, 0.439453125) (-4.4977272033691404e-05, 0.44140625) (-3.863130950927734e-05, 0.443359375) (-4.4150886535644526e-05, 0.4453125) (-5.550443649291992e-05, 0.447265625) (-6.758367919921875e-05, 0.44921875) (-7.689958190917968e-05, 0.451171875) (-7.769004821777344e-05, 0.453125) (-7.412459564208983e-05, 0.455078125) (-7.041539764404296e-05, 0.45703125) (-6.750360107421875e-05, 0.458984375) (-6.79486083984375e-05, 0.4609375) (-7.025804901123046e-05, 0.462890625) (-7.251271057128906e-05, 0.46484375) (-7.504878234863281e-05, 0.466796875) (-7.756875610351563e-05, 0.46875) (-8.014353942871094e-05, 0.470703125) (-8.310302734374999e-05, 0.47265625) (-8.614737701416015e-05, 0.474609375) (-8.904755401611328e-05, 0.4765625) (-9.183482360839843e-05, 0.478515625) (-9.446652221679686e-05, 0.48046875) (-9.68406982421875e-05, 0.482421875) (-9.886577606201171e-05, 0.484375) (-0.00010047433471679687, 0.486328125) (-0.0001016290283203125, 0.48828125) (-0.00010234089660644531, 0.490234375) (-0.0001026360092163086, 0.4921875) (-0.00010249813842773437, 0.494140625) (-0.00010194158935546874, 0.49609375) (-0.00010104804992675781, 0.498046875) (-9.993952941894531e-05, 0.5) (-9.876864624023437e-05, 0.501953125) (-9.768450927734375e-05, 0.50390625) (-9.681770324707031e-05, 0.505859375) (-9.631107330322266e-05, 0.5078125) (-9.631839752197265e-05, 0.509765625) (-9.698936462402343e-05, 0.51171875) (-9.85499038696289e-05, 0.513671875) (-0.00010128741455078124, 0.515625) (-0.00010534950256347656, 0.517578125) (-0.00011071180725097656, 0.51953125) (-0.00011713365936279297, 0.521484375) (-0.00012411195373535156, 0.5234375) (-0.00013113623046875, 0.525390625) (-0.00013777841186523438, 0.52734375) (-0.0001434356689453125, 0.529296875) (-0.00014735467529296875, 0.53125) (-0.00014904324340820311, 0.533203125) (-0.00014839385986328125, 0.53515625) (-0.00014597744750976561, 0.537109375) (-0.00014308822631835938, 0.5390625) (-0.00014101425170898437, 0.541015625) (-0.00014069810485839844, 0.54296875) (-0.00014294174194335937, 0.544921875) (-0.00014841893005371093, 0.546875) (-0.0001572732696533203, 0.548828125) (-0.00016893902587890625, 0.55078125) (-0.00018150190734863282, 0.552734375) (-0.0001916117706298828, 0.5546875) (-0.00019548788452148437, 0.556640625) (-0.000189497314453125, 0.55859375) (-0.00017036369323730467, 0.560546875) (-0.0001350735626220703, 0.5625) (-8.130755615234374e-05, 0.564453125) (-7.837562561035156e-06, 0.56640625) (8.465391540527344e-05, 0.568359375) (0.00019319132995605467, 0.5703125) (0.00031325097656249997, 0.572265625) (0.00043922790527343747, 0.57421875) (0.0005648021240234375, 0.576171875) (0.00068270361328125, 0.578125) (0.0007854039306640625, 0.580078125) (0.0008658395996093749, 0.58203125) (0.0009181796874999999, 0.583984375) (0.0009386987915039062, 0.5859375) (0.0009255220336914062, 0.587890625) (0.0008786611328124999, 0.58984375) (0.0008003031616210937, 0.591796875) (0.0006953134155273437, 0.59375) (0.0005704448852539062, 0.595703125) (0.00043359765624999996, 0.59765625) (0.000293171630859375, 0.599609375) (0.0001570104064941406, 0.6015625) (3.249805450439453e-05, 0.603515625) (-7.391871643066405e-05, 0.60546875) (-0.00015779382324218749, 0.607421875) (-0.00021752549743652344, 0.609375) (-0.00025390957641601564, 0.611328125) (-0.00026956939697265624, 0.61328125) (-0.0002683762512207031, 0.615234375) (-0.0002546819610595703, 0.6171875) (-0.00023351248168945312, 0.619140625) (-0.00021014775085449218, 0.62109375) (-0.000189098388671875, 0.623046875) (-0.00017307269287109375, 0.625) (-0.00016299296569824217, 0.626953125) (-0.0001585716552734375, 0.62890625) (-0.00015881256103515625, 0.630859375) (-0.00016246279907226562, 0.6328125) (-0.0001678917541503906, 0.634765625) (-0.00017310606384277343, 0.63671875) (-0.0001761870574951172, 0.638671875) (-0.00017616424560546875, 0.640625) (-0.00017312359619140624, 0.642578125) (-0.00016769979858398436, 0.64453125) (-0.00016078775024414062, 0.646484375) (-0.00015319779968261718, 0.6484375) (-0.0001456042022705078, 0.650390625) (-0.00013878204345703124, 0.65234375) (-0.00013355039978027344, 0.654296875) (-0.0001303272705078125, 0.65625) (-0.00012912301635742188, 0.658203125) (-0.00012972447204589844, 0.66015625) (-0.0001317142333984375, 0.662109375) (-0.00013472062683105468, 0.6640625) (-0.0001384928741455078, 0.666015625) (-0.00014273060607910155, 0.66796875) (-0.00014710458374023438, 0.669921875) (-0.0001513362579345703, 0.671875) (-0.00015513343811035155, 0.673828125) (-0.0001582416534423828, 0.67578125) (-0.0001605323486328125, 0.677734375) (-0.0001619067687988281, 0.6796875) (-0.00016228916931152344, 0.681640625) (-0.00016165496826171875, 0.68359375) (-0.00015997105407714843, 0.685546875) (-0.00015723374938964843, 0.6875) (-0.00015351046752929687, 0.689453125) (-0.00014889225769042967, 0.69140625) (-0.00014347406005859375, 0.693359375) (-0.00013735488891601562, 0.6953125) (-0.0001306123046875, 0.697265625) (-0.0001233190002441406, 0.69921875) (-0.00011557450103759766, 0.701171875) (-0.00010748796081542968, 0.703125) (-9.917821502685547e-05, 0.705078125) (-9.07655792236328e-05, 0.70703125) (-8.233290100097656e-05, 0.708984375) (-7.393814086914062e-05, 0.7109375) (-6.562960052490234e-05, 0.712890625) (-5.7440021514892575e-05, 0.71484375) (-4.93970718383789e-05, 0.716796875) (-4.151688385009766e-05, 0.71875) (-3.378998184204101e-05, 0.720703125) (-2.6195350646972655e-05, 0.72265625) (-1.8720382690429686e-05, 0.724609375) (-1.1357942581176757e-05, 0.7265625) (-4.106884479522705e-06, 0.728515625) (3.030667781829834e-06, 0.73046875) (1.0063751220703124e-05, 0.732421875) (1.7005741119384765e-05, 0.734375) (2.386747360229492e-05, 0.736328125) (3.0660541534423825e-05, 0.73828125) (3.739282989501953e-05, 0.740234375) (4.4069747924804685e-05, 0.7421875) (5.069886016845703e-05, 0.744140625) (5.728689575195312e-05, 0.74609375) (6.383702087402344e-05, 0.748046875) (7.035099792480468e-05, 0.75) (7.68287124633789e-05, 0.751953125) (8.326919555664062e-05, 0.75390625) (8.967584228515625e-05, 0.755859375) (9.605450439453124e-05, 0.7578125) (0.00010241154479980468, 0.759765625) (0.00010875469970703124, 0.76171875) (0.00011509140014648437, 0.763671875) (0.0001214287872314453, 0.765625) (0.00012777421569824219, 0.767578125) (0.00013413357543945313, 0.76953125) (0.00014051004028320312, 0.771484375) (0.00014690483093261718, 0.7734375) (0.00015331661987304687, 0.775390625) (0.00015974139404296875, 0.77734375) (0.00016617285156249998, 0.779296875) (0.00017260092163085938, 0.78125) (0.00017901293945312498, 0.783203125) (0.0001853950958251953, 0.78515625) (0.00019173150634765624, 0.787109375) (0.00019800396728515625, 0.7890625) (0.00020419262695312498, 0.791015625) (0.00021027528381347655, 0.79296875) (0.00021622833251953123, 0.794921875) (0.00022202883911132812, 0.796875) (0.00022765164184570313, 0.798828125) (0.00023306802368164062, 0.80078125) (0.00023824598693847655, 0.802734375) (0.00024315039062499999, 0.8046875) (0.00024774472045898435, 0.806640625) (0.0002519926300048828, 0.80859375) (0.00025585662841796876, 0.810546875) (0.0002592961730957031, 0.8125) (0.00026226824951171876, 0.814453125) (0.00026472772216796874, 0.81640625) (0.00026663238525390624, 0.818359375) (0.0002679439392089844, 0.8203125) (0.00026861962890625, 0.822265625) (0.00026861279296875, 0.82421875) (0.00026786962890625, 0.826171875) (0.00026633044433593746, 0.828125) (0.0002639472961425781, 0.830078125) (0.00026068710327148436, 0.83203125) (0.00025652349853515623, 0.833984375) (0.00025143716430664064, 0.8359375) (0.0002454190216064453, 0.837890625) (0.00023846823120117188, 0.83984375) (0.00023060461425781248, 0.841796875) (0.00022187072753906248, 0.84375) (0.00021230584716796873, 0.845703125) (0.0002019417724609375, 0.84765625) (0.00019079730224609375, 0.849609375) (0.0001788802490234375, 0.8515625) (0.0001662129669189453, 0.853515625) (0.00015283294677734374, 0.85546875) (0.00013879026794433593, 0.857421875) (0.00012413597106933593, 0.859375) (0.00010889297485351562, 0.861328125) (9.305953979492187e-05, 0.86328125) (7.663179779052734e-05, 0.865234375) (5.95987548828125e-05, 0.8671875) (4.192633819580078e-05, 0.869140625) (2.355655288696289e-05, 0.87109375) (4.382702350616455e-06, 0.873046875) (-1.5730358123779296e-05, 0.875) (-3.6875324249267574e-05, 0.876953125) (-5.909723663330078e-05, 0.87890625) (-8.239349365234374e-05, 0.880859375) (-0.0001067261962890625, 0.8828125) (-0.00013206138610839842, 0.884765625) (-0.00015836486816406248, 0.88671875) (-0.00018558630371093748, 0.888671875) (-0.00021363795471191405, 0.890625) (-0.00024237583923339843, 0.892578125) (-0.00027161779785156247, 0.89453125) (-0.00030117376708984375, 0.896484375) (-0.000330827880859375, 0.8984375) (-0.00036031121826171874, 0.900390625) (-0.00038929522705078123, 0.90234375) (-0.00041736657714843746, 0.904296875) (-0.0004440928344726562, 0.90625) (-0.0004691197509765625, 0.908203125) (-0.0004921669311523438, 0.91015625) (-0.0005130233154296875, 0.912109375) (-0.0005315225219726563, 0.9140625) (-0.0005475063476562499, 0.916015625) (-0.000560842529296875, 0.91796875) (-0.0005714513549804687, 0.919921875) (-0.00057931787109375, 0.921875) (-0.0005844862060546875, 0.923828125) (-0.0005870338134765625, 0.92578125) (-0.000587047607421875, 0.927734375) (-0.0005846595458984375, 0.9296875) (-0.0005800738525390625, 0.931640625) (-0.0005735765991210937, 0.93359375) (-0.000565548583984375, 0.935546875) (-0.0005563706054687499, 0.9375) (-0.0005463477783203125, 0.939453125) (-0.00053572802734375, 0.94140625) (-0.0005247080078125, 0.943359375) (-0.0005134602661132812, 0.9453125) (-0.0005021544189453125, 0.947265625) (-0.0004909289550781249, 0.94921875) (-0.0004798689575195312, 0.951171875) (-0.00046901962280273434, 0.953125) (-0.00045840631103515625, 0.955078125) (-0.0004480541687011719, 0.95703125) (-0.00043799691772460937, 0.958984375) (-0.0004282360229492187, 0.9609375) (-0.00041872509765625, 0.962890625) (-0.00040936605834960936, 0.96484375) (-0.0004000091552734375, 0.966796875) (-0.0003905299377441406, 0.96875) (-0.0003808584289550781, 0.970703125) (-0.00037095516967773433, 0.97265625) (-0.00036081054687499997, 0.974609375) (-0.00035042706298828126, 0.9765625) (-0.00033981149291992187, 0.978515625) (-0.0003289995727539062, 0.98046875) (-0.00031806109619140626, 0.982421875) (-0.00030707095336914063, 0.984375) (-0.000296097412109375, 0.986328125) (-0.00028519491577148437, 0.98828125) (-0.00027440460205078126, 0.990234375) (-0.00026378411865234374, 0.9921875) (-0.0002534076995849609, 0.994140625) (-0.000243362548828125, 0.99609375) (-0.00023374737548828125, 0.998046875) (-0.00022463769531249998, 1.0) (-0.0002160845947265625, 1.001953125) (-0.00020813041687011718, 1.00390625) (-0.00020079640197753906, 1.005859375) (-0.00019408627319335937, 1.0078125) (-0.00018799938964843748, 1.009765625) (-0.00018251593017578124, 1.01171875) (-0.00017760638427734374, 1.013671875) (-0.0001732543182373047, 1.015625) (-0.00016943814086914063, 1.017578125) (-0.0001661304016113281, 1.01953125) (-0.00016330731201171875, 1.021484375) (-0.00016093365478515623, 1.0234375) (-0.00015895941162109373, 1.025390625) (-0.00015732562255859375, 1.02734375) (-0.0001559501953125, 1.029296875) (-0.00015473190307617186, 1.03125) (-0.0001535758819580078, 1.033203125) (-0.00015238555908203124, 1.03515625) (-0.00015108096313476562, 1.037109375) (-0.00014960452270507813, 1.0390625) (-0.0001478820343017578, 1.041015625) (-0.00014583596801757813, 1.04296875) (-0.00014337985229492188, 1.044921875) (-0.00014041090393066406, 1.046875) (-0.0001368577423095703, 1.048828125) (-0.00013268235778808593, 1.05078125) (-0.00012784019470214844, 1.052734375) (-0.00012228154754638672, 1.0546875) (-0.00011600382995605468, 1.056640625) (-0.00010904631042480469, 1.05859375) (-0.00010151038360595703, 1.060546875) (-9.35712432861328e-05, 1.0625) (-8.536278533935546e-05, 1.064453125) (-7.697246551513671e-05, 1.06640625) (-6.849159240722656e-05, 1.068359375) (-6.0022506713867184e-05, 1.0703125) (-5.170362854003906e-05, 1.072265625) (-4.3701644897460934e-05, 1.07421875) (-3.6188297271728514e-05, 1.076171875) (-2.9268949508666993e-05, 1.078125) (-2.3053619384765625e-05, 1.080078125) (-1.7691410064697266e-05, 1.08203125) (-1.3184305191040038e-05, 1.083984375) (-9.435198783874512e-06, 1.0859375) (-6.1410441398620604e-06, 1.087890625) (-2.663053274154663e-06, 1.08984375) (1.6727900505065918e-06, 1.091796875) (7.417551517486572e-06, 1.09375) (1.5216002464294432e-05, 1.095703125) (2.5722404479980466e-05, 1.09765625) (3.904922485351562e-05, 1.099609375) (5.50612907409668e-05, 1.1015625) (7.319963073730469e-05, 1.103515625) (9.205947875976562e-05, 1.10546875) (0.00011058425903320311, 1.107421875) (0.0001281793212890625, 1.109375) (0.00014387945556640624, 1.111328125) (0.00015698138427734374, 1.11328125) (0.00016789929199218748, 1.115234375) (0.00017757080078124998, 1.1171875) (0.00018793084716796875, 1.119140625) (0.0002024232177734375, 1.12109375) (0.0002237551574707031, 1.123046875) (0.00025402435302734373, 1.125) (0.000296063720703125, 1.126953125) (0.00035198907470703123, 1.12890625) (0.00042251046752929687, 1.130859375) (0.0005074683837890624, 1.1328125) (0.0006047093505859375, 1.134765625) (0.0007098630981445313, 1.13671875) (0.0008185108642578125, 1.138671875) (0.0009257460937499999, 1.140625) (0.00102529248046875, 1.142578125) (0.0011108326416015624, 1.14453125) (0.0011762003173828124, 1.146484375) (0.0012159681396484373, 1.1484375) (0.00122643994140625, 1.150390625) (0.001207133544921875, 1.15234375) (0.0011606614990234375, 1.154296875) (0.0010887404785156248, 1.15625) (0.0009936569213867188, 1.158203125) (0.00087696923828125, 1.16015625) (0.00073758056640625, 1.162109375) (0.000584068115234375, 1.1640625) (0.00043235083007812496, 1.166015625) (0.0002982993774414062, 1.16796875) (0.00020040310668945313, 1.169921875) (0.00014266156005859375, 1.171875) (0.00011400787353515625, 1.173828125) (0.00010428205871582031, 1.17578125) (0.00010068466186523437, 1.177734375) (9.728135681152344e-05, 1.1796875) (9.826152038574219e-05, 1.181640625) (0.0001033322296142578, 1.18359375) (0.00011076773071289062, 1.185546875) (0.00011855762481689452, 1.1875) (0.00012168132781982421, 1.189453125) (0.00011838221740722656, 1.19140625) (0.00010985989379882812, 1.193359375) (9.736071777343749e-05, 1.1953125) (8.29844512939453e-05, 1.197265625) (6.921888732910155e-05, 1.19921875) (5.787322616577148e-05, 1.201171875) (4.999402236938476e-05, 1.203125) (4.597931671142578e-05, 1.205078125) (4.533051300048828e-05, 1.20703125) (4.701462936401367e-05, 1.208984375) (5.01025276184082e-05, 1.2109375) (5.377796173095703e-05, 1.212890625) (5.711886596679687e-05, 1.21484375) (5.9294921874999994e-05, 1.216796875) (5.9838344573974604e-05, 1.21875) (5.8541076660156244e-05, 1.220703125) (5.5503219604492184e-05, 1.22265625) (5.105020141601562e-05, 1.224609375) (4.5457321166992186e-05, 1.2265625) (3.894680023193359e-05, 1.228515625) (3.175958251953125e-05, 1.23046875) (2.4132003784179688e-05, 1.232421875) (1.624587059020996e-05, 1.234375) (8.29722499847412e-06, 1.236328125) (4.916882514953613e-07, 1.23828125) (-6.991616725921631e-06, 1.240234375) (-1.3943340301513672e-05, 1.2421875) (-2.019574737548828e-05, 1.244140625) (-2.5654266357421872e-05, 1.24609375) (-3.0251930236816405e-05, 1.248046875) (-3.395714569091797e-05, 1.25) (-3.677520751953125e-05, 1.251953125) (-3.8740772247314454e-05, 1.25390625) (-3.991593170166015e-05, 1.255859375) (-4.0388931274414064e-05, 1.2578125) (-4.023941802978516e-05, 1.259765625) (-3.9529411315917965e-05, 1.26171875) (-3.831922149658203e-05, 1.263671875) (-3.6665199279785153e-05, 1.265625) (-3.464259338378906e-05, 1.267578125) (-3.234341812133789e-05, 1.26953125) (-2.986366844177246e-05, 1.271484375) (-2.7301723480224607e-05, 1.2734375) (-2.4730298995971677e-05, 1.275390625) (-2.2198108673095703e-05, 1.27734375) (-1.9742450714111326e-05, 1.279296875) (-1.738473129272461e-05, 1.28125) (-1.513262939453125e-05, 1.283203125) (-1.2982112884521484e-05, 1.28515625) (-1.0914545059204101e-05, 1.287109375) (-8.901947021484375e-06, 1.2890625) (-6.926042556762695e-06, 1.291015625) (-4.977360248565674e-06, 1.29296875) (-3.050055742263794e-06, 1.294921875) (-1.1424510478973387e-06, 1.296875) (7.518907785415649e-07, 1.298828125) (2.6415982246398925e-06, 1.30078125) (4.534166812896728e-06, 1.302734375) (6.437336921691894e-06, 1.3046875) (8.354951858520508e-06, 1.306640625) (1.0287639617919921e-05, 1.30859375) (1.223501968383789e-05, 1.310546875) (1.4193780899047851e-05, 1.3125) (1.6156982421875e-05, 1.314453125) (1.811558151245117e-05, 1.31640625) (2.0056385040283202e-05, 1.318359375) (2.1962678909301757e-05, 1.3203125) (2.3820261001586912e-05, 1.322265625) (2.5616554260253904e-05, 1.32421875) (2.7339132308959958e-05, 1.326171875) (2.8976703643798828e-05, 1.328125) (3.051690292358398e-05, 1.330078125) (3.1946140289306636e-05, 1.33203125) (3.325182342529297e-05, 1.333984375) (3.442202758789062e-05, 1.3359375) (3.544357299804687e-05, 1.337890625) (3.630242919921875e-05, 1.33984375) (3.6983863830566405e-05, 1.341796875) (3.7472599029541014e-05, 1.34375) (3.775407791137695e-05, 1.345703125) (3.781447601318359e-05, 1.34765625) (3.764055252075195e-05, 1.349609375) (3.72197265625e-05, 1.3515625) (3.6540214538574215e-05, 1.353515625) (3.559142303466797e-05, 1.35546875) (3.436417007446289e-05, 1.357421875) (3.285041046142578e-05, 1.359375) (3.104344367980957e-05, 1.361328125) (2.8938077926635742e-05, 1.36328125) (2.6530054092407225e-05, 1.365234375) (2.3816452026367187e-05, 1.3671875) (2.07960147857666e-05, 1.369140625) (1.7468868255615235e-05, 1.37109375) (1.3836747169494628e-05, 1.373046875) (9.903165817260742e-06, 1.375) (5.673323631286621e-06, 1.376953125) (1.1542987823486328e-06, 1.37890625) (-3.6444804668426513e-06, 1.380859375) (-8.71159553527832e-06, 1.3828125) (-1.4034180641174316e-05, 1.384765625) (-1.959822463989258e-05, 1.38671875) (-2.5388629913330076e-05, 1.388671875) (-3.138892745971679e-05, 1.390625) (-3.758164596557617e-05, 1.392578125) (-4.394844818115234e-05, 1.39453125) (-5.047043228149414e-05, 1.396484375) (-5.712883377075195e-05, 1.3984375) (-6.390439605712891e-05, 1.400390625) (-7.077681732177734e-05, 1.40234375) (-7.7725341796875e-05, 1.404296875) (-8.472935485839844e-05, 1.40625) (-9.17684097290039e-05, 1.408203125) (-9.882279968261719e-05, 1.41015625) (-0.00010587393188476562, 1.412109375) (-0.00011290321350097655, 1.4140625) (-0.0001198927001953125, 1.416015625) (-0.00012682617187499999, 1.41796875) (-0.0001336885528564453, 1.419921875) (-0.00014046588134765625, 1.421875) (-0.00014714561462402344, 1.423828125) (-0.00015371568298339842, 1.42578125) (-0.00016016433715820312, 1.427734375) (-0.0001664811553955078, 1.4296875) (-0.0001726573486328125, 1.431640625) (-0.00017868502807617185, 1.43359375) (-0.00018455798339843749, 1.435546875) (-0.00019027210998535157, 1.4375) (-0.00019582546997070312, 1.439453125) (-0.0002012195129394531, 1.44140625) (-0.0002064591369628906, 1.443359375) (-0.00021155114746093748, 1.4453125) (-0.00021650350952148435, 1.447265625) (-0.00022132498168945313, 1.44921875) (-0.00022602520751953124, 1.451171875) (-0.00023061459350585937, 1.453125) (-0.00023510273742675781, 1.455078125) (-0.00023949716186523435, 1.45703125) (-0.00024380380249023438, 1.458984375) (-0.00024802828979492186, 1.4609375) (-0.0002521781005859375, 1.462890625) (-0.00025626422119140625, 1.46484375) (-0.0002602981567382812, 1.466796875) (-0.00026428802490234375, 1.46875) (-0.000268240234375, 1.470703125) (-0.0002721597900390625, 1.47265625) (-0.000276050048828125, 1.474609375) (-0.0002799149780273437, 1.4765625) (-0.00028375665283203124, 1.478515625) (-0.00028756793212890625, 1.48046875) (-0.000291336669921875, 1.482421875) (-0.00029505624389648436, 1.484375) (-0.0002987263793945312, 1.486328125) (-0.00030235858154296875, 1.48828125) (-0.00030597384643554684, 1.490234375) (-0.0003095823059082031, 1.4921875) (-0.0003131800537109375, 1.494140625) (-0.00031675790405273434, 1.49609375) (-0.0003203031311035156, 1.498046875) (-0.00032379815673828124, 1.5) (-0.0003272181701660156, 1.501953125) (-0.00033051730346679684, 1.50390625) (-0.0003336248779296875, 1.505859375) (-0.0003364727172851562, 1.5078125) (-0.0003390008544921875, 1.509765625) (-0.00034116510009765623, 1.51171875) (-0.00034293594360351563, 1.513671875) (-0.0003442603454589844, 1.515625) (-0.0003450630493164062, 1.517578125) (-0.00034525372314453124, 1.51953125) (-0.0003447332763671875, 1.521484375) (-0.00034343688964843746, 1.5234375) (-0.0003413431091308594, 1.525390625) (-0.0003384383544921875, 1.52734375) (-0.0003347080993652344, 1.529296875) (-0.0003301764221191406, 1.53125) (-0.00032488336181640625, 1.533203125) (-0.00031890817260742186, 1.53515625) (-0.0003124259033203125, 1.537109375) (-0.0003056046142578125, 1.5390625) (-0.0002985943603515625, 1.541015625) (-0.00029157232666015626, 1.54296875) (-0.00028468319702148434, 1.544921875) (-0.00027806494140625, 1.546875) (-0.00027196661376953124, 1.548828125) (-0.0002666990966796875, 1.55078125) (-0.0002624254760742187, 1.552734375) (-0.0002591473388671875, 1.5546875) (-0.00025660275268554685, 1.556640625) (-0.0002542681427001953, 1.55859375) (-0.00025173413085937497, 1.560546875) (-0.00024870179748535156, 1.5625) (-0.00024473107910156247, 1.564453125) (-0.00023927500915527344, 1.56640625) (-0.00023195037841796873, 1.568359375) (-0.00022272660827636718, 1.5703125) (-0.0002123572998046875, 1.572265625) (-0.00020225546264648436, 1.57421875) (-0.0001935316925048828, 1.576171875) (-0.00018685772705078125, 1.578125) (-0.00018261938476562498, 1.580078125) (-0.00018093249511718748, 1.58203125) (-0.00018169122314453125, 1.583984375) (-0.00018427159118652344, 1.5859375) (-0.0001866233673095703, 1.587890625) (-0.00018548829650878905, 1.58984375) (-0.00017775393676757812, 1.591796875) (-0.00016060975646972655, 1.59375) (-0.00013187542724609375, 1.595703125) (-9.00324478149414e-05, 1.59765625) (-3.3735610961914064e-05, 1.599609375) (3.812121963500976e-05, 1.6015625) (0.00012516531372070311, 1.603515625) (0.00022493020629882812, 1.60546875) (0.0003343795471191406, 1.607421875) (0.00044826678466796874, 1.609375) (0.0005593818359375, 1.611328125) (0.0006633558349609374, 1.61328125) (0.0007562959594726562, 1.615234375) (0.0008358529663085937, 1.6171875) (0.0009046884155273437, 1.619140625) (0.0009578090209960938, 1.62109375) (0.00098541845703125, 1.623046875) (0.00097951806640625, 1.625) (0.0009266566162109374, 1.626953125) (0.0008281363525390624, 1.62890625) (0.0006973184204101562, 1.630859375) (0.0005458532104492187, 1.6328125) (0.0003969536437988281, 1.634765625) (0.000264281005859375, 1.63671875) (0.00015207774353027343, 1.638671875) (6.88312530517578e-05, 1.640625) (8.994248390197754e-06, 1.642578125) (-3.244985580444336e-05, 1.64453125) (-5.634218597412109e-05, 1.646484375) (-6.98208999633789e-05, 1.6484375) (-7.299980163574219e-05, 1.650390625) (-6.589793395996093e-05, 1.65234375) (-5.331108093261719e-05, 1.654296875) (-3.811307144165039e-05, 1.65625) (-2.4855846405029294e-05, 1.658203125) (-1.7219841003417967e-05, 1.66015625) (-1.551773643493652e-05, 1.662109375) (-1.9116840362548827e-05, 1.6640625) (-2.624222183227539e-05, 1.666015625) (-3.485094451904297e-05, 1.66796875) (-4.2913757324218745e-05, 1.669921875) (-4.823000717163086e-05, 1.671875) (-4.958914184570312e-05, 1.673828125) (-4.6538280487060546e-05, 1.67578125) (-3.922719955444336e-05, 1.677734375) (-2.8595233917236326e-05, 1.6796875) (-1.5665842056274413e-05, 1.681640625) (-1.4170279502868652e-06, 1.68359375) (1.2968927383422851e-05, 1.685546875) (2.6413333892822265e-05, 1.6875) (3.830020141601562e-05, 1.689453125) (4.831700134277344e-05, 1.69140625) (5.643594741821289e-05, 1.693359375) (6.288092041015625e-05, 1.6953125) (6.782076263427734e-05, 1.697265625) (7.143057250976563e-05, 1.69921875) (7.39637451171875e-05, 1.701171875) (7.566383361816406e-05, 1.703125) (7.673719024658203e-05, 1.705078125) (7.733567810058594e-05, 1.70703125) (7.759844970703124e-05, 1.708984375) (7.769084930419922e-05, 1.7109375) (7.783670043945312e-05, 1.712890625) (7.8290771484375e-05, 1.71484375) (7.924214172363281e-05, 1.716796875) (8.080699920654297e-05, 1.71875) (8.304603576660156e-05, 1.720703125) (8.598395538330077e-05, 1.72265625) (8.962474060058594e-05, 1.724609375) (9.39425048828125e-05, 1.7265625) (9.887864685058594e-05, 1.728515625) (0.00010434037780761719, 1.73046875) (0.0001102400665283203, 1.732421875) (0.00011650308227539062, 1.734375) (0.00012305754089355467, 1.736328125) (0.00012983950805664062, 1.73828125) (0.00013676214599609376, 1.740234375) (0.00014371929931640624, 1.7421875) (0.0001505966796875, 1.744140625) (0.00015727511596679686, 1.74609375) (0.00016366349792480467, 1.748046875) (0.00016969912719726562, 1.75) (0.00017533692932128906, 1.751953125) (0.00018054795837402343, 1.75390625) (0.00018531712341308593, 1.755859375) (0.00018964175415039062, 1.7578125) (0.00019353463745117188, 1.759765625) (0.0001970218811035156, 1.76171875) (0.000200120849609375, 1.763671875) (0.00020284036254882812, 1.765625) (0.00020518603515624998, 1.767578125) (0.00020715939331054686, 1.76953125) (0.00020876873779296875, 1.771484375) (0.00021002688598632812, 1.7734375) (0.0002109472961425781, 1.775390625) (0.00021154483032226562, 1.77734375) (0.00021183184814453125, 1.779296875) (0.00021181800842285157, 1.78125) (0.00021151284790039062, 1.783203125) (0.00021092456054687498, 1.78515625) (0.00021005845642089842, 1.787109375) (0.00020891905212402342, 1.7890625) (0.0002075084228515625, 1.791015625) (0.0002058262176513672, 1.79296875) (0.00020387634277343748, 1.794921875) (0.000201666259765625, 1.796875) (0.0001992050323486328, 1.798828125) (0.00019650433349609374, 1.80078125) (0.00019357638549804686, 1.802734375) (0.00019043296813964843, 1.8046875) (0.00018708761596679686, 1.806640625) (0.00018355511474609374, 1.80859375) (0.00017984898376464844, 1.810546875) (0.00017598214721679687, 1.8125) (0.00017196696472167967, 1.814453125) (0.00016781492614746093, 1.81640625) (0.00016353793334960935, 1.818359375) (0.00015914816284179687, 1.8203125) (0.00015465765380859374, 1.822265625) (0.00015007861328125, 1.82421875) (0.00014542355346679688, 1.826171875) (0.000140705078125, 1.828125) (0.00013593605041503905, 1.830078125) (0.00013112931823730468, 1.83203125) (0.0001262977066040039, 1.833984375) (0.0001214544448852539, 1.8359375) (0.00011661270141601562, 1.837890625) (0.000111785400390625, 1.83984375) (0.00010698543548583983, 1.841796875) (0.00010222546386718749, 1.84375) (9.751802062988281e-05, 1.845703125) (9.287576293945312e-05, 1.84765625) (8.831123352050781e-05, 1.849609375) (8.38365478515625e-05, 1.8515625) (7.946354675292968e-05, 1.853515625) (7.520367431640625e-05, 1.85546875) (7.106759643554687e-05, 1.857421875) (6.706522369384765e-05, 1.859375) (6.320558929443359e-05, 1.861328125) (5.9496643066406244e-05, 1.86328125) (5.594515228271484e-05, 1.865234375) (5.2556797027587887e-05, 1.8671875) (4.9336048126220704e-05, 1.869140625) (4.628627777099609e-05, 1.87109375) (4.341023254394531e-05, 1.873046875) (4.070999526977539e-05, 1.875) (3.8186840057373046e-05, 1.876953125) (3.5841293334960933e-05, 1.87890625) (3.367304229736328e-05, 1.880859375) (3.168089866638184e-05, 1.8828125) (2.9862892150878906e-05, 1.884765625) (2.8216140747070312e-05, 1.88671875) (2.6736698150634766e-05, 1.888671875) (2.541962432861328e-05, 1.890625) (2.4259077072143555e-05, 1.892578125) (2.324839401245117e-05, 1.89453125) (2.2380210876464842e-05, 1.896484375) (2.1646448135375975e-05, 1.8984375) (2.1038349151611327e-05, 1.900390625) (2.0546579360961915e-05, 1.90234375) (2.0161231994628907e-05, 1.904296875) (1.9871862411499022e-05, 1.90625) (1.966749954223633e-05, 1.908203125) (1.953664779663086e-05, 1.91015625) (1.946739959716797e-05, 1.912109375) (1.944757080078125e-05, 1.9140625) (1.9464866638183592e-05, 1.916015625) (1.9507020950317383e-05, 1.91796875) (1.9561996459960936e-05, 1.919921875) (1.9618114471435546e-05, 1.921875) (1.9664222717285156e-05, 1.923828125) (1.968984794616699e-05, 1.92578125) (1.968531036376953e-05, 1.927734375) (1.9641754150390625e-05, 1.9296875) (1.9551156997680664e-05, 1.931640625) (1.940628433227539e-05, 1.93359375) (1.9200654983520507e-05, 1.935546875) (1.8928565979003904e-05, 1.9375) (1.8585144042968748e-05, 1.939453125) (1.8166318893432618e-05, 1.94140625) (1.7668807983398437e-05, 1.943359375) (1.7090110778808592e-05, 1.9453125) (1.6428520202636717e-05, 1.947265625) (1.568316650390625e-05, 1.94921875) (1.4854067802429199e-05, 1.951171875) (1.394209098815918e-05, 1.953125) (1.2948814392089842e-05, 1.955078125) (1.187646770477295e-05, 1.95703125) (1.072797679901123e-05, 1.958984375) (9.506959915161132e-06, 1.9609375) (8.217765808105468e-06, 1.962890625) (6.865488052368164e-06, 1.96484375) (5.455808162689209e-06, 1.966796875) (3.9949827194213866e-06, 1.96875) (2.4899096488952634e-06, 1.970703125) (9.481204748153687e-07, 1.97265625) (-6.223119497299194e-07, 1.974609375) (-2.2128758430480955e-06, 1.9765625) (-3.814853191375733e-06, 1.978515625) (-5.4195194244384765e-06, 1.98046875) (-7.018109321594238e-06, 1.982421875) (-8.601917266845703e-06, 1.984375) (-1.0162393569946288e-05, 1.986328125) (-1.1691255569458007e-05, 1.98828125) (-1.3180742263793945e-05, 1.990234375) (-1.4623675346374512e-05, 1.9921875) (-1.6013404846191406e-05, 1.994140625) (-1.7343763351440428e-05, 1.99609375) (-1.8609012603759766e-05, 1.998046875) (-1.980387496948242e-05, 2.0) (-2.092376136779785e-05, 2.001953125) (-2.19648380279541e-05, 2.00390625) (-2.2923706054687498e-05, 2.005859375) (-2.379739761352539e-05, 2.0078125) (-2.458335494995117e-05, 2.009765625) (-2.52794075012207e-05, 2.01171875) (-2.5884168624877928e-05, 2.013671875) (-2.6397031784057616e-05, 2.015625) (-2.6817811965942383e-05, 2.017578125) (-2.7146638870239257e-05, 2.01953125) (-2.7384239196777342e-05, 2.021484375) (-2.753200912475586e-05, 2.0234375) (-2.759222412109375e-05, 2.025390625) (-2.7568267822265624e-05, 2.02734375) (-2.746411323547363e-05, 2.029296875) (-2.7284217834472653e-05, 2.03125) (-2.703372573852539e-05, 2.033203125) (-2.6718475341796873e-05, 2.03515625) (-2.634496307373047e-05, 2.037109375) (-2.592030334472656e-05, 2.0390625) (-2.5451791763305663e-05, 2.041015625) (-2.494649887084961e-05, 2.04296875) (-2.4411603927612303e-05, 2.044921875) (-2.3854442596435544e-05, 2.046875) (-2.3282646179199217e-05, 2.048828125) (-2.270418357849121e-05, 2.05078125) (-2.2126575469970702e-05, 2.052734375) (-2.1556766510009766e-05, 2.0546875) (-2.1001218795776365e-05, 2.056640625) (-2.0466068267822266e-05, 2.05859375) (-1.9957447052001953e-05, 2.060546875) (-1.9481361389160156e-05, 2.0625) (-1.9042951583862304e-05, 2.064453125) (-1.8646245956420897e-05, 2.06640625) (-1.829509925842285e-05, 2.068359375) (-1.7993309020996094e-05, 2.0703125) (-1.7744678497314452e-05, 2.072265625) (-1.755312156677246e-05, 2.07421875) (-1.7421646118164063e-05, 2.076171875) (-1.735222816467285e-05, 2.078125) (-1.734686470031738e-05, 2.080078125) (-1.740796661376953e-05, 2.08203125) (-1.7537437438964844e-05, 2.083984375) (-1.773649978637695e-05, 2.0859375) (-1.800543785095215e-05, 2.087890625) (-1.8342977523803712e-05, 2.08984375) (-1.874735641479492e-05, 2.091796875) (-1.9216907501220703e-05, 2.09375) (-1.974915313720703e-05, 2.095703125) (-2.034059143066406e-05, 2.09765625) (-2.0987728118896482e-05, 2.099609375) (-2.1687143325805662e-05, 2.1015625) (-2.2436269760131835e-05, 2.103515625) (-2.3234582901000974e-05, 2.10546875) (-2.4081703186035156e-05, 2.107421875) (-2.497662353515625e-05, 2.109375) (-2.5918121337890624e-05, 2.111328125) (-2.6904449462890624e-05, 2.11328125) (-2.793358612060547e-05, 2.115234375) (-2.9003477096557617e-05, 2.1171875) (-3.0110107421875e-05, 2.119140625) (-3.124621200561523e-05, 2.12109375) (-3.240463638305664e-05, 2.123046875) (-3.3579010009765625e-05, 2.125) (-3.476545715332031e-05, 2.126953125) (-3.596430969238281e-05, 2.12890625) (-3.717397308349609e-05, 2.130859375) (-3.8389907836914064e-05, 2.1328125) (-3.96075325012207e-05, 2.134765625) (-4.0822196960449215e-05, 2.13671875) (-4.202978134155273e-05, 2.138671875) (-4.322730255126953e-05, 2.140625) (-4.4404670715332026e-05, 2.142578125) (-4.5541740417480463e-05, 2.14453125) (-4.662371444702148e-05, 2.146484375) (-4.764259338378906e-05, 2.1484375) (-4.860045623779297e-05, 2.150390625) (-4.9513397216796874e-05, 2.15234375) (-5.0388500213623045e-05, 2.154296875) (-5.121992874145508e-05, 2.15625) (-5.199964904785156e-05, 2.158203125) (-5.271583938598633e-05, 2.16015625) (-5.335112762451172e-05, 2.162109375) (-5.388385009765625e-05, 2.1640625) (-5.427272796630859e-05, 2.166015625) (-5.445059967041015e-05, 2.16796875) (-5.4354423522949216e-05, 2.169921875) (-5.392959213256836e-05, 2.171875) (-5.313705444335937e-05, 2.173828125) (-5.196106719970703e-05, 2.17578125) (-5.0368350982666016e-05, 2.177734375) (-4.8303829193115234e-05, 2.1796875) (-4.569886779785156e-05, 2.181640625) (-4.247512054443359e-05, 2.18359375) (-3.858685684204101e-05, 2.185546875) (-3.402434539794922e-05, 2.1875) (-2.8780908584594726e-05, 2.189453125) (-2.285166358947754e-05, 2.19140625) (-1.626353073120117e-05, 2.193359375) (-9.079320907592773e-06, 2.1953125) (-1.41267991065979e-06, 2.197265625) (6.570680618286132e-06, 2.19921875) (1.4718875885009765e-05, 2.201171875) (2.2898387908935547e-05, 2.203125) (3.097123336791992e-05, 2.205078125) (3.879747009277344e-05, 2.20703125) (4.6212188720703125e-05, 2.208984375) (5.3040210723876954e-05, 2.2109375) (5.9069999694824216e-05, 2.212890625) (6.40479507446289e-05, 2.21484375) (6.786254882812499e-05, 2.216796875) (7.059423828124999e-05, 2.21875) (7.247656249999999e-05, 2.220703125) (7.393380737304688e-05, 2.22265625) (7.544584655761719e-05, 2.224609375) (7.740577697753907e-05, 2.2265625) (8.034996032714844e-05, 2.228515625) (8.504493713378906e-05, 2.23046875) (9.190783691406249e-05, 2.232421875) (0.00010081136322021484, 2.234375) (0.00011115485382080078, 2.236328125) (0.00012172450256347655, 2.23828125) (0.00013133111572265625, 2.240234375) (0.0001393904571533203, 2.2421875) (0.0001453547668457031, 2.244140625) (0.0001484525451660156, 2.24609375) (0.00014853518676757811, 2.248046875) (0.0001464454345703125, 2.25) (0.0001441093292236328, 2.251953125) (0.00014483224487304687, 2.25390625) (0.00015210775756835938, 2.255859375) (0.00016843708801269532, 2.2578125) (0.00019621264648437498, 2.259765625) (0.00023804249572753906, 2.26171875) (0.00029568261718749997, 2.263671875) (0.00036958154296875, 2.265625) (0.0004583141174316406, 2.267578125) (0.00055810791015625, 2.26953125) (0.0006642633056640624, 2.271484375) (0.0007723227539062499, 2.2734375) (0.0008768755493164062, 2.275390625) (0.0009714593505859375, 2.27734375) (0.0010498255615234374, 2.279296875) (0.001106322265625, 2.28125) (0.0011371080322265625, 2.283203125) (0.00114067333984375, 2.28515625) (0.00111644921875, 2.287109375) (0.0010646883544921874, 2.2890625) (0.0009880923461914061, 2.291015625) (0.0008915814208984374, 2.29296875) (0.0007812247314453125, 2.294921875) (0.0006640290527343749, 2.296875) (0.0005462833862304688, 2.298828125) (0.00043328894042968745, 2.30078125) (0.0003307514343261719, 2.302734375) (0.00024371104431152342, 2.3046875) (0.00017468763732910155, 2.306640625) (0.0001240418014526367, 2.30859375) (9.04133071899414e-05, 2.310546875) (7.089505004882812e-05, 2.3125) (6.264111328125e-05, 2.314453125) (6.278739166259765e-05, 2.31640625) (6.722372436523437e-05, 2.318359375) (7.186486816406249e-05, 2.3203125) (7.41207275390625e-05, 2.322265625) (7.265457153320313e-05, 2.32421875) (6.743621826171875e-05, 2.326171875) (5.9455718994140625e-05, 2.328125) (4.962469482421875e-05, 2.330078125) (3.8908901214599604e-05, 2.33203125) (2.893501853942871e-05, 2.333984375) (2.1386260986328125e-05, 2.3359375) (1.7239601135253905e-05, 2.337890625) (1.6803138732910154e-05, 2.33984375) (1.9697782516479492e-05, 2.341796875) (2.509516906738281e-05, 2.34375) (3.2112812042236324e-05, 2.345703125) (3.9864391326904295e-05, 2.34765625) (4.7666656494140626e-05, 2.349609375) (5.490635299682617e-05, 2.3515625) (6.084953308105469e-05, 2.353515625) (6.525347900390625e-05, 2.35546875) (6.81734390258789e-05, 2.357421875) (6.922702026367188e-05, 2.359375) (7.017068481445312e-05, 2.361328125) (7.269267272949219e-05, 2.36328125) (7.483748626708984e-05, 2.365234375) (7.61970443725586e-05, 2.3671875) (7.298204040527343e-05, 2.369140625) (6.057618713378906e-05, 2.37109375) (4.4407108306884766e-05, 2.373046875) (2.8121927261352537e-05, 2.375) (1.711643600463867e-05, 2.376953125) (1.877599334716797e-05, 2.37890625) (2.6886629104614258e-05, 2.380859375) (3.613928985595703e-05, 2.3828125) (4.2895576477050776e-05, 2.384765625) (4.105844116210937e-05, 2.38671875) (3.494217300415039e-05, 2.388671875) (2.8913097381591796e-05, 2.390625) (2.386143112182617e-05, 2.392578125) (2.236000061035156e-05, 2.39453125) (2.2751792907714844e-05, 2.396484375) (2.2930973052978513e-05, 2.3984375) (2.318799591064453e-05, 2.400390625) (2.318832778930664e-05, 2.40234375) (2.2963315963745118e-05, 2.404296875) (2.2808727264404297e-05, 2.40625) (2.234880828857422e-05, 2.408203125) (2.125489616394043e-05, 2.41015625) (1.951108741760254e-05, 2.412109375) (1.7076293945312498e-05, 2.4140625) (1.3880199432373047e-05, 2.416015625) (9.903562545776366e-06, 2.41796875) (5.15499210357666e-06, 2.419921875) (-3.572547435760498e-07, 2.421875) (-6.576976776123046e-06, 2.423828125) (-1.3425710678100586e-05, 2.42578125) (-2.089813423156738e-05, 2.427734375) (-2.8991683959960937e-05, 2.4296875) (-3.7676452636718745e-05, 2.431640625) (-4.6935310363769526e-05, 2.43359375) (-5.674137115478515e-05, 2.435546875) (-6.705702209472655e-05, 2.4375) (-7.785246276855469e-05, 2.439453125) (-8.909492492675781e-05, 2.44140625) (-0.00010074266052246094, 2.443359375) (-0.00011275652313232422, 2.4453125) (-0.0001250988998413086, 2.447265625) (-0.00013773014831542968, 2.44921875) (-0.00015061328125, 2.451171875) (-0.0001637115478515625, 2.453125) (-0.00017698861694335938, 2.455078125) (-0.00019041036987304686, 2.45703125) (-0.00020393930053710937, 2.458984375) (-0.00021753466796875, 2.4609375) (-0.00023115475463867185, 2.462890625) (-0.00024475637817382814, 2.46484375) (-0.000258297119140625, 2.466796875) (-0.0002717360229492187, 2.46875) (-0.000285031982421875, 2.470703125) (-0.00029814413452148436, 2.47265625) (-0.000311033935546875, 2.474609375) (-0.00032366525268554686, 2.4765625) (-0.0003360042724609375, 2.478515625) (-0.00034801983642578126, 2.48046875) (-0.00035968270874023436, 2.482421875) (-0.0003709651794433594, 2.484375) (-0.0003818422241210937, 2.486328125) (-0.00039229086303710933, 2.48828125) (-0.0004022905578613281, 2.490234375) (-0.0004118228759765625, 2.4921875) (-0.0004208720703125, 2.494140625) (-0.00042942468261718747, 2.49609375) (-0.00043746932983398435, 2.498046875) (-0.0004449971313476562, 2.5) (-0.0004520018615722656, 2.501953125) (-0.00045847970581054686, 2.50390625) (-0.0004644297180175781, 2.505859375) (-0.00046985308837890625, 2.5078125) (-0.0004747534790039062, 2.509765625) (-0.00047913668823242186, 2.51171875) (-0.0004830106201171875, 2.513671875) (-0.000486385009765625, 2.515625) (-0.0004892713012695312, 2.517578125) (-0.0004916823120117188, 2.51953125) (-0.0004936324157714843, 2.521484375) (-0.0004951373901367187, 2.5234375) (-0.0004962141723632812, 2.525390625) (-0.000496880859375, 2.52734375) (-0.0004971566772460937, 2.529296875) (-0.0004970619506835937, 2.53125) (-0.0004966180114746093, 2.533203125) (-0.000495846923828125, 2.53515625) (-0.0004947710571289062, 2.537109375) (-0.0004934129028320312, 2.5390625) (-0.000491794921875, 2.541015625) (-0.0004899393920898438, 2.54296875) (-0.0004878685302734375, 2.544921875) (-0.00048560412597656246, 2.546875) (-0.00048316711425781247, 2.548828125) (-0.0004805778198242187, 2.55078125) (-0.00047785601806640625, 2.552734375) (-0.00047502111816406247, 2.5546875) (-0.0004720924072265625, 2.556640625) (-0.00046908868408203125, 2.55859375) (-0.0004660281066894531, 2.560546875) (-0.0004629281311035156, 2.5625) (-0.0004598053894042969, 2.564453125) (-0.00045667535400390624, 2.56640625) (-0.0004535526123046875, 2.568359375) (-0.0004504501342773437, 2.5703125) (-0.00044737939453125, 2.572265625) (-0.00044435055541992185, 2.57421875) (-0.0004413726806640625, 2.576171875) (-0.0004384538879394531, 2.578125) (-0.0004356019287109375, 2.580078125) (-0.00043282373046875, 2.58203125) (-0.00043012518310546873, 2.583984375) (-0.00042751177978515625, 2.5859375) (-0.0004249879760742187, 2.587890625) (-0.0004225572814941406, 2.58984375) (-0.00042022216796874996, 2.591796875) (-0.00041798364257812496, 2.59375) (-0.00041584075927734375, 2.595703125) (-0.00041379199218749996, 2.59765625) (-0.00041183367919921874, 2.599609375) (-0.00040996090698242185, 2.6015625) (-0.0004081679992675781, 2.603515625) (-0.00040644812011718747, 2.60546875) (-0.000404793701171875, 2.607421875) (-0.0004031980895996094, 2.609375) (-0.00040165509033203125, 2.611328125) (-0.0004001584777832031, 2.61328125) (-0.00039870330810546874, 2.615234375) (-0.00039728533935546874, 2.6171875) (-0.00039589956665039063, 2.619140625) (-0.00039454147338867184, 2.62109375) (-0.0003932048950195312, 2.623046875) (-0.00039188128662109373, 2.625) (-0.00039055981445312496, 2.626953125) (-0.00038922869873046876, 2.62890625) (-0.0003878756713867187, 2.630859375) (-0.0003864896240234375, 2.6328125) (-0.00038506295776367185, 2.634765625) (-0.0003835894165039062, 2.63671875) (-0.0003820651245117187, 2.638671875) (-0.0003804881591796875, 2.640625) (-0.0003788594360351562, 2.642578125) (-0.0003771836242675781, 2.64453125) (-0.0003754610595703125, 2.646484375) (-0.000373686767578125, 2.6484375) (-0.0003718471984863281, 2.650390625) (-0.00036992279052734374, 2.65234375) (-0.000367900146484375, 2.654296875) (-0.00036577548217773436, 2.65625) (-0.0003635572509765625, 2.658203125) (-0.0003612610168457031, 2.66015625) (-0.0003589137878417969, 2.662109375) (-0.00035655364990234376, 2.6640625) (-0.0003542226867675781, 2.666015625) (-0.00035196643066406246, 2.66796875) (-0.0003498192138671875, 2.669921875) (-0.00034779681396484376, 2.671875) (-0.0003458853149414062, 2.673828125) (-0.0003440530090332031, 2.67578125) (-0.0003422710266113281, 2.677734375) (-0.00034051483154296875, 2.6796875) (-0.0003387946166992187, 2.681640625) (-0.000337137939453125, 2.68359375) (-0.0003355545654296875, 2.685546875) (-0.0003340439453125, 2.6875) (-0.0003325887451171875, 2.689453125) (-0.0003311526184082031, 2.69140625) (-0.0003296674194335937, 2.693359375) (-0.0003280241088867187, 2.6953125) (-0.0003260687866210937, 2.697265625) (-0.00032362997436523436, 2.69921875) (-0.00032057501220703126, 2.701171875) (-0.0003168167724609375, 2.703125) (-0.0003123464965820312, 2.705078125) (-0.0003072032165527344, 2.70703125) (-0.0003014287414550781, 2.708984375) (-0.000295081787109375, 2.7109375) (-0.0002881776123046875, 2.712890625) (-0.00028071261596679685, 2.71484375) (-0.00027272491455078126, 2.716796875) (-0.0002642694396972656, 2.71875) (-0.0002554096069335937, 2.720703125) (-0.00024624188232421875, 2.72265625) (-0.0002369309539794922, 2.724609375) (-0.00022770446777343748, 2.7265625) (-0.0002188916320800781, 2.728515625) (-0.00021088098144531249, 2.73046875) (-0.0002039891357421875, 2.732421875) (-0.00019848165893554686, 2.734375) (-0.00019453817749023436, 2.736328125) (-0.00019225125122070312, 2.73828125) (-0.00019169255065917967, 2.740234375) (-0.00019293632507324217, 2.7421875) (-0.00019612037658691406, 2.744140625) (-0.00020129275512695312, 2.74609375) (-0.000208303955078125, 2.748046875) (-0.00021682147216796875, 2.75) (-0.00022635052490234373, 2.751953125) (-0.00023638027954101562, 2.75390625) (-0.00024643646240234373, 2.755859375) (-0.0002558998260498047, 2.7578125) (-0.00026381097412109375, 2.759765625) (-0.00026936306762695314, 2.76171875) (-0.00027235009765625, 2.763671875) (-0.00027310836791992184, 2.765625) (-0.00027263748168945313, 2.767578125) (-0.0002720379333496094, 2.76953125) (-0.00027183319091796874, 2.771484375) (-0.00027250903320312497, 2.7734375) (-0.0002748916015625, 2.775390625) (-0.0002793328247070312, 2.77734375) (-0.00028523516845703126, 2.779296875) (-0.0002909811096191406, 2.78125) (-0.00029348956298828123, 2.783203125) (-0.00028929928588867186, 2.78515625) (-0.00027595550537109375, 2.787109375) (-0.0002510473022460937, 2.7890625) (-0.00021186329650878905, 2.791015625) (-0.000156499267578125, 2.79296875) (-8.413539886474609e-05, 2.794921875) (4.292881011962891e-06, 2.796875) (0.00010535388183593749, 2.798828125) (0.00021452102661132812, 2.80078125) (0.00032734387207031246, 2.802734375) (0.0004381837158203125, 2.8046875) (0.0005402761840820312, 2.806640625) (0.0006269246826171874, 2.80859375) (0.0006917474365234374, 2.810546875) (0.00073021728515625, 2.8125) (0.0007402694702148437, 2.814453125) (0.00072092626953125, 2.81640625) (0.000672449951171875, 2.818359375) (0.0005977685546875, 2.8203125) (0.00050207177734375, 2.822265625) (0.00039197991943359375, 2.82421875) (0.000275125732421875, 2.826171875) (0.00015823155212402342, 2.828125) (4.70291633605957e-05, 2.830078125) (-5.2556011199951166e-05, 2.83203125) (-0.0001357482147216797, 2.833984375) (-0.00020036172485351562, 2.8359375) (-0.00024641867065429684, 2.837890625) (-0.000275869873046875, 2.83984375) (-0.00029207379150390626, 2.841796875) (-0.0002981988830566406, 2.84375) (-0.00029748785400390625, 2.845703125) (-0.0002942073974609375, 2.84765625) (-0.0002922702941894531, 2.849609375) (-0.0002940274047851562, 2.8515625) (-0.00030051010131835934, 2.853515625) (-0.0003114110107421875, 2.85546875) (-0.00032548370361328125, 2.857421875) (-0.00034160394287109376, 2.859375) (-0.0003586216125488281, 2.861328125) (-0.0003747486877441406, 2.86328125) (-0.000388269775390625, 2.865234375) (-0.000398283935546875, 2.8671875) (-0.00040452523803710937, 2.869140625) (-0.00040741296386718746, 2.87109375) (-0.0004078861999511719, 2.873046875) (-0.00040679217529296873, 2.875) (-0.00040485412597656247, 2.876953125) (-0.00040293325805664063, 2.87890625) (-0.0004018126831054687, 2.880859375) (-0.0004019263000488281, 2.8828125) (-0.000403490234375, 2.884765625) (-0.0004064779968261719, 2.88671875) (-0.0004106583557128906, 2.888671875) (-0.0004158402099609375, 2.890625) (-0.00042184393310546874, 2.892578125) (-0.0004284395141601562, 2.89453125) (-0.00043541378784179685, 2.896484375) (-0.00044258926391601563, 2.8984375) (-0.0004497923889160156, 2.900390625) (-0.00045686666870117185, 2.90234375) (-0.0004636298828125, 2.904296875) (-0.000469848388671875, 2.90625) (-0.0004753458251953125, 2.908203125) (-0.00048000531005859375, 2.91015625) (-0.00048374554443359375, 2.912109375) (-0.00048654254150390624, 2.9140625) (-0.000488379638671875, 2.916015625) (-0.0004892498168945313, 2.91796875) (-0.0004891999206542969, 2.919921875) (-0.0004883094787597656, 2.921875) (-0.00048665731811523434, 2.923828125) (-0.000484322998046875, 2.92578125) (-0.0004813726196289062, 2.927734375) (-0.0004778628234863281, 2.9296875) (-0.0004738773498535156, 2.931640625) (-0.0004695159912109375, 2.93359375) (-0.0004648895263671875, 2.935546875) (-0.00046011968994140624, 2.9375) (-0.0004552977600097656, 2.939453125) (-0.0004504890441894531, 2.94140625) (-0.00044575103759765625, 2.943359375) (-0.00044112207031249997, 2.9453125) (-0.00043663116455078125, 2.947265625) (-0.0004323012084960937, 2.94921875) (-0.00042813244628906247, 2.951171875) (-0.0004241107177734375, 2.953125) (-0.0004202318115234375, 2.955078125) (-0.0004164964599609375, 2.95703125) (-0.0004129090576171875, 2.958984375) (-0.00040948010253906246, 2.9609375) (-0.00040620965576171873, 2.962890625) (-0.00040309075927734373, 2.96484375) (-0.0004001181640625, 2.966796875) (-0.0003972845764160156, 2.96875) (-0.00039458493041992184, 2.970703125) (-0.000392017578125, 2.97265625) (-0.0003895792541503906, 2.974609375) (-0.0003872669982910156, 2.9765625) (-0.00038508166503906246, 2.978515625) (-0.00038302548217773437, 2.98046875) (-0.0003811024169921875, 2.982421875) (-0.0003793186340332031, 2.984375) (-0.00037767614746093747, 2.986328125) (-0.0003761729125976562, 2.98828125) (-0.00037480615234374996, 2.990234375) (-0.00037357110595703124, 2.9921875) (-0.0003724624633789062, 2.994140625) (-0.0003714751892089844, 2.99609375) (-0.0003706031799316406, 2.998046875) (-0.000369839111328125, 3.0) (-0.0003691771240234375, 3.001953125) (-0.00036861239624023435, 3.00390625) (-0.0003681405639648437, 3.005859375) (-0.00036775769042968746, 3.0078125) (-0.000367459228515625, 3.009765625) (-0.0003672401123046875, 3.01171875) (-0.0003670954895019531, 3.013671875) (-0.00036702117919921876, 3.015625) (-0.0003670128173828125, 3.017578125) (-0.00036706588745117187, 3.01953125) (-0.00036717636108398436, 3.021484375) (-0.0003673403625488281, 3.0234375) (-0.0003675546875, 3.025390625) (-0.00036781695556640625, 3.02734375) (-0.0003681243896484375, 3.029296875) (-0.00036847326660156246, 3.03125) (-0.0003688594055175781, 3.033203125) (-0.00036927774047851563, 3.03515625) (-0.00036972256469726563, 3.037109375) (-0.00037018768310546874, 3.0390625) (-0.000370665771484375, 3.041015625) (-0.0003711483154296875, 3.04296875) (-0.00037162692260742184, 3.044921875) (-0.0003720933227539062, 3.046875) (-0.00037253930664062497, 3.048828125) (-0.0003729573364257812, 3.05078125) (-0.00037333972167968746, 3.052734375) (-0.0003736780395507812, 3.0546875) (-0.00037396435546875, 3.056640625) (-0.0003741907958984375, 3.05859375) (-0.00037434918212890625, 3.060546875) (-0.000374431640625, 3.0625) (-0.000374430419921875, 3.064453125) (-0.000374337158203125, 3.06640625) (-0.00037414361572265625, 3.068359375) (-0.0003738424682617187, 3.0703125) (-0.0003734270629882812, 3.072265625) (-0.0003728917846679687, 3.07421875) (-0.00037223150634765624, 3.076171875) (-0.00037144055175781246, 3.078125) (-0.00037051318359375, 3.080078125) (-0.0003694443969726562, 3.08203125) (-0.0003682291564941406, 3.083984375) (-0.00036686163330078124, 3.0859375) (-0.00036533544921875, 3.087890625) (-0.00036364245605468746, 3.08984375) (-0.0003617743530273437, 3.091796875) (-0.00035972531127929686, 3.09375) (-0.00035749127197265624, 3.095703125) (-0.00035506884765625, 3.09765625) (-0.0003524568176269531, 3.099609375) (-0.00034965570068359376, 3.1015625) (-0.00034666802978515623, 3.103515625) (-0.000343500732421875, 3.10546875) (-0.0003401614990234375, 3.107421875) (-0.00033665487670898436, 3.109375) (-0.00033298388671875, 3.111328125) (-0.0003291497192382812, 3.11328125) (-0.00032515020751953125, 3.115234375) (-0.00032098419189453126, 3.1171875) (-0.00031664926147460934, 3.119140625) (-0.00031213916015625, 3.12109375) (-0.000307449462890625, 3.123046875) (-0.000302578369140625, 3.125) (-0.0002975234375, 3.126953125) (-0.00029228857421875, 3.12890625) (-0.0002868820190429687, 3.130859375) (-0.0002813048095703125, 3.1328125) (-0.00027555645751953126, 3.134765625) (-0.0002696311340332031, 3.13671875) (-0.0002635121459960937, 3.138671875) (-0.0002571929931640625, 3.140625) (-0.0002506754150390625, 3.142578125) (-0.00024395822143554686, 3.14453125) (-0.0002370507354736328, 3.146484375) (-0.00022997302246093748, 3.1484375) (-0.00022275140380859375, 3.150390625) (-0.00021543392944335936, 3.15234375) (-0.00020807528686523437, 3.154296875) (-0.0002007058410644531, 3.15625) (-0.00019334510803222654, 3.158203125) (-0.00018599444580078125, 3.16015625) (-0.00017862545776367188, 3.162109375) (-0.00017121694946289063, 3.1640625) (-0.00016374191284179688, 3.166015625) (-0.00015616256713867188, 3.16796875) (-0.0001484676971435547, 3.169921875) (-0.00014063980102539062, 3.171875) (-0.00013264575195312499, 3.173828125) (-0.00012446807861328125, 3.17578125) (-0.00011607888793945312, 3.177734375) (-0.00010741884613037108, 3.1796875) (-9.841971588134766e-05, 3.181640625) (-8.897793579101563e-05, 3.18359375) (-7.895873260498046e-05, 3.185546875) (-6.827642822265625e-05, 3.1875) (-5.687598419189453e-05, 3.189453125) (-4.472698974609375e-05, 3.19140625) (-3.1860496520996095e-05, 3.193359375) (-1.8314258575439453e-05, 3.1953125) (-4.139493942260742e-06, 3.197265625) (1.0581993103027344e-05, 3.19921875) (2.5795818328857422e-05, 3.201171875) (4.145520782470703e-05, 3.203125) (5.749515914916992e-05, 3.205078125) (7.386761474609374e-05, 3.20703125) (9.05267333984375e-05, 3.208984375) (0.00010738835906982422, 3.2109375) (0.00012436203002929688, 3.212890625) (0.0001413263702392578, 3.21484375) (0.00015810568237304687, 3.216796875) (0.0001745676727294922, 3.21875) (0.00019062304687499998, 3.220703125) (0.00020621250915527344, 3.22265625) (0.00022134147644042968, 3.224609375) (0.00023603849792480468, 3.2265625) (0.000250339599609375, 3.228515625) (0.0002642950439453125, 3.23046875) (0.00027795233154296874, 3.232421875) (0.00029135345458984374, 3.234375) (0.0003045553588867187, 3.236328125) (0.00031762384033203123, 3.23828125) (0.00033061059570312497, 3.240234375) (0.00034357580566406247, 3.2421875) (0.0003565860595703125, 3.244140625) (0.00036973129272460935, 3.24609375) (0.0003831426391601562, 3.248046875) (0.00039695196533203126, 3.25) (0.0004112530517578125, 3.251953125) (0.00042609490966796874, 3.25390625) (0.0004415203857421875, 3.255859375) (0.0004575401611328125, 3.2578125) (0.00047416021728515623, 3.259765625) (0.0004914351806640625, 3.26171875) (0.0005093783569335937, 3.263671875) (0.0005279943237304687, 3.265625) (0.0005473262329101562, 3.267578125) (0.0005673209228515625, 3.26953125) (0.0005878911743164063, 3.271484375) (0.0006091180419921875, 3.2734375) (0.0006311571044921875, 3.275390625) (0.0006542735595703124, 3.27734375) (0.0006789281616210938, 3.279296875) (0.0007054173583984375, 3.28125) (0.0007339124755859375, 3.283203125) (0.0007647964477539062, 3.28515625) (0.0007983212890625, 3.287109375) (0.0008343792724609375, 3.2890625) (0.0008725885009765624, 3.291015625) (0.0009118116455078125, 3.29296875) (0.0009504409179687499, 3.294921875) (0.000987279052734375, 3.296875) (0.0010212890014648437, 3.298828125) (0.0010514776611328124, 3.30078125) (0.00107748388671875, 3.302734375) (0.0010994929199218749, 3.3046875) (0.001118348876953125, 3.306640625) (0.001136416748046875, 3.30859375) (0.0011565922851562499, 3.310546875) (0.0011812578125, 3.3125) (0.001213142333984375, 3.314453125) (0.00125483056640625, 3.31640625) (0.001307767578125, 3.318359375) (0.001372658203125, 3.3203125) (0.0014470361328125, 3.322265625) (0.001524724609375, 3.32421875) (0.0016005302734374998, 3.326171875) (0.0016705911865234375, 3.328125) (0.0017352508544921873, 3.330078125) (0.0017982615966796874, 3.33203125) (0.001856815673828125, 3.333984375) (0.0019019581298828124, 3.3359375) (0.00191838916015625, 3.337890625) (0.001886987548828125, 3.33984375) (0.0018002978515625, 3.341796875) (0.0016639670410156248, 3.34375) (0.001492283447265625, 3.345703125) (0.0013107207031249999, 3.34765625) (0.0011427939453125, 3.349609375) (0.001001877197265625, 3.3515625) (0.0008981856079101563, 3.353515625) (0.0008295126342773437, 3.35546875) (0.0007840498657226562, 3.357421875) (0.0007541266479492187, 3.359375) (0.000731010009765625, 3.361328125) (0.0007112283325195312, 3.36328125) (0.0006993122558593749, 3.365234375) (0.0006955979614257812, 3.3671875) (0.0006980205078125, 3.369140625) (0.0007029573974609375, 3.37109375) (0.0007041720581054688, 3.373046875) (0.000698778076171875, 3.375) (0.00068699072265625, 3.376953125) (0.0006699205932617187, 3.37890625) (0.00064973974609375, 3.380859375) (0.0006284058837890625, 3.3828125) (0.0006077496337890624, 3.384765625) (0.0005896822509765625, 3.38671875) (0.0005753179321289062, 3.388671875) (0.0005649984741210938, 3.390625) (0.0005582710571289063, 3.392578125) (0.0005541790771484375, 3.39453125) (0.000551654296875, 3.396484375) (0.0005494542846679688, 3.3984375) (0.0005462838134765624, 3.400390625) (0.0005410342407226562, 3.40234375) (0.0005331183471679687, 3.404296875) (0.000522330810546875, 3.40625) (0.0005089838256835937, 3.408203125) (0.0004939171752929687, 3.41015625) (0.0004782314453125, 3.412109375) (0.0004636295471191406, 3.4140625) (0.0004520963134765625, 3.416015625) (0.0004452130126953125, 3.41796875) (0.0004438628845214844, 3.419921875) (0.0004484761962890625, 3.421875) (0.0004588136291503906, 3.423828125) (0.00047387765502929685, 3.42578125) (0.0004923950805664063, 3.427734375) (0.0005118793640136719, 3.4296875) (0.0005288336791992187, 3.431640625) (0.0005403946533203125, 3.43359375) (0.0005443356323242188, 3.435546875) (0.0005389235839843749, 3.4375) (0.0005237596435546875, 3.439453125) (0.0004990077209472656, 3.44140625) (0.00046732189941406247, 3.443359375) (0.0004368917236328125, 3.4453125) (0.000417428955078125, 3.447265625) (0.0004175884399414062, 3.44921875) (0.0004387632446289062, 3.451171875) (0.00047022186279296874, 3.453125) (0.0005032698974609375, 3.455078125) (0.0005385440673828125, 3.45703125) (0.0005918504638671875, 3.458984375) (0.0006994676513671875, 3.4609375) (0.0008901444702148437, 3.462890625) (0.0011712290039062499, 3.46484375) (0.0015292783203124998, 3.466796875) (0.0019205340576171875, 3.46875) (0.0023000136718749997, 3.470703125) (0.002637004638671875, 3.47265625) (0.0029053481445312497, 3.474609375) (0.0030975185546875, 3.4765625) (0.00320658935546875, 3.478515625) (0.0032184814453125, 3.48046875) (0.00313078466796875, 3.482421875) (0.002942448974609375, 3.484375) (0.002670033935546875, 3.486328125) (0.002351548095703125, 3.48828125) (0.0020250964355468747, 3.490234375) (0.001734258056640625, 3.4921875) (0.0015062689208984374, 3.494140625) (0.001340908447265625, 3.49609375) (0.001227896728515625, 3.498046875) (0.00114206005859375, 3.5) (0.0010595572509765625, 3.501953125) (0.00097562451171875, 3.50390625) (0.000891591064453125, 3.505859375) (0.0008154716796875, 3.5078125) (0.0007579566650390625, 3.509765625) (0.0007175885620117188, 3.51171875) (0.000687740478515625, 3.513671875) (0.0006618431396484375, 3.515625) (0.0006321865234375, 3.517578125) (0.0005960560302734375, 3.51953125) (0.0005551651000976562, 3.521484375) (0.0005111572875976562, 3.5234375) (0.0004658829650878906, 3.525390625) (0.0004217789611816406, 3.52734375) (0.00038070068359375, 3.529296875) (0.0003439216918945312, 3.53125) (0.0003130520324707031, 3.533203125) (0.0002889972534179687, 3.53515625) (0.0002708851928710937, 3.537109375) (0.0002593556213378906, 3.5390625) (0.0002547087707519531, 3.541015625) (0.00025338046264648437, 3.54296875) (0.0002534107666015625, 3.544921875) (0.00024974182128906247, 3.546875) (0.00023658416748046873, 3.548828125) (0.0002182064514160156, 3.55078125) (0.0001975885772705078, 3.552734375) (0.0001797865447998047, 3.5546875) (0.00017195457458496092, 3.556640625) (0.0001680780792236328, 3.55859375) (0.00016322523498535157, 3.560546875) (0.00015411952209472656, 3.5625) (0.00013488156127929686, 3.564453125) (0.00010991204833984374, 3.56640625) (8.40296630859375e-05, 3.568359375) (5.85150146484375e-05, 3.5703125) (3.62833366394043e-05, 3.572265625) (1.6590065002441406e-05, 3.57421875) (-3.7529430389404295e-06, 3.576171875) (-2.5522628784179686e-05, 3.578125) (-4.671077728271484e-05, 3.580078125) (-6.635320281982422e-05, 3.58203125) (-8.012514495849609e-05, 3.583984375) (-8.37530517578125e-05, 3.5859375) (-8.240186309814452e-05, 3.587890625) (-7.934721374511718e-05, 3.58984375) (-7.958761596679686e-05, 3.591796875) (-9.000875854492187e-05, 3.59375) (-0.00010478113555908202, 3.595703125) (-0.00011901424407958984, 3.59765625) (-0.00012943504333496093, 3.599609375) (-0.00013047186279296875, 3.6015625) (-0.00012634676361083984, 3.603515625) (-0.00012138262939453124, 3.60546875) (-0.00011665745544433594, 3.607421875) (-0.00011483769226074218, 3.609375) (-0.00011460272979736327, 3.611328125) (-0.00011420033264160156, 3.61328125) (-0.00011411251068115234, 3.615234375) (-0.00011418682861328124, 3.6171875) (-0.0001146022720336914, 3.619140625) (-0.0001157718505859375, 3.62109375) (-0.00011745972442626953, 3.623046875) (-0.0001194716567993164, 3.625) (-0.00012187411499023437, 3.626953125) (-0.00012466632080078123, 3.62890625) (-0.00012779580688476562, 3.630859375) (-0.00013124740600585936, 3.6328125) (-0.00013501986694335936, 3.634765625) (-0.00013910574340820312, 3.63671875) (-0.00014353076171874998, 3.638671875) (-0.00014831951904296874, 3.640625) (-0.00015342938232421874, 3.642578125) (-0.00015881814575195312, 3.64453125) (-0.00016446685791015624, 3.646484375) (-0.00017034947204589844, 3.6484375) (-0.00017644393920898438, 3.650390625) (-0.00018272990417480468, 3.65234375) (-0.0001891766662597656, 3.654296875) (-0.00019575363159179686, 3.65625) (-0.00020243820190429687, 3.658203125) (-0.00020920742797851563, 3.66015625) (-0.0002160367736816406, 3.662109375) (-0.00022289865112304686, 3.6640625) (-0.00022976068115234375, 3.666015625) (-0.0002365890197753906, 3.66796875) (-0.000243350341796875, 3.669921875) (-0.0002500120086669922, 3.671875) (-0.00025654284667968747, 3.673828125) (-0.00026291278076171875, 3.67578125) (-0.000269092041015625, 3.677734375) (-0.0002750535278320312, 3.6796875) (-0.00028077301025390623, 3.681640625) (-0.00028622833251953125, 3.68359375) (-0.00029139941406249996, 3.685546875) (-0.000296268798828125, 3.6875) (-0.00030082012939453126, 3.689453125) (-0.0003050389404296875, 3.69140625) (-0.0003089135131835937, 3.693359375) (-0.00031243402099609375, 3.6953125) (-0.0003155927734375, 3.697265625) (-0.00031838500976562496, 3.69921875) (-0.00032080792236328123, 3.701171875) (-0.00032285986328124997, 3.703125) (-0.00032454171752929685, 3.705078125) (-0.000325856689453125, 3.70703125) (-0.0003268095092773437, 3.708984375) (-0.00032740728759765624, 3.7109375) (-0.00032765841674804686, 3.712890625) (-0.00032757241821289063, 3.71484375) (-0.00032716143798828124, 3.716796875) (-0.00032643994140625, 3.71875) (-0.00032542364501953125, 3.720703125) (-0.00032413000488281247, 3.72265625) (-0.00032257861328124996, 3.724609375) (-0.0003207909240722656, 3.7265625) (-0.0003187914428710937, 3.728515625) (-0.0003166079711914062, 3.73046875) (-0.00031426818847656246, 3.732421875) (-0.00031180072021484375, 3.734375) (-0.0003092353820800781, 3.736328125) (-0.00030660177612304684, 3.73828125) (-0.00030392944335937497, 3.740234375) (-0.00030124801635742187, 3.7421875) (-0.00029858398437499997, 3.744140625) (-0.0002959608154296875, 3.74609375) (-0.00029340234375, 3.748046875) (-0.0002909320068359375, 3.75) (-0.000288573486328125, 3.751953125) (-0.00028635375976562497, 3.75390625) (-0.000284298583984375, 3.755859375) (-0.00028242999267578126, 3.7578125) (-0.000280769287109375, 3.759765625) (-0.0002793360595703125, 3.76171875) (-0.00027814718627929686, 3.763671875) (-0.0002772217102050781, 3.765625) (-0.0002765714111328125, 3.767578125) (-0.0002761964111328125, 3.76953125) (-0.0002760989990234375, 3.771484375) (-0.00027628399658203125, 3.7734375) (-0.0002767647705078125, 3.775390625) (-0.0002775693664550781, 3.77734375) (-0.0002787174987792969, 3.779296875) (-0.0002802108764648437, 3.78125) (-0.0002820467529296875, 3.783203125) (-0.0002842138671875, 3.78515625) (-0.00028668615722656247, 3.787109375) (-0.0002894344482421875, 3.7890625) (-0.00029240594482421873, 3.791015625) (-0.00029551727294921875, 3.79296875) (-0.0002986903076171875, 3.794921875) (-0.0003018495483398437, 3.796875) (-0.0003049324951171875, 3.798828125) (-0.00030790820312499997, 3.80078125) (-0.0003107375793457031, 3.802734375) (-0.000313360107421875, 3.8046875) (-0.0003157005310058594, 3.806640625) (-0.00031765841674804684, 3.80859375) (-0.0003191446533203125, 3.810546875) (-0.00032012329101562497, 3.8125) (-0.0003205672607421875, 3.814453125) (-0.0003204503173828125, 3.81640625) (-0.0003197959594726562, 3.818359375) (-0.00031865344238281247, 3.8203125) (-0.000317134033203125, 3.822265625) (-0.0003154330139160156, 3.82421875) (-0.000313720703125, 3.826171875) (-0.0003121357421875, 3.828125) (-0.00031080722045898437, 3.830078125) (-0.00030983203125, 3.83203125) (-0.0003093197326660156, 3.833984375) (-0.00030941656494140623, 3.8359375) (-0.0003102533569335937, 3.837890625) (-0.0003119910888671875, 3.83984375) (-0.00031484179687499996, 3.841796875) (-0.0003188574829101562, 3.84375) (-0.00032392645263671873, 3.845703125) (-0.0003298072814941406, 3.84765625) (-0.0003359873046875, 3.849609375) (-0.0003418774719238281, 3.8515625) (-0.0003469544982910156, 3.853515625) (-0.00035052685546874997, 3.85546875) (-0.00035175744628906247, 3.857421875) (-0.0003501405639648437, 3.859375) (-0.0003456636047363281, 3.861328125) (-0.0003388099670410156, 3.86328125) (-0.00033072119140625, 3.865234375) (-0.00032260479736328124, 3.8671875) (-0.0003151004943847656, 3.869140625) (-0.0003087010803222656, 3.87109375) (-0.00030406622314453125, 3.873046875) (-0.0003014134826660156, 3.875) (-0.0003000579833984375, 3.876953125) (-0.0002983291625976562, 3.87890625) (-0.00029325222778320314, 3.880859375) (-0.0002813072509765625, 3.8828125) (-0.0002600292053222656, 3.884765625) (-0.0002276768341064453, 3.88671875) (-0.0001821239013671875, 3.888671875) (-0.00012155506896972656, 3.890625) (-4.51808967590332e-05, 3.892578125) (4.653722763061523e-05, 3.89453125) (0.00014948332214355468, 3.896484375) (0.0002563095703125, 3.8984375) (0.0003608262939453125, 3.900390625) (0.00045919567871093747, 3.90234375) (0.0005518505859375, 3.904296875) (0.0006422210693359375, 3.90625) (0.0007296971435546874, 3.908203125) (0.00080523779296875, 3.91015625) (0.0008508135986328124, 3.912109375) (0.0008482878417968749, 3.9140625) (0.0007887241210937499, 3.916015625) (0.0006786192626953124, 3.91796875) (0.0005405630493164062, 3.919921875) (0.0003972825927734375, 3.921875) (0.00026371359252929684, 3.923828125) (0.00014553367614746093, 3.92578125) (3.788823318481445e-05, 3.927734375) (-6.18148193359375e-05, 3.9296875) (-0.00015075115966796875, 3.931640625) (-0.00022550538635253905, 3.93359375) (-0.0002817592468261719, 3.935546875) (-0.0003184018859863281, 3.9375) (-0.0003385484313964844, 3.939453125) (-0.0003460493774414062, 3.94140625) (-0.00034478411865234375, 3.943359375) (-0.00033920565795898436, 3.9453125) (-0.0003333095703125, 3.947265625) (-0.00032956201171875, 3.94921875) (-0.0003293114318847656, 3.951171875) (-0.00033270101928710937, 3.953125) (-0.00033874572753906247, 3.955078125) (-0.0003463223266601562, 3.95703125) (-0.00035435833740234373, 3.958984375) (-0.0003611549377441406, 3.9609375) (-0.0003649607543945312, 3.962890625) (-0.00036489373779296873, 3.96484375) (-0.00036070562744140624, 3.966796875) (-0.0003528730773925781, 3.96875) (-0.00034241900634765624, 3.970703125) (-0.00033031274414062497, 3.97265625) (-0.0003174681701660156, 3.974609375) (-0.00030489318847656246, 3.9765625) (-0.00029354602050781246, 3.978515625) (-0.0002840196533203125, 3.98046875) (-0.00027657568359375, 3.982421875) (-0.00027121240234375, 3.984375) (-0.00026771887207031246, 3.986328125) (-0.00026587829589843747, 3.98828125) (-0.0002654946899414062, 3.990234375) (-0.00026632611083984376, 3.9921875) (-0.0002680807495117187, 3.994140625) (-0.0002705309143066406, 3.99609375) (-0.00027349468994140625, 3.998046875) (-0.0002767544250488281, 4.0) (-0.00028011761474609374, 4.001953125) (-0.0002833572998046875, 4.00390625) (-0.0002862025756835937, 4.005859375) (-0.00028847509765625, 4.0078125) (-0.0002900682373046875, 4.009765625) (-0.000290900146484375, 4.01171875) (-0.00029094708251953125, 4.013671875) (-0.0002902216796875, 4.015625) (-0.00028874444580078123, 4.017578125) (-0.0002865824279785156, 4.01953125) (-0.0002838363037109375, 4.021484375) (-0.00028058700561523435, 4.0234375) (-0.0002769179382324219, 4.025390625) (-0.0002729091796875, 4.02734375) (-0.00026862606811523437, 4.029296875) (-0.0002641600341796875, 4.03125) (-0.00025961328124999997, 4.033203125) (-0.00025508627319335934, 4.03515625) (-0.0002506839599609375, 4.037109375) (-0.00024647958374023434, 4.0390625) (-0.00024251361083984374, 4.041015625) (-0.0002388146514892578, 4.04296875) (-0.00023539247131347654, 4.044921875) (-0.00023223934936523436, 4.046875) (-0.0002293411865234375, 4.048828125) (-0.00022666842651367187, 4.05078125) (-0.00022417776489257811, 4.052734375) (-0.00022183815002441406, 4.0546875) (-0.00021962583923339842, 4.056640625) (-0.0002175181884765625, 4.05859375) (-0.00021549917602539063, 4.060546875) (-0.00021354803466796873, 4.0625) (-0.0002116389465332031, 4.064453125) (-0.00020974810791015623, 4.06640625) (-0.00020785263061523436, 4.068359375) (-0.00020593304443359374, 4.0703125) (-0.00020397531127929686, 4.072265625) (-0.00020196810913085937, 4.07421875) (-0.00019990216064453124, 4.076171875) (-0.00019777230834960936, 4.078125) (-0.0001955764617919922, 4.080078125) (-0.00019331669616699218, 4.08203125) (-0.00019099902343749998, 4.083984375) (-0.00018862767028808594, 4.0859375) (-0.0001862048645019531, 4.087890625) (-0.00018373291015625, 4.08984375) (-0.00018121417236328124, 4.091796875) (-0.0001786531982421875, 4.09375) (-0.00017605685424804688, 4.095703125) (-0.00017343252563476561, 4.09765625) (-0.00017078784179687498, 4.099609375) (-0.00016813256835937498, 4.1015625) (-0.00016547892761230467, 4.103515625) (-0.00016284112548828125, 4.10546875) (-0.00016023532104492188, 4.107421875) (-0.00015767829895019532, 4.109375) (-0.00015518647766113282, 4.111328125) (-0.00015277638244628905, 4.11328125) (-0.00015046511840820313, 4.115234375) (-0.00014826992797851562, 4.1171875) (-0.00014620793151855468, 4.119140625) (-0.00014429592895507813, 4.12109375) (-0.00014254937744140623, 4.123046875) (-0.00014098245239257812, 4.125) (-0.00013960899353027343, 4.126953125) (-0.00013844194030761717, 4.12890625) (-0.00013749317932128905, 4.130859375) (-0.0001367735595703125, 4.1328125) (-0.0001362918701171875, 4.134765625) (-0.00013605499267578124, 4.13671875) (-0.00013606915283203124, 4.138671875) (-0.0001363394775390625, 4.140625) (-0.00013686929321289062, 4.142578125) (-0.00013766023254394532, 4.14453125) (-0.0001387112121582031, 4.146484375) (-0.0001400185852050781, 4.1484375) (-0.00014157772827148437, 4.150390625) (-0.00014338308715820312, 4.15234375) (-0.0001454272918701172, 4.154296875) (-0.0001477013244628906, 4.15625) (-0.00015019490051269532, 4.158203125) (-0.00015289691162109374, 4.16015625) (-0.00015579684448242185, 4.162109375) (-0.0001588855285644531, 4.1640625) (-0.00016215222167968748, 4.166015625) (-0.00016558401489257812, 4.16796875) (-0.00016916644287109375, 4.169921875) (-0.00017288418579101562, 4.171875) (-0.00017672103881835938, 4.173828125) (-0.00018065960693359375, 4.17578125) (-0.00018468016052246094, 4.177734375) (-0.00018875946044921875, 4.1796875) (-0.00019287475585937498, 4.181640625) (-0.000197005859375, 4.18359375) (-0.0002011342315673828, 4.185546875) (-0.0002052420959472656, 4.1875) (-0.0002093100128173828, 4.189453125) (-0.00021331732177734373, 4.19140625) (-0.00021724450683593749, 4.193359375) (-0.00022107312011718748, 4.1953125) (-0.0002247855224609375, 4.197265625) (-0.0002283636474609375, 4.19921875) (-0.00023178480529785156, 4.201171875) (-0.00023502505493164062, 4.203125) (-0.00023807015991210935, 4.205078125) (-0.00024091278076171873, 4.20703125) (-0.0002435528869628906, 4.208984375) (-0.00024600120544433595, 4.2109375) (-0.0002482590637207031, 4.212890625) (-0.00025031742858886715, 4.21484375) (-0.00025217294311523434, 4.216796875) (-0.0002538207702636719, 4.21875) (-0.00025525027465820313, 4.220703125) (-0.00025644723510742185, 4.22265625) (-0.0002573775634765625, 4.224609375) (-0.00025798809814453125, 4.2265625) (-0.00025823468017578124, 4.228515625) (-0.0002580817260742187, 4.23046875) (-0.0002575006103515625, 4.232421875) (-0.00025646588134765625, 4.234375) (-0.00025492469787597653, 4.236328125) (-0.00025281153869628905, 4.23828125) (-0.00025007089233398434, 4.240234375) (-0.000246646728515625, 4.2421875) (-0.00024251721191406248, 4.244140625) (-0.00023768910217285155, 4.24609375) (-0.00023214646911621093, 4.248046875) (-0.000225889892578125, 4.25) (-0.0002189529113769531, 4.251953125) (-0.0002113792266845703, 4.25390625) (-0.0002032774200439453, 4.255859375) (-0.0001948127746582031, 4.2578125) (-0.00018613275146484373, 4.259765625) (-0.00017739361572265624, 4.26171875) (-0.00016877279663085937, 4.263671875) (-0.0001604300842285156, 4.265625) (-0.00015261062622070313, 4.267578125) (-0.0001456363067626953, 4.26953125) (-0.0001396790771484375, 4.271484375) (-0.00013476148986816405, 4.2734375) (-0.00013070803833007812, 4.275390625) (-0.0001271209259033203, 4.27734375) (-0.00012368915557861327, 4.279296875) (-0.00012021520233154296, 4.28125) (-0.00011637882995605468, 4.283203125) (-0.00011170674896240234, 4.28515625) (-0.00010589412689208984, 4.287109375) (-9.900410461425781e-05, 4.2890625) (-9.168659973144531e-05, 4.291015625) (-8.517596435546874e-05, 4.29296875) (-8.045451354980468e-05, 4.294921875) (-7.79644775390625e-05, 4.296875) (-7.78980712890625e-05, 4.298828125) (-8.042654418945312e-05, 4.30078125) (-8.556475067138671e-05, 4.302734375) (-9.262370300292968e-05, 4.3046875) (-9.976497650146484e-05, 4.306640625) (-0.0001039660415649414, 4.30859375) (-0.00010221707916259765, 4.310546875) (-9.225613403320312e-05, 4.3125) (-7.242303466796875e-05, 4.314453125) (-4.1437656402587886e-05, 4.31640625) (2.2581000328063963e-06, 4.318359375) (5.9846107482910155e-05, 4.3203125) (0.00013080494689941407, 4.322265625) (0.00021280369567871092, 4.32421875) (0.00030124060058593746, 4.326171875) (0.00038984970092773437, 4.328125) (0.0004731917724609375, 4.330078125) (0.0005480736083984375, 4.33203125) (0.0006160607299804687, 4.333984375) (0.0006812373046875, 4.3359375) (0.0007455693969726562, 4.337890625) (0.00080499951171875, 4.33984375) (0.0008427217407226562, 4.341796875) (0.0008394020385742187, 4.34375) (0.0007811702880859375, 4.345703125) (0.0006633287963867188, 4.34765625) (0.0005040891723632812, 4.349609375) (0.00032996978759765625, 4.3515625) (0.00016842300415039063, 4.353515625) (4.740398788452148e-05, 4.35546875) (-2.6084026336669922e-05, 4.357421875) (-5.7262538909912106e-05, 4.359375) (-6.006434631347656e-05, 4.361328125) (-5.8937492370605464e-05, 4.36328125) (-6.580186462402344e-05, 4.365234375) (-8.252080535888672e-05, 4.3671875) (-0.00010507959747314453, 4.369140625) (-0.00012193939208984375, 4.37109375) (-0.00012937341308593748, 4.373046875) (-0.00013058856201171874, 4.375) (-0.00012910081481933594, 4.376953125) (-0.00012973304748535155, 4.37890625) (-0.00013389382934570312, 4.380859375) (-0.00013969540405273437, 4.3828125) (-0.00014600085449218748, 4.384765625) (-0.00015197860717773437, 4.38671875) (-0.00015658753967285154, 4.388671875) (-0.0001590274200439453, 4.390625) (-0.0001587830810546875, 4.392578125) (-0.0001556476593017578, 4.39453125) (-0.00015006144714355468, 4.396484375) (-0.0001429658966064453, 4.3984375) (-0.00013505258178710938, 4.400390625) (-0.0001267613754272461, 4.40234375) (-0.00011865788269042969, 4.404296875) (-0.00011131808471679687, 4.40625) (-0.00010514749145507812, 4.408203125) (-0.0001004072036743164, 4.41015625) (-9.709384155273437e-05, 4.412109375) (-9.496868896484374e-05, 4.4140625) (-9.3818115234375e-05, 4.416015625) (-9.346162414550781e-05, 4.41796875) (-9.369706726074218e-05, 4.419921875) (-9.433635711669921e-05, 4.421875) (-9.519566345214843e-05, 4.423828125) (-9.609706115722655e-05, 4.42578125) (-9.686654663085937e-05, 4.427734375) (-9.732256317138671e-05, 4.4296875) (-9.732643127441406e-05, 4.431640625) (-9.679155731201171e-05, 4.43359375) (-9.567023468017578e-05, 4.435546875) (-9.395414733886718e-05, 4.4375) (-9.16437759399414e-05, 4.439453125) (-8.874542236328125e-05, 4.44140625) (-8.530705261230468e-05, 4.443359375) (-8.142134094238281e-05, 4.4453125) (-7.718944549560546e-05, 4.447265625) (-7.271368408203125e-05, 4.44921875) (-6.808065795898437e-05, 4.451171875) (-6.33568000793457e-05, 4.453125) (-5.862744903564453e-05, 4.455078125) (-5.399044036865234e-05, 4.45703125) (-4.9550384521484374e-05, 4.458984375) (-4.541838836669922e-05, 4.4609375) (-4.167192077636719e-05, 4.462890625) (-3.8357238769531245e-05, 4.46484375) (-3.5510623931884766e-05, 4.466796875) (-3.3154300689697264e-05, 4.46875) (-3.12996597290039e-05, 4.470703125) (-2.9950939178466794e-05, 4.47265625) (-2.9089319229125975e-05, 4.474609375) (-2.8674083709716795e-05, 4.4765625) (-2.8670482635498046e-05, 4.478515625) (-2.9048078536987305e-05, 4.48046875) (-2.9777557373046873e-05, 4.482421875) (-3.083423233032226e-05, 4.484375) (-3.218268585205078e-05, 4.486328125) (-3.37784423828125e-05, 4.48828125) (-3.557766342163086e-05, 4.490234375) (-3.753662109375e-05, 4.4921875) (-3.961381912231445e-05, 4.494140625) (-4.177034759521484e-05, 4.49609375) (-4.3965480804443355e-05, 4.498046875) (-4.6157474517822264e-05, 4.5) (-4.830844497680664e-05, 4.501953125) (-5.0383205413818356e-05, 4.50390625) (-5.234976959228515e-05, 4.505859375) (-5.4179481506347656e-05, 4.5078125) (-5.5841354370117183e-05, 4.509765625) (-5.730339431762695e-05, 4.51171875) (-5.8535888671874994e-05, 4.513671875) (-5.951045989990234e-05, 4.515625) (-6.020146942138672e-05, 4.517578125) (-6.058665084838867e-05, 4.51953125) (-6.064540863037109e-05, 4.521484375) (-6.035956192016601e-05, 4.5234375) (-5.9715934753417966e-05, 4.525390625) (-5.8705627441406246e-05, 4.52734375) (-5.732337570190429e-05, 4.529296875) (-5.5567985534667965e-05, 4.53125) (-5.3441162109374995e-05, 4.533203125) (-5.0947547912597656e-05, 4.53515625) (-4.8095767974853517e-05, 4.537109375) (-4.4898059844970704e-05, 4.5390625) (-4.1369323730468745e-05, 4.541015625) (-3.752724456787109e-05, 4.54296875) (-3.339215850830078e-05, 4.544921875) (-2.8986896514892576e-05, 4.546875) (-2.433707046508789e-05, 4.548828125) (-1.947068405151367e-05, 4.55078125) (-1.4417125701904297e-05, 4.552734375) (-9.206830978393554e-06, 4.5546875) (-3.871551036834716e-06, 4.556640625) (1.5558706521987915e-06, 4.55859375) (7.041724205017089e-06, 4.560546875) (1.2551729202270507e-05, 4.5625) (1.8051809310913086e-05, 4.564453125) (2.350831604003906e-05, 4.56640625) (2.888790702819824e-05, 4.568359375) (3.415779113769531e-05, 4.5703125) (3.9286109924316404e-05, 4.572265625) (4.424235534667969e-05, 4.57421875) (4.899791717529297e-05, 4.576171875) (5.352626037597656e-05, 4.578125) (5.78027114868164e-05, 4.580078125) (6.18047637939453e-05, 4.58203125) (6.551219177246094e-05, 4.583984375) (6.890716552734374e-05, 4.5859375) (7.197486877441406e-05, 4.587890625) (7.470343017578125e-05, 4.58984375) (7.708353424072266e-05, 4.591796875) (7.910858154296874e-05, 4.59375) (8.077483367919921e-05, 4.595703125) (8.208126068115234e-05, 4.59765625) (8.30297622680664e-05, 4.599609375) (8.362515258789062e-05, 4.6015625) (8.387435913085937e-05, 4.603515625) (8.378643035888671e-05, 4.60546875) (8.337283325195313e-05, 4.607421875) (8.264703369140624e-05, 4.609375) (8.162432098388672e-05, 4.611328125) (8.032170867919922e-05, 4.61328125) (7.87572784423828e-05, 4.615234375) (7.695001983642578e-05, 4.6171875) (7.492025756835938e-05, 4.619140625) (7.268952941894531e-05, 4.62109375) (7.028018188476562e-05, 4.623046875) (6.771533203125e-05, 4.625) (6.501853179931641e-05, 4.626953125) (6.221367645263671e-05, 4.62890625) (5.932533645629883e-05, 4.630859375) (5.6378662109375e-05, 4.6328125) (5.3398681640625e-05, 4.634765625) (5.040988159179687e-05, 4.63671875) (4.74359245300293e-05, 4.638671875) (4.449958038330078e-05, 4.640625) (4.1623218536376954e-05, 4.642578125) (3.88286018371582e-05, 4.64453125) (3.613648986816406e-05, 4.646484375) (3.35665397644043e-05, 4.6484375) (3.113693809509277e-05, 4.650390625) (2.8864545822143553e-05, 4.65234375) (2.6765613555908203e-05, 4.654296875) (2.4855321884155274e-05, 4.65625) (2.3146963119506834e-05, 4.658203125) (2.1652240753173828e-05, 4.66015625) (2.038082122802734e-05, 4.662109375) (1.9340072631835938e-05, 4.6640625) (1.853643798828125e-05, 4.666015625) (1.7975090026855467e-05, 4.66796875) (1.765891647338867e-05, 4.669921875) (1.758923530578613e-05, 4.671875) (1.776599884033203e-05, 4.673828125) (1.8187578201293946e-05, 4.67578125) (1.8851959228515625e-05, 4.677734375) (1.9756855010986326e-05, 4.6796875) (2.0898332595825195e-05, 4.681640625) (2.22706298828125e-05, 4.68359375) (2.386658477783203e-05, 4.685546875) (2.567756462097168e-05, 4.6875) (2.7692975997924805e-05, 4.689453125) (2.9900373458862303e-05, 4.69140625) (3.2284420013427736e-05, 4.693359375) (3.4826271057128906e-05, 4.6953125) (3.7505619049072265e-05, 4.697265625) (4.030210113525391e-05, 4.69921875) (4.3194725036621093e-05, 4.701171875) (4.616154861450195e-05, 4.703125) (4.9181064605712885e-05, 4.705078125) (5.2231842041015624e-05, 4.70703125) (5.52935791015625e-05, 4.708984375) (5.8348815917968745e-05, 4.7109375) (6.137884902954102e-05, 4.712890625) (6.436268615722656e-05, 4.71484375) (6.727860260009766e-05, 4.716796875) (7.010404968261718e-05, 4.71875) (7.281879425048827e-05, 4.720703125) (7.540525817871093e-05, 4.72265625) (7.784553527832031e-05, 4.724609375) (8.012213134765625e-05, 4.7265625) (8.221980285644531e-05, 4.728515625) (8.412390899658203e-05, 4.73046875) (8.582680511474609e-05, 4.732421875) (8.732830047607421e-05, 4.734375) (8.861821746826171e-05, 4.736328125) (8.968038177490234e-05, 4.73828125) (9.049346923828125e-05, 4.740234375) (9.102313232421875e-05, 4.7421875) (9.124793243408203e-05, 4.744140625) (9.116361236572266e-05, 4.74609375) (9.0761474609375e-05, 4.748046875) (9.003572845458984e-05, 4.75) (8.89935302734375e-05, 4.751953125) (8.764627838134766e-05, 4.75390625) (8.603190612792968e-05, 4.755859375) (8.422203063964843e-05, 4.7578125) (8.227609252929687e-05, 4.759765625) (8.024839782714843e-05, 4.76171875) (7.818752288818359e-05, 4.763671875) (7.612028503417969e-05, 4.765625) (7.410873413085938e-05, 4.767578125) (7.223919677734375e-05, 4.76953125) (7.059136199951172e-05, 4.771484375) (6.926075744628906e-05, 4.7734375) (6.830442047119141e-05, 4.775390625) (6.77312774658203e-05, 4.77734375) (6.757725524902344e-05, 4.779296875) (6.787833404541015e-05, 4.78125) (6.862519073486328e-05, 4.783203125) (6.980059814453125e-05, 4.78515625) (7.130207824707031e-05, 4.787109375) (7.291607666015624e-05, 4.7890625) (7.44722900390625e-05, 4.791015625) (7.579931640624999e-05, 4.79296875) (7.67122802734375e-05, 4.794921875) (7.710675048828125e-05, 4.796875) (7.676131439208984e-05, 4.798828125) (7.535623931884766e-05, 4.80078125) (7.272315216064453e-05, 4.802734375) (6.878312683105469e-05, 4.8046875) (6.367585372924804e-05, 4.806640625) (5.782704925537109e-05, 4.80859375) (5.154818344116211e-05, 4.810546875) (4.5010124206542964e-05, 4.8125) (3.857500839233398e-05, 4.814453125) (3.268624114990234e-05, 4.81640625) (2.7722957611083982e-05, 4.818359375) (2.4062583923339844e-05, 4.8203125) (2.1370555877685547e-05, 4.822265625) (1.8668746948242185e-05, 4.82421875) (1.5207589149475098e-05, 4.826171875) (1.0345261573791503e-05, 4.828125) (3.7349424362182616e-06, 4.830078125) (-4.6126375198364255e-06, 4.83203125) (-1.4757086753845215e-05, 4.833984375) (-2.6558137893676758e-05, 4.8359375) (-3.867985534667969e-05, 4.837890625) (-4.878515625e-05, 4.83984375) (-5.425016784667969e-05, 4.841796875) (-5.2049354553222653e-05, 4.84375) (-4.000455474853515e-05, 4.845703125) (-1.6773967742919922e-05, 4.84765625) (1.9542926788330078e-05, 4.849609375) (7.064981079101562e-05, 4.8515625) (0.0001370655517578125, 4.853515625) (0.00021821600341796873, 4.85546875) (0.0003104489440917969, 4.857421875) (0.00040710223388671876, 4.859375) (0.0005028634948730468, 4.861328125) (0.0005944660034179687, 4.86328125) (0.000682675048828125, 4.865234375) (0.000770982666015625, 4.8671875) (0.0008576700439453125, 4.869140625) (0.000932882568359375, 4.87109375) (0.0009779093017578124, 4.873046875) (0.0009735808715820312, 4.875) (0.0009114785156249999, 4.876953125) (0.0007983875732421875, 4.87890625) (0.0006563040161132812, 4.880859375) (0.0005081614379882812, 4.8828125) (0.00036862664794921874, 4.884765625) (0.00024342297363281248, 4.88671875) (0.00012912374877929687, 4.888671875) (2.429340362548828e-05, 4.890625) (-6.741974639892578e-05, 4.892578125) (-0.00014199530029296875, 4.89453125) (-0.00019525738525390623, 4.896484375) (-0.00022653524780273437, 4.8984375) (-0.00023948303222656248, 4.900390625) (-0.00023874130249023435, 4.90234375) (-0.00022918527221679687, 4.904296875) (-0.00021621153259277344, 4.90625) (-0.00020445619201660156, 4.908203125) (-0.00019676243591308594, 4.91015625) (-0.00019460092163085937, 4.912109375) (-0.00019806007385253906, 4.9140625) (-0.00020597537231445312, 4.916015625) (-0.00021687783813476561, 4.91796875) (-0.00022922802734374998, 4.919921875) (-0.00024085055541992186, 4.921875) (-0.0002496615295410156, 4.923828125) (-0.0002546026611328125, 4.92578125) (-0.00025536158752441406, 4.927734375) (-0.0002523771362304687, 4.9296875) (-0.0002466684875488281, 4.931640625) (-0.0002392303009033203, 4.93359375) (-0.00023093869018554687, 4.935546875) (-0.00022278424072265623, 4.9375) (-0.00021567208862304687, 4.939453125) (-0.00021008323669433594, 4.94140625) (-0.0002062134552001953, 4.943359375) (-0.00020399554443359375, 4.9453125) (-0.00020315344238281248, 4.947265625) (-0.00020344557189941404, 4.94921875) (-0.00020466738891601561, 4.951171875) (-0.0002065765380859375, 4.953125) (-0.00020893206787109375, 4.955078125) (-0.00021156449890136718, 4.95703125) (-0.00021430332946777343, 4.958984375) (-0.00021696855163574219, 4.9609375) (-0.00021938684082031248, 4.962890625) (-0.00022133822631835936, 4.96484375) (-0.0002226485595703125, 4.966796875) (-0.00022322116088867186, 4.96875) (-0.00022299148559570313, 4.970703125) (-0.00022193229675292967, 4.97265625) (-0.0002200428009033203, 4.974609375) (-0.00021734391784667968, 4.9765625) (-0.00021389093017578123, 4.978515625) (-0.0002097727355957031, 4.98046875) (-0.00020507080078125, 4.982421875) (-0.00019985145568847656, 4.984375) (-0.0001941756591796875, 4.986328125) (-0.00018809487915039062, 4.98828125) (-0.000181682861328125, 4.990234375) (-0.00017503297424316405, 4.9921875) (-0.00016824472045898437, 4.994140625) (-0.0001614228515625, 4.99609375) (-0.00015464463806152344, 4.998046875) (-0.00014796031188964843, 5.0) (-0.00014140879821777344, 5.001953125) (-0.0001350141143798828, 5.00390625) (-0.00012878678894042968, 5.005859375) (-0.0001227259750366211, 5.0078125) (-0.00011681383514404296, 5.009765625) (-0.00011102049255371093, 5.01171875) (-0.000105326416015625, 5.013671875) (-9.972208404541015e-05, 5.015625) (-9.42022705078125e-05, 5.017578125) (-8.876664733886719e-05, 5.01953125) (-8.340904235839843e-05, 5.021484375) (-7.812013244628906e-05, 5.0234375) (-7.289241790771484e-05, 5.025390625) (-6.771880340576172e-05, 5.02734375) (-6.25961799621582e-05, 5.029296875) (-5.7525077819824216e-05, 5.03125) (-5.2507045745849604e-05, 5.033203125) (-4.7546581268310545e-05, 5.03515625) (-4.265290832519531e-05, 5.037109375) (-3.783824920654297e-05, 5.0390625) (-3.3118827819824215e-05, 5.041015625) (-2.8514476776123046e-05, 5.04296875) (-2.4042667388916014e-05, 5.044921875) (-1.9719026565551756e-05, 5.046875) (-1.5559231758117676e-05, 5.048828125) (-1.1577934265136718e-05, 5.05078125) (-7.790310382843017e-06, 5.052734375) (-4.212385654449462e-06, 5.0546875) (-8.5919851064682e-07, 5.056640625) (2.2548773288726804e-06, 5.05859375) (5.114230155944824e-06, 5.060546875) (7.702500820159912e-06, 5.0625) (1.0003145217895508e-05, 5.064453125) (1.1999563217163086e-05, 5.06640625) (1.367631149291992e-05, 5.068359375) (1.5019133567810058e-05, 5.0703125) (1.6014720916748047e-05, 5.072265625) (1.6651334762573243e-05, 5.07421875) (1.6919179916381837e-05, 5.076171875) (1.681060791015625e-05, 5.078125) (1.6320350646972656e-05, 5.080078125) (1.544522476196289e-05, 5.08203125) (1.4184254646301268e-05, 5.083984375) (1.2539154052734375e-05, 5.0859375) (1.0514158248901367e-05, 5.087890625) (8.116004943847655e-06, 5.08984375) (5.353944301605225e-06, 5.091796875) (2.2395524978637695e-06, 5.09375) (-1.2131966352462768e-06, 5.095703125) (-4.9876937866210935e-06, 5.09765625) (-9.064750671386718e-06, 5.099609375) (-1.3422849655151367e-05, 5.1015625) (-1.803817367553711e-05, 5.103515625) (-2.2884803771972655e-05, 5.10546875) (-2.793506622314453e-05, 5.107421875) (-3.315971374511719e-05, 5.109375) (-3.852805709838867e-05, 5.111328125) (-4.400825500488281e-05, 5.11328125) (-4.9567707061767576e-05, 5.115234375) (-5.517318725585937e-05, 5.1171875) (-6.079117202758789e-05, 5.119140625) (-6.638807678222656e-05, 5.12109375) (-7.192994689941406e-05, 5.123046875) (-7.738271331787109e-05, 5.125) (-8.27126235961914e-05, 5.126953125) (-8.788651275634765e-05, 5.12890625) (-9.287216186523437e-05, 5.130859375) (-9.763871765136718e-05, 5.1328125) (-0.0001021568145751953, 5.134765625) (-0.00010639889526367186, 5.13671875) (-0.00011033966064453124, 5.138671875) (-0.00011395635223388672, 5.140625) (-0.00011722880554199218, 5.142578125) (-0.00012013963317871093, 5.14453125) (-0.0001226742248535156, 5.146484375) (-0.00012482067871093748, 5.1484375) (-0.0001265699005126953, 5.150390625) (-0.0001279155578613281, 5.15234375) (-0.00012885406494140625, 5.154296875) (-0.00012938482666015626, 5.15625) (-0.00012950999450683594, 5.158203125) (-0.00012923463439941407, 5.16015625) (-0.0001285664825439453, 5.162109375) (-0.0001275158233642578, 5.1640625) (-0.00012609535217285157, 5.166015625) (-0.00012432019042968748, 5.16796875) (-0.00012220756530761717, 5.169921875) (-0.0001197763671875, 5.171875) (-0.00011704687499999999, 5.173828125) (-0.00011404053497314453, 5.17578125) (-0.00011077968597412108, 5.177734375) (-0.00010728771209716797, 5.1796875) (-0.00010358887481689453, 5.181640625) (-9.970782470703125e-05, 5.18359375) (-9.566935729980469e-05, 5.185546875) (-9.149856567382812e-05, 5.1875) (-8.722043609619141e-05, 5.189453125) (-8.286000061035156e-05, 5.19140625) (-7.844204711914063e-05, 5.193359375) (-7.399051666259765e-05, 5.1953125) (-6.952812194824218e-05, 5.197265625) (-6.507633972167969e-05, 5.19921875) (-6.065522384643554e-05, 5.201171875) (-5.6283329010009764e-05, 5.203125) (-5.19776496887207e-05, 5.205078125) (-4.775324249267578e-05, 5.20703125) (-4.3623046875e-05, 5.208984375) (-3.959814071655273e-05, 5.2109375) (-3.568790817260742e-05, 5.212890625) (-3.190032386779785e-05, 5.21484375) (-2.824204635620117e-05, 5.216796875) (-2.4717750549316407e-05, 5.21875) (-2.1330150604248047e-05, 5.220703125) (-1.8080110549926756e-05, 5.22265625) (-1.4966887474060058e-05, 5.224609375) (-1.1988676071166992e-05, 5.2265625) (-9.142631530761718e-06, 5.228515625) (-6.424300193786621e-06, 5.23046875) (-3.827619314193726e-06, 5.232421875) (-1.345965027809143e-06, 5.234375) (1.027618646621704e-06, 5.236328125) (3.300079822540283e-06, 5.23828125) (5.47802734375e-06, 5.240234375) (7.568779468536377e-06, 5.2421875) (9.580281257629394e-06, 5.244140625) (1.1520017623901367e-05, 5.24609375) (1.3394693374633789e-05, 5.248046875) (1.5210700035095214e-05, 5.25) (1.697393798828125e-05, 5.251953125) (1.869006538391113e-05, 5.25390625) (2.0365108489990235e-05, 5.255859375) (2.200411033630371e-05, 5.2578125) (2.3610662460327147e-05, 5.259765625) (2.5187416076660154e-05, 5.26171875) (2.6735578536987303e-05, 5.263671875) (2.8254480361938477e-05, 5.265625) (2.9741756439208982e-05, 5.267578125) (3.119263076782227e-05, 5.26953125) (3.259925842285156e-05, 5.271484375) (3.395208740234375e-05, 5.2734375) (3.524058532714844e-05, 5.275390625) (3.6453292846679684e-05, 5.27734375) (3.757858276367187e-05, 5.279296875) (3.8604484558105464e-05, 5.28125) (3.951897430419922e-05, 5.283203125) (4.0311389923095705e-05, 5.28515625) (4.097224807739258e-05, 5.287109375) (4.149176025390625e-05, 5.2890625) (4.185881423950195e-05, 5.291015625) (4.205950164794922e-05, 5.29296875) (4.207857513427734e-05, 5.294921875) (4.190370941162109e-05, 5.296875) (4.1525329589843746e-05, 5.298828125) (4.093474578857422e-05, 5.30078125) (4.012441253662109e-05, 5.302734375) (3.9087036132812495e-05, 5.3046875) (3.7815876007080077e-05, 5.306640625) (3.6312423706054685e-05, 5.30859375) (3.458510971069336e-05, 5.310546875) (3.263627243041992e-05, 5.3125) (3.046163749694824e-05, 5.314453125) (2.8047803878784178e-05, 5.31640625) (2.5373823165893555e-05, 5.318359375) (2.2429763793945312e-05, 5.3203125) (1.922148895263672e-05, 5.322265625) (1.5760306358337402e-05, 5.32421875) (1.2057486534118652e-05, 5.326171875) (8.130084037780761e-06, 5.328125) (4.001595020294189e-06, 5.330078125) (-2.83842921257019e-07, 5.33203125) (-4.6565456390380854e-06, 5.333984375) (-9.049798965454102e-06, 5.3359375) (-1.3403968811035156e-05, 5.337890625) (-1.7675224304199217e-05, 5.33984375) (-2.1831871032714843e-05, 5.341796875) (-2.5814893722534178e-05, 5.34375) (-2.9538200378417967e-05, 5.345703125) (-3.289969635009765e-05, 5.34765625) (-3.5795829772949216e-05, 5.349609375) (-3.81563720703125e-05, 5.3515625) (-3.995840454101562e-05, 5.353515625) (-4.118520355224609e-05, 5.35546875) (-4.1799251556396486e-05, 5.357421875) (-4.1795867919921874e-05, 5.359375) (-4.1190109252929685e-05, 5.361328125) (-4.003923797607422e-05, 5.36328125) (-3.849302291870117e-05, 5.365234375) (-3.669588088989258e-05, 5.3671875) (-3.47646484375e-05, 5.369140625) (-3.282275390625e-05, 5.37109375) (-3.0987903594970704e-05, 5.373046875) (-2.9392066955566406e-05, 5.375) (-2.8279800415039063e-05, 5.376953125) (-2.7981393814086913e-05, 5.37890625) (-2.8660121917724607e-05, 5.380859375) (-3.027838897705078e-05, 5.3828125) (-3.255179977416992e-05, 5.384765625) (-3.4975467681884766e-05, 5.38671875) (-3.7196659088134764e-05, 5.388671875) (-3.903431701660156e-05, 5.390625) (-4.0176803588867184e-05, 5.392578125) (-4.006776428222656e-05, 5.39453125) (-3.831212615966797e-05, 5.396484375) (-3.498579788208008e-05, 5.3984375) (-3.086590576171875e-05, 5.400390625) (-2.741410255432129e-05, 5.40234375) (-2.571831130981445e-05, 5.404296875) (-2.6048484802246093e-05, 5.40625) (-2.833311080932617e-05, 5.408203125) (-3.2559432983398434e-05, 5.41015625) (-3.857183456420898e-05, 5.412109375) (-4.5544097900390624e-05, 5.4140625) (-5.149476242065429e-05, 5.416015625) (-5.310331344604492e-05, 5.41796875) (-4.716622161865234e-05, 5.419921875) (-3.1694034576416015e-05, 5.421875) (-5.5176219940185545e-06, 5.423828125) (3.239376449584961e-05, 5.42578125) (8.317696380615234e-05, 5.427734375) (0.00014730172729492187, 5.4296875) (0.00022389967346191406, 5.431640625) (0.00031028106689453123, 5.43359375) (0.0004028140258789062, 5.435546875) (0.0004983736877441406, 5.4375) (0.00059409765625, 5.439453125) (0.000686353759765625, 5.44140625) (0.0007703292846679687, 5.443359375) (0.0008411098632812499, 5.4453125) (0.0008942530517578125, 5.447265625) (0.0009264881591796875, 5.44921875) (0.0009360505981445312, 5.451171875) (0.0009213496093749999, 5.453125) (0.000881432861328125, 5.455078125) (0.000817609619140625, 5.45703125) (0.0007335466918945312, 5.458984375) (0.0006341989135742188, 5.4609375) (0.00052562841796875, 5.462890625) (0.0004141946411132812, 5.46484375) (0.0003055607299804687, 5.466796875) (0.00020579571533203123, 5.46875) (0.0001204886245727539, 5.470703125) (5.271440887451172e-05, 5.47265625) (3.33677077293396e-06, 5.474609375) (-2.835628318786621e-05, 5.4765625) (-4.4744701385498045e-05, 5.478515625) (-4.9007011413574215e-05, 5.48046875) (-4.439839172363281e-05, 5.482421875) (-3.515667343139648e-05, 5.484375) (-2.559046936035156e-05, 5.486328125) (-1.83607120513916e-05, 5.48828125) (-1.4852529525756835e-05, 5.490234375) (-1.5381731033325194e-05, 5.4921875) (-1.917633247375488e-05, 5.494140625) (-2.517816925048828e-05, 5.49609375) (-3.233213424682617e-05, 5.498046875) (-3.899508285522461e-05, 5.5) (-4.343171691894531e-05, 5.501953125) (-4.476722717285156e-05, 5.50390625) (-4.277398300170898e-05, 5.505859375) (-3.78221321105957e-05, 5.5078125) (-3.080743408203125e-05, 5.509765625) (-2.2610137939453126e-05, 5.51171875) (-1.3964263916015624e-05, 5.513671875) (-5.714531898498535e-06, 5.515625) (1.3130428791046143e-06, 5.517578125) (6.662343978881836e-06, 5.51953125) (1.013071060180664e-05, 5.521484375) (1.1742530822753905e-05, 5.5234375) (1.1744220733642578e-05, 5.525390625) (1.036892795562744e-05, 5.52734375) (7.817702770233155e-06, 5.529296875) (4.344892978668213e-06, 5.53125) (2.1643877029418945e-07, 5.533203125) (-4.36662483215332e-06, 5.53515625) (-9.201634407043456e-06, 5.537109375) (-1.4079209327697754e-05, 5.5390625) (-1.881206703186035e-05, 5.541015625) (-2.318317985534668e-05, 5.54296875) (-2.7020486831665037e-05, 5.544921875) (-3.0227052688598632e-05, 5.546875) (-3.273645782470703e-05, 5.548828125) (-3.451507949829101e-05, 5.55078125) (-3.55568733215332e-05, 5.552734375) (-3.5880455017089845e-05, 5.5546875) (-3.553664779663086e-05, 5.556640625) (-3.460715484619141e-05, 5.55859375) (-3.317020416259766e-05, 5.560546875) (-3.1292888641357424e-05, 5.5625) (-2.9039421081542967e-05, 5.564453125) (-2.6467451095581054e-05, 5.56640625) (-2.365286636352539e-05, 5.568359375) (-2.0685497283935546e-05, 5.5703125) (-1.765645408630371e-05, 5.572265625) (-1.4656763076782226e-05, 5.57421875) (-1.1750055313110352e-05, 5.576171875) (-8.974234580993652e-06, 5.578125) (-6.35540771484375e-06, 5.580078125) (-3.905040025711059e-06, 5.58203125) (-1.621153950691223e-06, 5.583984375) (5.095500349998474e-07, 5.5859375) (2.5148611068725583e-06, 5.587890625) (4.432273864746094e-06, 5.58984375) (6.290477752685547e-06, 5.591796875) (8.110234260559082e-06, 5.59375) (9.909265518188476e-06, 5.595703125) (1.1702187538146973e-05, 5.59765625) (1.3508671760559082e-05, 5.599609375) (1.535061264038086e-05, 5.6015625) (1.7248712539672852e-05, 5.603515625) (1.9223602294921875e-05, 5.60546875) (2.129262924194336e-05, 5.607421875) (2.347018814086914e-05, 5.609375) (2.5769235610961913e-05, 5.611328125) (2.8199462890625e-05, 5.61328125) (3.076607322692871e-05, 5.615234375) (3.347164916992187e-05, 5.6171875) (3.631539154052734e-05, 5.619140625) (3.929341125488281e-05, 5.62109375) (4.2403076171875e-05, 5.623046875) (4.564229583740234e-05, 5.625) (4.900858688354492e-05, 5.626953125) (5.2499702453613276e-05, 5.62890625) (5.611222839355469e-05, 5.630859375) (5.9840980529785156e-05, 5.6328125) (6.367875671386718e-05, 5.634765625) (6.761555480957031e-05, 5.63671875) (7.163817596435547e-05, 5.638671875) (7.573045349121093e-05, 5.640625) (7.987223815917968e-05, 5.642578125) (8.403993225097656e-05, 5.64453125) (8.820652770996094e-05, 5.646484375) (9.234121704101561e-05, 5.6484375) (9.641278076171874e-05, 5.650390625) (0.00010039064788818359, 5.65234375) (0.0001042427978515625, 5.654296875) (0.00010793637084960937, 5.65625) (0.00011143910217285156, 5.658203125) (0.00011471808624267577, 5.66015625) (0.00011774224853515624, 5.662109375) (0.0001204833984375, 5.6640625) (0.0001229098663330078, 5.666015625) (0.0001249864501953125, 5.66796875) (0.0001266765670776367, 5.669921875) (0.00012794117736816406, 5.671875) (0.00012874137878417967, 5.673828125) (0.00012904013061523437, 5.67578125) (0.00012879853820800782, 5.677734375) (0.0001279764862060547, 5.6796875) (0.000126537353515625, 5.681640625) (0.00012444633483886717, 5.68359375) (0.00012167537689208983, 5.685546875) (0.00011820486450195312, 5.6875) (0.0001140105743408203, 5.689453125) (0.00010906584167480468, 5.69140625) (0.00010334097290039062, 5.693359375) (9.680001831054687e-05, 5.6953125) (8.941954803466796e-05, 5.697265625) (8.119274139404296e-05, 5.69921875) (7.211395263671874e-05, 5.701171875) (6.21815414428711e-05, 5.703125) (5.141120910644531e-05, 5.705078125) (3.98281135559082e-05, 5.70703125) (2.7482316970825193e-05, 5.708984375) (1.4452266693115234e-05, 5.7109375) (7.959303855895996e-07, 5.712890625) (-1.3447854042053222e-05, 5.71484375) (-2.8252454757690428e-05, 5.716796875) (-4.3613162994384764e-05, 5.71875) (-5.9518295288085936e-05, 5.720703125) (-7.594607543945313e-05, 5.72265625) (-9.28818130493164e-05, 5.724609375) (-0.00011031065368652343, 5.7265625) (-0.00012821817016601562, 5.728515625) (-0.00014660107421875, 5.73046875) (-0.00016543669128417967, 5.732421875) (-0.0001846820068359375, 5.734375) (-0.00020432801818847656, 5.736328125) (-0.0002243834533691406, 5.73828125) (-0.00024489495849609375, 5.740234375) (-0.00026595965576171876, 5.7421875) (-0.0002876148681640625, 5.744140625) (-0.00030983502197265623, 5.74609375) (-0.00033256854248046874, 5.748046875) (-0.00035571734619140624, 5.75) (-0.00037916342163085936, 5.751953125) (-0.0004027849731445312, 5.75390625) (-0.0004264105224609375, 5.755859375) (-0.0004498266906738281, 5.7578125) (-0.00047284286499023434, 5.759765625) (-0.00049527587890625, 5.76171875) (-0.0005169749145507813, 5.763671875) (-0.000537834716796875, 5.765625) (-0.0005577012939453125, 5.767578125) (-0.0005763894653320312, 5.76953125) (-0.0005936806030273437, 5.771484375) (-0.000609302734375, 5.7734375) (-0.00062305517578125, 5.775390625) (-0.0006348206176757812, 5.77734375) (-0.0006445059204101563, 5.779296875) (-0.000652066650390625, 5.78125) (-0.0006575087280273437, 5.783203125) (-0.0006608621215820312, 5.78515625) (-0.0006622396240234374, 5.787109375) (-0.0006618363037109374, 5.7890625) (-0.0006598048095703124, 5.791015625) (-0.0006562705078125, 5.79296875) (-0.0006513331298828124, 5.794921875) (-0.000645042724609375, 5.796875) (-0.000637496337890625, 5.798828125) (-0.00062883154296875, 5.80078125) (-0.000619202392578125, 5.802734375) (-0.0006087993774414062, 5.8046875) (-0.0005977808837890625, 5.806640625) (-0.0005862551269531249, 5.80859375) (-0.0005743299560546875, 5.810546875) (-0.0005620993041992187, 5.8125) (-0.0005496141967773437, 5.814453125) (-0.0005369042358398437, 5.81640625) (-0.0005239393310546875, 5.818359375) (-0.00051062109375, 5.8203125) (-0.0004968974609375, 5.822265625) (-0.0004827611389160156, 5.82421875) (-0.0004682276611328125, 5.826171875) (-0.00045335659790039063, 5.828125) (-0.0004381946105957031, 5.830078125) (-0.00042276791381835936, 5.83203125) (-0.0004071142578125, 5.833984375) (-0.0003912744445800781, 5.8359375) (-0.00037529403686523436, 5.837890625) (-0.0003592322082519531, 5.83984375) (-0.00034314294433593747, 5.841796875) (-0.0003270689086914062, 5.84375) (-0.00031107196044921875, 5.845703125) (-0.00029523333740234375, 5.84765625) (-0.0002796598815917969, 5.849609375) (-0.00026449383544921873, 5.8515625) (-0.0002498618469238281, 5.853515625) (-0.0002358567657470703, 5.85546875) (-0.00022255105590820312, 5.857421875) (-0.00020999667358398435, 5.859375) (-0.00019823541259765624, 5.861328125) (-0.00018729983520507812, 5.86328125) (-0.00017719871520996094, 5.865234375) (-0.00016790176391601563, 5.8671875) (-0.00015935691833496093, 5.869140625) (-0.00015151626586914062, 5.87109375) (-0.0001443363342285156, 5.873046875) (-0.00013778677368164063, 5.875) (-0.00013184356689453124, 5.876953125) (-0.00012646256256103515, 5.87890625) (-0.00012158125305175781, 5.880859375) (-0.00011712609863281249, 5.8828125) (-0.00011301091766357422, 5.884765625) (-0.00010915570831298828, 5.88671875) (-0.00010549906158447266, 5.888671875) (-0.00010197461700439453, 5.890625) (-9.852000427246094e-05, 5.892578125) (-9.511231231689452e-05, 5.89453125) (-9.176700592041015e-05, 5.896484375) (-8.856440734863281e-05, 5.8984375) (-8.564738464355468e-05, 5.900390625) (-8.315114593505858e-05, 5.90234375) (-8.117752838134765e-05, 5.904296875) (-7.980548858642578e-05, 5.90625) (-7.910017395019531e-05, 5.908203125) (-7.913443756103515e-05, 5.91015625) (-8.000917053222656e-05, 5.912109375) (-8.182095336914062e-05, 5.9140625) (-8.464805603027343e-05, 5.916015625) (-8.855807495117187e-05, 5.91796875) (-9.363257598876953e-05, 5.919921875) (-0.0001000125274658203, 5.921875) (-0.00010775077819824218, 5.923828125) (-0.00011667926788330077, 5.92578125) (-0.00012639482116699218, 5.927734375) (-0.00013622080993652344, 5.9296875) (-0.00014537574768066407, 5.931640625) (-0.00015319903564453124, 5.93359375) (-0.00015902279663085938, 5.935546875) (-0.00016200256347656249, 5.9375) (-0.0001615495910644531, 5.939453125) (-0.00015763162231445313, 5.94140625) (-0.000150727294921875, 5.943359375) (-0.00014200714111328125, 5.9453125) (-0.0001328102111816406, 5.947265625) (-0.00012391783142089844, 5.94921875) (-0.00011601774597167969, 5.951171875) (-0.00011005377197265625, 5.953125) (-0.00010637677001953125, 5.955078125) (-0.00010429947662353515, 5.95703125) (-0.00010209492492675781, 5.958984375) (-9.6594970703125e-05, 5.9609375) (-8.417543792724609e-05, 5.962890625) (-6.211154556274414e-05, 5.96484375) (-2.7671220779418944e-05, 5.966796875) (2.220633888244629e-05, 5.96875) (8.957327270507811e-05, 5.970703125) (0.0001750292053222656, 5.97265625) (0.0002772159423828125, 5.974609375) (0.000392208740234375, 5.9765625) (0.00051485400390625, 5.978515625) (0.0006400390014648437, 5.98046875) (0.0007614677124023438, 5.982421875) (0.0008716832275390625, 5.984375) (0.0009635370483398437, 5.986328125) (0.0010306530761718749, 5.98828125) (0.001068875244140625, 5.990234375) (0.00107666455078125, 5.9921875) (0.0010537186279296876, 5.994140625) (0.0010009130859375, 5.99609375) (0.0009215191650390625, 5.998046875) (0.0008211014404296875, 6.0) (0.0007066998291015624, 6.001953125) (0.0005860579223632812, 6.00390625) (0.00046556634521484374, 6.005859375) (0.00035058813476562497, 6.0078125) (0.00024654476928710935, 6.009765625) (0.0001578479309082031, 6.01171875) (8.715830993652343e-05, 6.013671875) (3.492325210571289e-05, 6.015625) (-7.376241683959961e-07, 6.017578125) (-2.2877296447753906e-05, 6.01953125) (-3.403023910522461e-05, 6.021484375) (-3.690835952758789e-05, 6.0234375) (-3.4956012725830076e-05, 6.025390625) (-3.140047645568847e-05, 6.02734375) (-2.9136325836181638e-05, 6.029296875) (-2.973242950439453e-05, 6.03125) (-3.2979766845703125e-05, 6.033203125) (-3.8001647949218745e-05, 6.03515625) (-4.4004146575927733e-05, 6.037109375) (-5.005500793457031e-05, 6.0390625) (-5.506165313720703e-05, 6.041015625) (-5.791451263427734e-05, 6.04296875) (-5.7382690429687496e-05, 6.044921875) (-5.2936645507812495e-05, 6.046875) (-4.493098449707031e-05, 6.048828125) (-3.404707336425781e-05, 6.05078125) (-2.1223873138427733e-05, 6.052734375) (-7.390594482421875e-06, 6.0546875) (6.706496238708496e-06, 6.056640625) (2.0266952514648436e-05, 6.05859375) (3.25117073059082e-05, 6.060546875) (4.2931919097900387e-05, 6.0625) (5.115652465820312e-05, 6.064453125) (5.70964126586914e-05, 6.06640625) (6.103301239013672e-05, 6.068359375) (6.351078796386719e-05, 6.0703125) (6.54010238647461e-05, 6.072265625) (6.767881774902343e-05, 6.07421875) (7.115264892578125e-05, 6.076171875) (7.673369598388672e-05, 6.078125) (8.558364868164063e-05, 6.080078125) (9.853422546386718e-05, 6.08203125) (0.0001160196533203125, 6.083984375) (0.00013755699157714843, 6.0859375) (0.00016155601501464844, 6.087890625) (0.00018671498107910155, 6.08984375) (0.00021187245178222656, 6.091796875) (0.00023545010375976562, 6.09375) (0.0002558774719238281, 6.095703125) (0.00027165985107421874, 6.09765625) (0.00028432366943359374, 6.099609375) (0.00029988745117187496, 6.1015625) (0.0003248020629882812, 6.103515625) (0.00036425451660156247, 6.10546875) (0.0004153060913085937, 6.107421875) (0.00046744000244140625, 6.109375) (0.0005160242919921875, 6.111328125) (0.0005623115844726563, 6.11328125) (0.0006231161499023437, 6.115234375) (0.0007280551757812499, 6.1171875) (0.0008947257690429687, 6.119140625) (0.00113046435546875, 6.12109375) (0.0014185483398437499, 6.123046875) (0.0017156289062499998, 6.125) (0.0019806309814453123, 6.126953125) (0.0021738793945312498, 6.12890625) (0.002272723388671875, 6.130859375) (0.0022838398437499997, 6.1328125) (0.0022207890625, 6.134765625) (0.0021034541015625, 6.13671875) (0.0019521528320312499, 6.138671875) (0.001776093017578125, 6.140625) (0.0015866834716796875, 6.142578125) (0.001400722900390625, 6.14453125) (0.0012316157226562499, 6.146484375) (0.00108993017578125, 6.1484375) (0.00097744921875, 6.150390625) (0.0008824894409179687, 6.15234375) (0.000793811279296875, 6.154296875) (0.0007063505859374999, 6.15625) (0.0006210886840820313, 6.158203125) (0.0005463681030273437, 6.16015625) (0.00048792138671874995, 6.162109375) (0.0004451119995117187, 6.1640625) (0.0004131455993652344, 6.166015625) (0.00038474102783203124, 6.16796875) (0.00035508331298828125, 6.169921875) (0.0003224459533691406, 6.171875) (0.00028700732421875, 6.173828125) (0.0002502716674804687, 6.17578125) (0.0002133536376953125, 6.177734375) (0.00017714761352539062, 6.1796875) (0.00014321212768554688, 6.181640625) (0.00011301953125, 6.18359375) (8.791275787353515e-05, 6.185546875) (6.915411376953125e-05, 6.1875) (5.691304779052734e-05, 6.189453125) (5.06426773071289e-05, 6.19140625) (4.9616527557373045e-05, 6.193359375) (5.2816059112548824e-05, 6.1953125) (5.923077392578125e-05, 6.197265625) (6.802416229248046e-05, 6.19921875) (7.82817153930664e-05, 6.201171875) (8.907866668701171e-05, 6.203125) (9.991160583496093e-05, 6.205078125) (0.00011054242706298827, 6.20703125) (0.00012089944458007812, 6.208984375) (0.00013112648010253907, 6.2109375) (0.00014124818420410156, 6.212890625) (0.0001511944885253906, 6.21484375) (0.00016100408935546874, 6.216796875) (0.00017075950622558593, 6.21875) (0.00018056460571289063, 6.220703125) (0.00019057284545898436, 6.22265625) (0.0002009151611328125, 6.224609375) (0.0002116830596923828, 6.2265625) (0.00022298583984375, 6.228515625) (0.00023489971923828124, 6.23046875) (0.0002474652709960937, 6.232421875) (0.0002606990966796875, 6.234375) (0.0002745066223144531, 6.236328125) (0.0002887218933105469, 6.23828125) (0.0003031221923828125, 6.240234375) (0.0003174104919433594, 6.2421875) (0.00033134985351562497, 6.244140625) (0.000344737548828125, 6.24609375) (0.0003573067626953125, 6.248046875) (0.0003687798156738281, 6.25) (0.0003788504028320312, 6.251953125) (0.00038715585327148437, 6.25390625) (0.00039335638427734376, 6.255859375) (0.000397117919921875, 6.2578125) (0.00039807354736328126, 6.259765625) (0.00039592291259765624, 6.26171875) (0.00039043084716796874, 6.263671875) (0.00038140643310546874, 6.265625) (0.00036878161621093747, 6.267578125) (0.0003525521545410156, 6.26953125) (0.00033275399780273435, 6.271484375) (0.00030950524902343746, 6.2734375) (0.0002829055480957031, 6.275390625) (0.00025304217529296876, 6.27734375) (0.00022007167053222655, 6.279296875) (0.0001841650390625, 6.28125) (0.0001455060119628906, 6.283203125) (0.0001043487319946289, 6.28515625) (6.096081924438476e-05, 6.287109375) (1.563888168334961e-05, 6.2890625) (-3.123688316345215e-05, 6.291015625) (-7.932254028320312e-05, 6.29296875) (-0.00012833717346191406, 6.294921875) (-0.0001780252685546875, 6.296875) (-0.00022821009826660155, 6.298828125) (-0.0002787490234375, 6.30078125) (-0.00032950311279296874, 6.302734375) (-0.00038038812255859376, 6.3046875) (-0.00043132702636718747, 6.306640625) (-0.00048222387695312497, 6.30859375) (-0.0005330264892578125, 6.310546875) (-0.000583695068359375, 6.3125) (-0.0006341839599609374, 6.314453125) (-0.0006845050048828124, 6.31640625) (-0.000734690673828125, 6.318359375) (-0.0007847890625, 6.3203125) (-0.0008349183349609375, 6.322265625) (-0.00088518017578125, 6.32421875) (-0.0009356068115234375, 6.326171875) (-0.0009861968994140625, 6.328125) (-0.0010368927001953125, 6.330078125) (-0.0010875908203125, 6.33203125) (-0.0011381759033203124, 6.333984375) (-0.00118848681640625, 6.3359375) (-0.001238332275390625, 6.337890625) (-0.0012875328369140624, 6.33984375) (-0.00133586669921875, 6.341796875) (-0.0013830794677734373, 6.34375) (-0.0014289013671875, 6.345703125) (-0.0014730106201171875, 6.34765625) (-0.0015150908203125, 6.349609375) (-0.0015548524169921875, 6.3515625) (-0.0015919771728515623, 6.353515625) (-0.0016261524658203125, 6.35546875) (-0.0016571365966796875, 6.357421875) (-0.001684741455078125, 6.359375) (-0.00170885107421875, 6.361328125) (-0.0017294310302734374, 6.36328125) (-0.00174646875, 6.365234375) 