(-0.00010940743255615233, 0.0) (-0.0001085257797241211, 0.001953125) (-0.00010821111297607421, 0.00390625) (-0.00010811293029785155, 0.005859375) (-0.00010759927368164062, 0.0078125) (-0.00010592272949218749, 0.009765625) (-0.0001026361846923828, 0.01171875) (-9.747122192382813e-05, 0.013671875) (-9.002865600585937e-05, 0.015625) (-8.001869201660155e-05, 0.017578125) (-6.756475067138671e-05, 0.01953125) (-5.3326419830322265e-05, 0.021484375) (-3.856705093383789e-05, 0.0234375) (-2.460101318359375e-05, 0.025390625) (-1.2250115394592285e-05, 0.02734375) (-2.145836591720581e-06, 0.029296875) (4.716203212738037e-06, 0.03125) (7.117761135101318e-06, 0.033203125) (4.102538108825683e-06, 0.03515625) (-4.5635719299316405e-06, 0.037109375) (-1.8140758514404297e-05, 0.0390625) (-3.569797134399414e-05, 0.041015625) (-5.655458068847656e-05, 0.04296875) (-7.978309631347655e-05, 0.044921875) (-0.0001034062042236328, 0.046875) (-0.00012427680969238282, 0.048828125) (-0.0001388021240234375, 0.05078125) (-0.00014373403930664061, 0.052734375) (-0.00013643238830566407, 0.0546875) (-0.0001143799591064453, 0.056640625) (-7.511585235595703e-05, 0.05859375) (-1.6457946777343748e-05, 0.060546875) (6.0716064453125e-05, 0.0625) (0.00015156027221679687, 0.064453125) (0.00025068011474609374, 0.06640625) (0.00035224645996093746, 0.068359375) (0.0004533526000976562, 0.0703125) (0.0005563916015625, 0.072265625) (0.0006601915283203125, 0.07421875) (0.0007575449829101562, 0.076171875) (0.00083674658203125, 0.078125) (0.0008787715454101563, 0.080078125) (0.00086760546875, 0.08203125) (0.00080005224609375, 0.083984375) (0.0006803925170898437, 0.0859375) (0.0005205286254882812, 0.087890625) (0.0003396649475097656, 0.08984375) (0.00015367550659179687, 0.091796875) (-2.146744918823242e-05, 0.09375) (-0.00016561166381835935, 0.095703125) (-0.000267621826171875, 0.09765625) (-0.0003244781494140625, 0.099609375) (-0.0003388197631835937, 0.1015625) (-0.00032642623901367186, 0.103515625) (-0.00030113104248046874, 0.10546875) (-0.00026828106689453124, 0.107421875) (-0.00023503109741210938, 0.109375) (-0.00020128617858886718, 0.111328125) (-0.00016636326599121093, 0.11328125) (-0.0001367431945800781, 0.115234375) (-0.00011182476806640624, 0.1171875) (-9.200902557373046e-05, 0.119140625) (-7.963151550292969e-05, 0.12109375) (-7.166682434082031e-05, 0.123046875) (-6.954225158691405e-05, 0.125) (-7.457049560546875e-05, 0.126953125) (-8.497871398925781e-05, 0.12890625) (-0.00010012071228027343, 0.130859375) (-0.00011741989135742187, 0.1328125) (-0.0001338061981201172, 0.134765625) (-0.00014724560546874998, 0.13671875) (-0.00015642239379882813, 0.138671875) (-0.00016119332885742186, 0.140625) (-0.0001618905029296875, 0.142578125) (-0.00015912879943847654, 0.14453125) (-0.00015376986694335936, 0.146484375) (-0.00014650253295898436, 0.1484375) (-0.00013830282592773436, 0.150390625) (-0.00013052243041992187, 0.15234375) (-0.00012388743591308594, 0.154296875) (-0.00011871194458007812, 0.15625) (-0.00011511196899414063, 0.158203125) (-0.00011274406433105469, 0.16015625) (-0.00011128165435791015, 0.162109375) (-0.00011049746704101563, 0.1640625) (-0.00010994499206542969, 0.166015625) (-0.00010912449645996093, 0.16796875) (-0.00010777509307861328, 0.169921875) (-0.0001057586669921875, 0.171875) (-0.00010306752014160156, 0.173828125) (-9.985107421874999e-05, 0.17578125) (-9.618787384033202e-05, 0.177734375) (-9.212703704833984e-05, 0.1796875) (-8.77774658203125e-05, 0.181640625) (-8.32320327758789e-05, 0.18359375) (-7.856904602050781e-05, 0.185546875) (-7.385963439941406e-05, 0.1875) (-6.913746643066406e-05, 0.189453125) (-6.443495941162109e-05, 0.19140625) (-5.981740188598632e-05, 0.193359375) (-5.53696060180664e-05, 0.1953125) (-5.118862152099609e-05, 0.197265625) (-4.735754776000976e-05, 0.19921875) (-4.392991638183594e-05, 0.201171875) (-4.094757843017578e-05, 0.203125) (-3.8441432952880856e-05, 0.205078125) (-3.643207550048828e-05, 0.20703125) (-3.493873596191406e-05, 0.208984375) (-3.396377563476562e-05, 0.2109375) (-3.3495445251464845e-05, 0.212890625) (-3.352975845336914e-05, 0.21484375) (-3.406106567382812e-05, 0.216796875) (-3.507995223999023e-05, 0.21875) (-3.657831954956055e-05, 0.220703125) (-3.853578948974609e-05, 0.22265625) (-4.092131805419922e-05, 0.224609375) (-4.370191192626953e-05, 0.2265625) (-4.683824157714844e-05, 0.228515625) (-5.028781127929687e-05, 0.23046875) (-5.401063537597656e-05, 0.232421875) (-5.796435546875e-05, 0.234375) (-6.210550689697265e-05, 0.236328125) (-6.639362335205078e-05, 0.23828125) (-7.078779602050781e-05, 0.240234375) (-7.524742889404297e-05, 0.2421875) (-7.973239135742187e-05, 0.244140625) (-8.419710540771484e-05, 0.24609375) (-8.859259796142577e-05, 0.248046875) (-9.287079620361328e-05, 0.25) (-9.698279571533203e-05, 0.251953125) (-0.0001008802490234375, 0.25390625) (-0.00010451498413085937, 0.255859375) (-0.00010783690643310547, 0.2578125) (-0.00011079844665527343, 0.259765625) (-0.00011335781860351561, 0.26171875) (-0.00011547888183593749, 0.263671875) (-0.00011712990570068358, 0.265625) (-0.00011827959442138672, 0.267578125) (-0.00011889537048339843, 0.26953125) (-0.00011894491577148437, 0.271484375) (-0.00011840013122558593, 0.2734375) (-0.00011723993682861328, 0.275390625) (-0.00011545153808593749, 0.27734375) (-0.00011302689361572265, 0.279296875) (-0.00010995744323730468, 0.28125) (-0.00010623844146728515, 0.283203125) (-0.00010187114715576171, 0.28515625) (-9.686674499511718e-05, 0.287109375) (-9.124623107910156e-05, 0.2890625) (-8.502885437011719e-05, 0.291015625) (-7.822840881347656e-05, 0.29296875) (-7.085018920898438e-05, 0.294921875) (-6.289997100830078e-05, 0.296875) (-5.439849853515625e-05, 0.298828125) (-4.5376529693603514e-05, 0.30078125) (-3.587711715698242e-05, 0.302734375) (-2.594942283630371e-05, 0.3046875) (-1.5626507759094237e-05, 0.306640625) (-4.9327383041381835e-06, 0.30859375) (6.103696346282959e-06, 0.310546875) (1.7466150283813475e-05, 0.3125) (2.9134571075439452e-05, 0.314453125) (4.105128479003906e-05, 0.31640625) (5.316680908203125e-05, 0.318359375) (6.544892883300781e-05, 0.3203125) (7.781668090820313e-05, 0.322265625) (9.020890808105469e-05, 0.32421875) (0.00010254368591308593, 0.326171875) (0.00011458595275878906, 0.328125) (0.00012615262603759764, 0.330078125) (0.00013725917053222656, 0.33203125) (0.00014802923583984374, 0.333984375) (0.00015864263916015624, 0.3359375) (0.0001692474365234375, 0.337890625) (0.00017968072509765625, 0.33984375) (0.00018961981201171874, 0.341796875) (0.000199190673828125, 0.34375) (0.00020864256286621093, 0.345703125) (0.00021760829162597656, 0.34765625) (0.00022517657470703123, 0.349609375) (0.00023043170166015624, 0.3515625) (0.00023241522216796873, 0.353515625) (0.00023189573669433593, 0.35546875) (0.00023191757202148437, 0.357421875) (0.00023283383178710938, 0.359375) (0.00023309190368652342, 0.361328125) (0.00023032241821289062, 0.36328125) (0.00021861158752441406, 0.365234375) (0.00019774981689453123, 0.3671875) (0.00017566142272949217, 0.369140625) (0.0001606956329345703, 0.37109375) (0.00016429441833496093, 0.373046875) (0.00019251351928710936, 0.375) (0.00023537498474121094, 0.376953125) (0.00027834991455078124, 0.37890625) (0.00030598162841796874, 0.380859375) (0.00030511907958984374, 0.3828125) (0.0002801138916015625, 0.384765625) (0.0002444468078613281, 0.38671875) (0.0002093535919189453, 0.388671875) (0.0001853018798828125, 0.390625) (0.00017254281616210936, 0.392578125) (0.00016351976013183594, 0.39453125) (0.00015480279541015625, 0.396484375) (0.00014463970947265625, 0.3984375) (0.0001333130187988281, 0.400390625) (0.00012403872680664062, 0.40234375) (0.00011724749755859374, 0.404296875) (0.00011153179168701171, 0.40625) (0.00010631024932861327, 0.408203125) (0.00010088253021240234, 0.41015625) (9.488395690917968e-05, 0.412109375) (8.845945739746093e-05, 0.4140625) (8.149855041503907e-05, 0.416015625) (7.380042266845703e-05, 0.41796875) (6.560731506347655e-05, 0.419921875) (5.74362564086914e-05, 0.421875) (4.954814910888672e-05, 0.423828125) (4.201802825927734e-05, 0.42578125) (3.482693099975586e-05, 0.427734375) (2.78330078125e-05, 0.4296875) (2.1009927749633788e-05, 0.431640625) (1.4445805549621582e-05, 0.43359375) (8.145006179809569e-06, 0.435546875) (2.0457758903503417e-06, 0.4375) (-3.885246753692627e-06, 0.439453125) (-9.669145584106445e-06, 0.44140625) (-1.529439926147461e-05, 0.443359375) (-2.070315170288086e-05, 0.4453125) (-2.58699951171875e-05, 0.447265625) (-3.0803123474121095e-05, 0.44921875) (-3.551670837402344e-05, 0.451171875) (-4.003961563110352e-05, 0.453125) (-4.439575958251953e-05, 0.455078125) (-4.85960693359375e-05, 0.45703125) (-5.264905548095703e-05, 0.458984375) (-5.6565704345703125e-05, 0.4609375) (-6.036265563964844e-05, 0.462890625) (-6.406794738769531e-05, 0.46484375) (-6.771830749511718e-05, 0.466796875) (-7.13428955078125e-05, 0.46875) (-7.4961181640625e-05, 0.470703125) (-7.858876037597655e-05, 0.47265625) (-8.223908996582031e-05, 0.474609375) (-8.592308044433594e-05, 0.4765625) (-8.964465332031249e-05, 0.478515625) (-9.338859558105468e-05, 0.48046875) (-9.711644744873046e-05, 0.482421875) (-0.00010078462219238281, 0.484375) (-0.00010435293579101562, 0.486328125) (-0.00010779196166992188, 0.48828125) (-0.00011108453369140625, 0.490234375) (-0.00011420806121826172, 0.4921875) (-0.00011713520050048828, 0.494140625) (-0.00011983508300781249, 0.49609375) (-0.0001222773208618164, 0.498046875) (-0.00012445611572265623, 0.5) (-0.00012638780212402342, 0.501953125) (-0.0001280880126953125, 0.50390625) (-0.00012957612609863282, 0.505859375) (-0.0001308847198486328, 0.5078125) (-0.00013206015014648436, 0.509765625) (-0.00013319586181640623, 0.51171875) (-0.00013442475891113282, 0.513671875) (-0.0001358625030517578, 0.515625) (-0.0001376064758300781, 0.517578125) (-0.0001397348937988281, 0.51953125) (-0.00014230361938476563, 0.521484375) (-0.00014538197326660154, 0.5234375) (-0.00014903930664062498, 0.525390625) (-0.00015330889892578125, 0.52734375) (-0.00015819102478027342, 0.529296875) (-0.00016363258361816406, 0.53125) (-0.00016954525756835936, 0.533203125) (-0.0001758590087890625, 0.53515625) (-0.00018247952270507813, 0.537109375) (-0.0001892610168457031, 0.5390625) (-0.0001960120391845703, 0.541015625) (-0.00020244210815429688, 0.54296875) (-0.00020820819091796875, 0.544921875) (-0.00021303475952148436, 0.546875) (-0.00021665504455566404, 0.548828125) (-0.00021876873779296874, 0.55078125) (-0.00021917478942871092, 0.552734375) (-0.0002177190246582031, 0.5546875) (-0.00021432040405273435, 0.556640625) (-0.00020910385131835937, 0.55859375) (-0.00020221412658691406, 0.560546875) (-0.00019369918823242187, 0.5625) (-0.00018361094665527342, 0.564453125) (-0.00017197851562499999, 0.56640625) (-0.0001585981750488281, 0.568359375) (-0.00014314385986328125, 0.5703125) (-0.0001251978759765625, 0.572265625) (-0.00010419696044921875, 0.57421875) (-7.98673095703125e-05, 0.576171875) (-5.235359191894531e-05, 0.578125) (-2.2094970703125e-05, 0.580078125) (1.0164915084838867e-05, 0.58203125) (4.31749267578125e-05, 0.583984375) (7.532281494140625e-05, 0.5859375) (0.00010486163330078124, 0.587890625) (0.0001299263153076172, 0.58984375) (0.00014914256286621092, 0.591796875) (0.00016186630249023437, 0.59375) (0.00016801991271972656, 0.595703125) (0.00016801898193359374, 0.59765625) (0.0001628834228515625, 0.599609375) (0.00015402444458007813, 0.6015625) (0.00014285980224609376, 0.603515625) (0.00013093775939941406, 0.60546875) (0.00011947146606445313, 0.607421875) (0.00010907167053222656, 0.609375) (9.997298431396483e-05, 0.611328125) (9.207139587402343e-05, 0.61328125) (8.489614868164062e-05, 0.615234375) (7.785713958740234e-05, 0.6171875) (7.058403015136719e-05, 0.619140625) (6.270602416992187e-05, 0.62109375) (5.399272918701172e-05, 0.623046875) (4.448117446899414e-05, 0.625) (3.426037216186523e-05, 0.626953125) (2.3549604415893553e-05, 0.62890625) (1.2727991104125977e-05, 0.630859375) (2.173471927642822e-06, 0.6328125) (-7.911346435546875e-06, 0.634765625) (-1.7436656951904295e-05, 0.63671875) (-2.6397655487060546e-05, 0.638671875) (-3.4856311798095704e-05, 0.640625) (-4.2819602966308594e-05, 0.642578125) (-5.031141662597656e-05, 0.64453125) (-5.742526245117187e-05, 0.646484375) (-6.430115509033202e-05, 0.6484375) (-7.108709716796875e-05, 0.650390625) (-7.785340881347656e-05, 0.65234375) (-8.458291625976562e-05, 0.654296875) (-9.120884704589843e-05, 0.65625) (-9.765977478027343e-05, 0.658203125) (-0.00010388481140136718, 0.66015625) (-0.00010986515045166016, 0.662109375) (-0.00011558386993408203, 0.6640625) (-0.0001209693145751953, 0.666015625) (-0.00012593204498291015, 0.66796875) (-0.00013040025329589844, 0.669921875) (-0.0001343347473144531, 0.671875) (-0.00013776437377929687, 0.673828125) (-0.00014075257873535156, 0.67578125) (-0.00014331457519531249, 0.677734375) (-0.0001453887939453125, 0.6796875) (-0.00014687847900390625, 0.681640625) (-0.00014769281005859374, 0.68359375) (-0.00014783340454101561, 0.685546875) (-0.00014742218017578125, 0.6875) (-0.0001465438995361328, 0.689453125) (-0.00014514793395996092, 0.69140625) (-0.0001430296936035156, 0.693359375) (-0.0001399430694580078, 0.6953125) (-0.00013581744384765624, 0.697265625) (-0.00013083059692382812, 0.69921875) (-0.00012517440795898436, 0.701171875) (-0.00011876860809326171, 0.703125) (-0.00011147464752197266, 0.705078125) (-0.00010337588500976562, 0.70703125) (-9.497084808349608e-05, 0.708984375) (-8.706812286376953e-05, 0.7109375) (-8.02040786743164e-05, 0.712890625) (-7.422409057617187e-05, 0.71484375) (-6.855190277099609e-05, 0.716796875) (-6.286651229858398e-05, 0.71875) (-5.692747116088867e-05, 0.720703125) (-5.016706848144531e-05, 0.72265625) (-4.1488529205322264e-05, 0.724609375) (-2.927270698547363e-05, 0.7265625) (-1.2207426071166992e-05, 0.728515625) (9.89001178741455e-06, 0.73046875) (3.631843566894531e-05, 0.732421875) (6.646559143066405e-05, 0.734375) (9.967707824707031e-05, 0.736328125) (0.0001347093505859375, 0.73828125) (0.00016958885192871093, 0.740234375) (0.00020151196289062498, 0.7421875) (0.00022780149841308592, 0.744140625) (0.0002470256195068359, 0.74609375) (0.00025877938842773436, 0.748046875) (0.0002626531982421875, 0.75) (0.0002582701416015625, 0.751953125) (0.0002460269775390625, 0.75390625) (0.00022733534240722655, 0.755859375) (0.0002048180389404297, 0.7578125) (0.00018138525390625, 0.759765625) (0.00015894900512695311, 0.76171875) (0.0001385293426513672, 0.763671875) (0.00012113201141357422, 0.765625) (0.00010794963073730468, 0.767578125) (9.962882232666015e-05, 0.76953125) (9.581849670410155e-05, 0.771484375) (9.490604400634765e-05, 0.7734375) (9.465890502929687e-05, 0.775390625) (9.34686050415039e-05, 0.77734375) (9.058780670166015e-05, 0.779296875) (8.55238037109375e-05, 0.78125) (7.748101043701171e-05, 0.783203125) (6.579344940185546e-05, 0.78515625) (5.052398300170898e-05, 0.787109375) (3.2753189086914064e-05, 0.7890625) (1.4387897491455077e-05, 0.791015625) (-2.807296514511108e-06, 0.79296875) (-1.8057857513427735e-05, 0.794921875) (-3.12693977355957e-05, 0.796875) (-4.206399536132812e-05, 0.798828125) (-4.9965766906738276e-05, 0.80078125) (-5.498828125e-05, 0.802734375) (-5.796411514282226e-05, 0.8046875) (-6.088438415527344e-05, 0.806640625) (-6.607445526123047e-05, 0.80859375) (-7.467327880859375e-05, 0.810546875) (-8.692820739746093e-05, 0.8125) (-0.0001033543701171875, 0.814453125) (-0.00012440131378173828, 0.81640625) (-0.00015001861572265624, 0.818359375) (-0.00017793563842773437, 0.8203125) (-0.00020300375366210936, 0.822265625) (-0.00022006475830078123, 0.82421875) (-0.00022598486328125, 0.826171875) (-0.00022193797302246093, 0.828125) (-0.00021127520751953123, 0.830078125) (-0.00019342181396484373, 0.83203125) (-0.00016348631286621092, 0.833984375) (-0.00011238358306884765, 0.8359375) (-3.121864700317383e-05, 0.837890625) (8.047959899902344e-05, 0.83984375) (0.00021590296936035156, 0.841796875) (0.00036326998901367184, 0.84375) (0.0005093865966796874, 0.845703125) (0.0006442482910156249, 0.84765625) (0.0007581197509765624, 0.849609375) (0.0008408237304687499, 0.8515625) (0.0008803392333984375, 0.853515625) (0.0008647852783203125, 0.85546875) (0.0007903212890624999, 0.857421875) (0.0006593458251953125, 0.859375) (0.00048379116821289063, 0.861328125) (0.0002861545715332031, 0.86328125) (8.907500457763671e-05, 0.865234375) (-8.197895812988281e-05, 0.8671875) (-0.0002069031524658203, 0.869140625) (-0.000282831787109375, 0.87109375) (-0.00031527233886718747, 0.873046875) (-0.0003189692687988281, 0.875) (-0.00030910943603515624, 0.876953125) (-0.00028770098876953126, 0.87890625) (-0.00025335592651367186, 0.880859375) (-0.000205896484375, 0.8828125) (-0.0001504900360107422, 0.884765625) (-0.00010084636688232422, 0.88671875) (-6.87561264038086e-05, 0.888671875) (-5.630057907104492e-05, 0.890625) (-5.586320495605469e-05, 0.892578125) (-5.704887008666992e-05, 0.89453125) (-5.283724212646484e-05, 0.896484375) (-4.3301475524902343e-05, 0.8984375) (-3.500564956665039e-05, 0.900390625) (-3.233895111083984e-05, 0.90234375) (-3.564807510375976e-05, 0.904296875) (-4.291755294799805e-05, 0.90625) (-4.958184051513672e-05, 0.908203125) (-5.2941627502441406e-05, 0.91015625) (-5.3000823974609376e-05, 0.912109375) (-5.004097366333008e-05, 0.9140625) (-4.478473281860351e-05, 0.916015625) (-3.807795715332031e-05, 0.91796875) (-3.039160346984863e-05, 0.919921875) (-2.2399234771728513e-05, 0.921875) (-1.5116800308227538e-05, 0.923828125) (-9.165586471557617e-06, 0.92578125) (-4.677145004272461e-06, 0.927734375) (-1.677154779434204e-06, 0.9296875) (1.324939727783203e-08, 0.931640625) (7.254762649536133e-07, 0.93359375) (7.243571281433105e-07, 0.935546875) (3.944433331489563e-07, 0.9375) (2.580084800720215e-07, 0.939453125) (6.202118396759032e-07, 0.94140625) (1.609200119972229e-06, 0.943359375) (3.2948408126831054e-06, 0.9453125) (5.6215009689331055e-06, 0.947265625) (8.53560733795166e-06, 0.94921875) (1.2038333892822266e-05, 0.951171875) (1.6068687438964842e-05, 0.953125) (2.0533796310424804e-05, 0.955078125) (2.5379016876220702e-05, 0.95703125) (3.054981803894043e-05, 0.958984375) (3.60036506652832e-05, 0.9609375) (4.171391296386718e-05, 0.962890625) (4.7618587493896485e-05, 0.96484375) (5.363135528564453e-05, 0.966796875) (5.966346740722656e-05, 0.96875) (6.563616180419921e-05, 0.970703125) (7.14970245361328e-05, 0.97265625) (7.721237182617187e-05, 0.974609375) (8.275604248046875e-05, 0.9765625) (8.810966491699219e-05, 0.978515625) (9.326007080078125e-05, 0.98046875) (9.8201171875e-05, 0.982421875) (0.00010293985748291016, 0.984375) (0.00010748049926757812, 0.986328125) (0.00011182048034667968, 0.98828125) (0.00011595759582519531, 0.990234375) (0.00011988807678222656, 0.9921875) (0.00012361422729492187, 0.994140625) (0.00012714839935302734, 0.99609375) (0.00013050697326660155, 0.998046875) (0.0001337085723876953, 1.0) (0.00013677203369140626, 1.001953125) (0.0001397137908935547, 1.00390625) (0.00014255079650878907, 1.005859375) (0.0001453017578125, 1.0078125) (0.000147983154296875, 1.009765625) (0.000150610107421875, 1.01171875) (0.00015319706726074219, 1.013671875) (0.00015575714111328124, 1.015625) (0.0001583065948486328, 1.017578125) (0.00016086489868164062, 1.01953125) (0.0001634508819580078, 1.021484375) (0.00016608294677734374, 1.0234375) (0.0001687814025878906, 1.025390625) (0.00017156784057617187, 1.02734375) (0.00017446572875976562, 1.029296875) (0.00017750061035156248, 1.03125) (0.00018069633483886718, 1.033203125) (0.00018407501220703125, 1.03515625) (0.00018765948486328124, 1.037109375) (0.00019147274780273435, 1.0390625) (0.00019553585815429685, 1.041015625) (0.00019986880493164062, 1.04296875) (0.0002044862518310547, 1.044921875) (0.0002093966064453125, 1.046875) (0.00021461093139648436, 1.048828125) (0.00022014178466796874, 1.05078125) (0.00022600364685058594, 1.052734375) (0.0002322152099609375, 1.0546875) (0.00023878599548339842, 1.056640625) (0.00024571353149414063, 1.05859375) (0.00025299430847167966, 1.060546875) (0.0002606220397949219, 1.0625) (0.0002685788269042969, 1.064453125) (0.00027684014892578125, 1.06640625) (0.0002853638000488281, 1.068359375) (0.0002940877685546875, 1.0703125) (0.00030296435546875, 1.072265625) (0.0003119593505859375, 1.07421875) (0.0003210473937988281, 1.076171875) (0.0003302185974121094, 1.078125) (0.0003394581604003906, 1.080078125) (0.0003487445068359375, 1.08203125) (0.000358061767578125, 1.083984375) (0.0003673946533203125, 1.0859375) (0.00037672882080078124, 1.087890625) (0.00038605822753906246, 1.08984375) (0.00039536425781249996, 1.091796875) (0.00040461456298828124, 1.09375) (0.000413802001953125, 1.095703125) (0.00042293331909179683, 1.09765625) (0.00043204339599609373, 1.099609375) (0.0004412039794921875, 1.1015625) (0.0004504469604492187, 1.103515625) (0.00045976193237304687, 1.10546875) (0.0004691221313476562, 1.107421875) (0.00047847045898437497, 1.109375) (0.00048773730468749997, 1.111328125) (0.0004968514404296875, 1.11328125) (0.0005057083435058594, 1.115234375) (0.0005141748657226563, 1.1171875) (0.0005221357421875, 1.119140625) (0.0005294824829101563, 1.12109375) (0.0005361307373046875, 1.123046875) (0.0005420291748046875, 1.125) (0.000547093994140625, 1.126953125) (0.0005512205810546875, 1.12890625) (0.0005542835693359375, 1.130859375) (0.0005561212158203125, 1.1328125) (0.0005566221923828125, 1.134765625) (0.0005557337646484374, 1.13671875) (0.0005534212036132812, 1.138671875) (0.0005496847534179687, 1.140625) (0.0005445617065429687, 1.142578125) (0.000538106689453125, 1.14453125) (0.0005304316406249999, 1.146484375) (0.0005217062988281249, 1.1484375) (0.0005120714111328125, 1.150390625) (0.0005016476745605469, 1.15234375) (0.0004905374145507813, 1.154296875) (0.0004788067626953125, 1.15625) (0.00046655181884765624, 1.158203125) (0.0004538963012695312, 1.16015625) (0.00044097406005859374, 1.162109375) (0.0004279428100585937, 1.1640625) (0.00041493710327148434, 1.166015625) (0.0004020551147460937, 1.16796875) (0.00038939205932617187, 1.169921875) (0.00037703216552734375, 1.171875) (0.00036502764892578125, 1.173828125) (0.0003534149169921875, 1.17578125) (0.00034218917846679686, 1.177734375) (0.00033129443359375, 1.1796875) (0.0003207023620605469, 1.181640625) (0.0003104163208007812, 1.18359375) (0.00030045480346679686, 1.185546875) (0.000290869384765625, 1.1875) (0.00028170660400390625, 1.189453125) (0.0002729874267578125, 1.19140625) (0.00026472714233398436, 1.193359375) (0.000256935546875, 1.1953125) (0.0002496183624267578, 1.197265625) (0.00024278436279296875, 1.19921875) (0.00023643368530273435, 1.201171875) (0.0002305456085205078, 1.203125) (0.00022509959411621093, 1.205078125) (0.00022009144592285155, 1.20703125) (0.0002155382843017578, 1.208984375) (0.0002114914093017578, 1.2109375) (0.00020800042724609374, 1.212890625) (0.00020508110046386718, 1.21484375) (0.0002027316436767578, 1.216796875) (0.00020092913818359375, 1.21875) (0.0001996361083984375, 1.220703125) (0.0001988407745361328, 1.22265625) (0.00019854945373535155, 1.224609375) (0.0001987589416503906, 1.2265625) (0.00019947372436523436, 1.228515625) (0.00020072404479980468, 1.23046875) (0.00020255755615234373, 1.232421875) (0.0002050704345703125, 1.234375) (0.00020839486694335937, 1.236328125) (0.00021261822509765623, 1.23828125) (0.00021778536987304687, 1.240234375) (0.00022389849853515623, 1.2421875) (0.0002309205627441406, 1.244140625) (0.00023883389282226562, 1.24609375) (0.00024762725830078126, 1.248046875) (0.00025727252197265625, 1.25) (0.00026773666381835936, 1.251953125) (0.000278951171875, 1.25390625) (0.0002908116760253906, 1.255859375) (0.0003032291259765625, 1.2578125) (0.00031610229492187497, 1.259765625) (0.00032925802612304684, 1.26171875) (0.0003424723510742187, 1.263671875) (0.00035543856811523435, 1.265625) (0.00036778219604492187, 1.267578125) (0.00037919671630859376, 1.26953125) (0.00038944323730468746, 1.271484375) (0.0003983241577148437, 1.2734375) (0.000405689208984375, 1.275390625) (0.00041138720703125, 1.27734375) (0.0004152813110351562, 1.279296875) (0.00041729421997070313, 1.28125) (0.00041738616943359373, 1.283203125) (0.0004155419311523437, 1.28515625) (0.00041176672363281246, 1.287109375) (0.00040604058837890623, 1.2890625) (0.00039836865234375, 1.291015625) (0.00038887017822265623, 1.29296875) (0.00037775170898437496, 1.294921875) (0.0003653193359375, 1.296875) (0.0003519542541503906, 1.298828125) (0.00033798632812499996, 1.30078125) (0.0003236977844238281, 1.302734375) (0.0003093703002929687, 1.3046875) (0.00029527359008789064, 1.306640625) (0.00028166156005859374, 1.30859375) (0.0002687562255859375, 1.310546875) (0.00025670703125, 1.3125) (0.00024561947631835936, 1.314453125) (0.00023561183166503905, 1.31640625) (0.00022682421875, 1.318359375) (0.00021943292236328125, 1.3203125) (0.0002135845031738281, 1.322265625) (0.00020932162475585938, 1.32421875) (0.00020660772705078124, 1.326171875) (0.00020533639526367186, 1.328125) (0.00020535659790039062, 1.330078125) (0.00020653143310546873, 1.33203125) (0.0002087277374267578, 1.333984375) (0.00021177311706542968, 1.3359375) (0.00021547552490234375, 1.337890625) (0.00021967660522460936, 1.33984375) (0.00022426058959960937, 1.341796875) (0.00022916912841796874, 1.34375) (0.0002343740234375, 1.345703125) (0.00023981497192382813, 1.34765625) (0.0002453924255371094, 1.349609375) (0.0002509817199707031, 1.3515625) (0.00025648394775390623, 1.353515625) (0.0002618524475097656, 1.35546875) (0.00026707666015624997, 1.357421875) (0.00027216772460937497, 1.359375) (0.00027714318847656247, 1.361328125) (0.00028203009033203125, 1.36328125) (0.00028687594604492184, 1.365234375) (0.0002917679443359375, 1.3671875) (0.00029681170654296873, 1.369140625) (0.00030207470703125, 1.37109375) (0.00030758435058593747, 1.373046875) (0.0003133342590332031, 1.375) (0.0003193009033203125, 1.376953125) (0.00032547750854492185, 1.37890625) (0.0003318758239746094, 1.380859375) (0.00033850714111328126, 1.3828125) (0.0003453616027832031, 1.384765625) (0.00035241796875, 1.38671875) (0.00035965032958984374, 1.388671875) (0.00036703369140624997, 1.390625) (0.000374548828125, 1.392578125) (0.0003821618957519531, 1.39453125) (0.0003898197021484375, 1.396484375) (0.0003974493408203125, 1.3984375) (0.0004049710998535156, 1.400390625) (0.00041232540893554684, 1.40234375) (0.0004194720764160156, 1.404296875) (0.0004263821105957031, 1.40625) (0.00043303256225585935, 1.408203125) (0.0004393997192382812, 1.41015625) (0.00044546002197265623, 1.412109375) (0.00045119897460937496, 1.4140625) (0.00045661328125, 1.416015625) (0.000461697021484375, 1.41796875) (0.00046644024658203126, 1.419921875) (0.00047083129882812496, 1.421875) (0.0004748558959960937, 1.423828125) (0.0004785068969726562, 1.42578125) (0.00048178546142578125, 1.427734375) (0.0004846965637207031, 1.4296875) (0.0004872464904785156, 1.431640625) (0.0004894396362304687, 1.43359375) (0.0004912789916992188, 1.435546875) (0.0004927672119140624, 1.4375) (0.0004939076538085938, 1.439453125) (0.0004947028503417968, 1.44140625) (0.0004951536865234375, 1.443359375) (0.0004952582092285156, 1.4453125) (0.0004950123901367187, 1.447265625) (0.0004944132080078124, 1.44921875) (0.0004934584045410156, 1.451171875) (0.0004921465454101562, 1.453125) (0.0004904769897460937, 1.455078125) (0.0004884485473632813, 1.45703125) (0.0004860597229003906, 1.458984375) (0.0004833097229003906, 1.4609375) (0.00048019897460937496, 1.462890625) (0.00047672970581054684, 1.46484375) (0.00047290576171875, 1.466796875) (0.0004687309875488281, 1.46875) (0.00046420874023437496, 1.470703125) (0.0004593408203125, 1.47265625) (0.00045412884521484374, 1.474609375) (0.0004485764770507812, 1.4765625) (0.00044268847656249997, 1.478515625) (0.00043647067260742185, 1.48046875) (0.00042993011474609373, 1.482421875) (0.00042307327270507813, 1.484375) (0.00041590756225585936, 1.486328125) (0.0004084466857910156, 1.48828125) (0.00040070916748046874, 1.490234375) (0.0003927113037109375, 1.4921875) (0.0003844666137695312, 1.494140625) (0.0003759791564941406, 1.49609375) (0.0003672425537109375, 1.498046875) (0.0003582569885253906, 1.5) (0.00034903015136718746, 1.501953125) (0.00033957296752929687, 1.50390625) (0.0003298997802734375, 1.505859375) (0.0003200281982421875, 1.5078125) (0.00030998034667968746, 1.509765625) (0.0002997977600097656, 1.51171875) (0.0002895434875488281, 1.513671875) (0.00027928103637695314, 1.515625) (0.00026907373046875, 1.517578125) (0.00025897314453125, 1.51953125) (0.00024901695251464844, 1.521484375) (0.00023925872802734374, 1.5234375) (0.00022976078796386716, 1.525390625) (0.00022059544372558592, 1.52734375) (0.00021184814453125, 1.529296875) (0.00020358374023437498, 1.53125) (0.00019584211730957031, 1.533203125) (0.0001886565704345703, 1.53515625) (0.00018204954528808592, 1.537109375) (0.00017600888061523436, 1.5390625) (0.0001705042724609375, 1.541015625) (0.00016546142578124999, 1.54296875) (0.00016073861694335936, 1.544921875) (0.00015619580078125, 1.546875) (0.00015168022155761718, 1.548828125) (0.000147025390625, 1.55078125) (0.00014209948730468748, 1.552734375) (0.00013678195190429686, 1.5546875) (0.00013092755126953125, 1.556640625) (0.00012436097717285157, 1.55859375) (0.00011693572998046875, 1.560546875) (0.00010856538391113281, 1.5625) (9.933360290527343e-05, 1.564453125) (8.954045104980468e-05, 1.56640625) (7.950141906738282e-05, 1.568359375) (6.951005554199218e-05, 1.5703125) (5.9918197631835936e-05, 1.572265625) (5.117649459838867e-05, 1.57421875) (4.3776351928710934e-05, 1.576171875) (3.811671447753906e-05, 1.578125) (3.414474105834961e-05, 1.580078125) (3.113700866699218e-05, 1.58203125) (2.8293577194213867e-05, 1.583984375) (2.5048160552978513e-05, 1.5859375) (2.0711177825927732e-05, 1.587890625) (1.4582075119018555e-05, 1.58984375) (6.000773429870605e-06, 1.591796875) (-5.854019165039062e-06, 1.59375) (-1.9376140594482422e-05, 1.595703125) (-3.0142162322998044e-05, 1.59765625) (-3.462931060791016e-05, 1.599609375) (-2.9700517654418944e-05, 1.6015625) (-1.6732955932617188e-05, 1.603515625) (-2.519672632217407e-06, 1.60546875) (1.1830389022827148e-05, 1.607421875) (2.9132312774658202e-05, 1.609375) (5.794343566894531e-05, 1.611328125) (0.00011476344299316406, 1.61328125) (0.0002058539123535156, 1.615234375) (0.00032922540283203123, 1.6171875) (0.00047712179565429684, 1.619140625) (0.0006302593994140625, 1.62109375) (0.0007734775390625, 1.623046875) (0.000893515625, 1.625) (0.0009750845947265625, 1.626953125) (0.0010085389404296875, 1.62890625) (0.000985181884765625, 1.630859375) (0.0009029227294921875, 1.6328125) (0.0007678997802734375, 1.634765625) (0.0005923171997070313, 1.63671875) (0.0003963120727539062, 1.638671875) (0.00019998831176757813, 1.640625) (2.5623920440673826e-05, 1.642578125) (-0.0001076924819946289, 1.64453125) (-0.0001947478332519531, 1.646484375) (-0.00023824298095703124, 1.6484375) (-0.000251790771484375, 1.650390625) (-0.0002541092071533203, 1.65234375) (-0.00025358880615234373, 1.654296875) (-0.0002522718811035156, 1.65625) (-0.0002472796630859375, 1.658203125) (-0.0002324830322265625, 1.66015625) (-0.0002084534912109375, 1.662109375) (-0.00017998994445800781, 1.6640625) (-0.00015181101989746092, 1.666015625) (-0.00012895831298828124, 1.66796875) (-0.00011382843017578125, 1.669921875) (-0.00010643009948730469, 1.671875) (-0.00010604707336425781, 1.673828125) (-0.00011114946746826171, 1.67578125) (-0.00011994240570068359, 1.677734375) (-0.000130566650390625, 1.6796875) (-0.00014167083740234375, 1.681640625) (-0.0001523106994628906, 1.68359375) (-0.0001613077697753906, 1.685546875) (-0.00016780670166015625, 1.6875) (-0.00017154794311523438, 1.689453125) (-0.0001725498809814453, 1.69140625) (-0.0001713335266113281, 1.693359375) (-0.00016882431030273436, 1.6953125) (-0.00016563525390625, 1.697265625) (-0.00016235806274414062, 1.69921875) (-0.0001598779296875, 1.701171875) (-0.00015874874877929687, 1.703125) (-0.0001592073974609375, 1.705078125) (-0.00016137008666992187, 1.70703125) (-0.00016500729370117186, 1.708984375) (-0.00016974652099609373, 1.7109375) (-0.00017532830810546875, 1.712890625) (-0.00018135018920898435, 1.71484375) (-0.00018726849365234373, 1.716796875) (-0.0001927490997314453, 1.71875) (-0.00019758749389648436, 1.720703125) (-0.0002016701202392578, 1.72265625) (-0.00020505218505859375, 1.724609375) (-0.00020776353454589843, 1.7265625) (-0.00020979183959960937, 1.728515625) (-0.00021120220947265625, 1.73046875) (-0.0002120866241455078, 1.732421875) (-0.00021251028442382811, 1.734375) (-0.00021253814697265623, 1.736328125) (-0.0002122028350830078, 1.73828125) (-0.0002115081787109375, 1.740234375) (-0.00021050146484374998, 1.7421875) (-0.0002092553253173828, 1.744140625) (-0.00020785443115234375, 1.74609375) (-0.00020639703369140623, 1.748046875) (-0.00020494560241699218, 1.75) (-0.00020353561401367188, 1.751953125) (-0.00020219776916503905, 1.75390625) (-0.00020094912719726562, 1.755859375) (-0.0001998040313720703, 1.7578125) (-0.00019877172851562498, 1.759765625) (-0.00019784060668945311, 1.76171875) (-0.0001969906311035156, 1.763671875) (-0.00019621183776855468, 1.765625) (-0.00019549760437011717, 1.767578125) (-0.00019484570312499998, 1.76953125) (-0.00019425717163085935, 1.771484375) (-0.0001937205047607422, 1.7734375) (-0.00019321908569335937, 1.775390625) (-0.00019273722839355467, 1.77734375) (-0.0001922563781738281, 1.779296875) (-0.00019176333618164062, 1.78125) (-0.0001912493438720703, 1.783203125) (-0.000190704345703125, 1.78515625) (-0.00019012007141113281, 1.787109375) (-0.0001894911651611328, 1.7890625) (-0.00018881292724609374, 1.791015625) (-0.00018808335876464844, 1.79296875) (-0.0001873023223876953, 1.794921875) (-0.0001864654846191406, 1.796875) (-0.00018556608581542968, 1.798828125) (-0.0001845972442626953, 1.80078125) (-0.00018355107116699217, 1.802734375) (-0.00018242065429687499, 1.8046875) (-0.0001812003631591797, 1.806640625) (-0.00017988357543945313, 1.80859375) (-0.00017846371459960937, 1.810546875) (-0.00017693588256835938, 1.8125) (-0.00017529618835449218, 1.814453125) (-0.00017354150390625, 1.81640625) (-0.00017166976928710936, 1.818359375) (-0.00016967868041992186, 1.8203125) (-0.0001675661926269531, 1.822265625) (-0.00016533146667480468, 1.82421875) (-0.00016297451782226562, 1.826171875) (-0.0001604959716796875, 1.828125) (-0.00015789726257324217, 1.830078125) (-0.00015518041992187498, 1.83203125) (-0.00015234819030761717, 1.833984375) (-0.00014940475463867187, 1.8359375) (-0.00014635519409179686, 1.837890625) (-0.00014320509338378905, 1.83984375) (-0.0001399610595703125, 1.841796875) (-0.00013663027954101563, 1.84375) (-0.00013322085571289063, 1.845703125) (-0.0001297422637939453, 1.84765625) (-0.00012620494079589842, 1.849609375) (-0.0001226198959350586, 1.8515625) (-0.00011899919128417969, 1.853515625) (-0.00011535549163818358, 1.85546875) (-0.00011170204162597656, 1.857421875) (-0.00010805323791503906, 1.859375) (-0.00010442384338378906, 1.861328125) (-0.00010082857513427734, 1.86328125) (-9.728237915039062e-05, 1.865234375) (-9.38001480102539e-05, 1.8671875) (-9.03967056274414e-05, 1.869140625) (-8.708747100830078e-05, 1.87109375) (-8.388809967041016e-05, 1.873046875) (-8.08139419555664e-05, 1.875) (-7.78802032470703e-05, 1.876953125) (-7.510175323486327e-05, 1.87890625) (-7.249311828613281e-05, 1.880859375) (-7.006877136230469e-05, 1.8828125) (-6.784271240234375e-05, 1.884765625) (-6.58281021118164e-05, 1.88671875) (-6.403732299804687e-05, 1.888671875) (-6.248184204101562e-05, 1.890625) (-6.117247772216797e-05, 1.892578125) (-6.011971282958984e-05, 1.89453125) (-5.933322525024414e-05, 1.896484375) (-5.882165908813476e-05, 1.8984375) (-5.859304428100586e-05, 1.900390625) (-5.8654178619384763e-05, 1.90234375) (-5.9010612487792966e-05, 1.904296875) (-5.9667137145996094e-05, 1.90625) (-6.0626777648925775e-05, 1.908203125) (-6.189025878906249e-05, 1.91015625) (-6.345671081542968e-05, 1.912109375) (-6.532347106933593e-05, 1.9140625) (-6.74853057861328e-05, 1.916015625) (-6.993550872802734e-05, 1.91796875) (-7.26655502319336e-05, 1.919921875) (-7.566412353515625e-05, 1.921875) (-7.891917419433594e-05, 1.923828125) (-8.241876220703125e-05, 1.92578125) (-8.614970397949218e-05, 1.927734375) (-9.009848022460938e-05, 1.9296875) (-9.425169372558593e-05, 1.931640625) (-9.859379577636719e-05, 1.93359375) (-0.00010310830688476562, 1.935546875) (-0.00010777914428710937, 1.9375) (-0.00011258755493164062, 1.939453125) (-0.00011751199340820312, 1.94140625) (-0.00012252909088134766, 1.943359375) (-0.0001276119384765625, 1.9453125) (-0.00013273236083984375, 1.947265625) (-0.00013786402893066406, 1.94921875) (-0.00014298080444335938, 1.951171875) (-0.00014805702209472654, 1.953125) (-0.0001530684356689453, 1.955078125) (-0.00015798931884765624, 1.95703125) (-0.00016279623413085936, 1.958984375) (-0.000167470458984375, 1.9609375) (-0.0001719897766113281, 1.962890625) (-0.00017633004760742187, 1.96484375) (-0.00018046446228027344, 1.966796875) (-0.0001843577880859375, 1.96875) (-0.00018798049926757813, 1.970703125) (-0.00019131816101074217, 1.97265625) (-0.00019436138916015624, 1.974609375) (-0.0001971098937988281, 1.9765625) (-0.00019957609558105468, 1.978515625) (-0.0002017673645019531, 1.98046875) (-0.0002036948547363281, 1.982421875) (-0.00020538284301757813, 1.984375) (-0.00020684466552734374, 1.986328125) (-0.00020808291625976563, 1.98828125) (-0.00020909031677246093, 1.990234375) (-0.0002098358154296875, 1.9921875) (-0.00021028793334960935, 1.994140625) (-0.00021043463134765624, 1.99609375) (-0.00021027700805664062, 1.998046875) (-0.00020983639526367186, 2.0) (-0.00020913595581054686, 2.001953125) (-0.00020817247009277342, 2.00390625) (-0.00020693930053710936, 2.005859375) (-0.0002054282531738281, 2.0078125) (-0.00020360841369628906, 2.009765625) (-0.0002014575958251953, 2.01171875) (-0.00019894700622558593, 2.013671875) (-0.00019601564025878906, 2.015625) (-0.00019263212585449217, 2.017578125) (-0.00018881011962890623, 2.01953125) (-0.00018459141540527342, 2.021484375) (-0.00018007490539550782, 2.0234375) (-0.000175382568359375, 2.025390625) (-0.00017059918212890623, 2.02734375) (-0.00016579205322265624, 2.029296875) (-0.00016101251220703125, 2.03125) (-0.000156297607421875, 2.033203125) (-0.00015171331787109375, 2.03515625) (-0.00014732833862304688, 2.037109375) (-0.0001431964111328125, 2.0390625) (-0.00013939599609375, 2.041015625) (-0.00013600689697265624, 2.04296875) (-0.00013312210083007812, 2.044921875) (-0.00013088162231445313, 2.046875) (-0.0001293918762207031, 2.048828125) (-0.0001286903076171875, 2.05078125) (-0.00012877589416503905, 2.052734375) (-0.00012957774353027343, 2.0546875) (-0.00013098291015624998, 2.056640625) (-0.00013292082214355467, 2.05859375) (-0.000135335693359375, 2.060546875) (-0.0001381715393066406, 2.0625) (-0.00014139620971679687, 2.064453125) (-0.0001449617004394531, 2.06640625) (-0.00014881866455078124, 2.068359375) (-0.00015294635009765624, 2.0703125) (-0.00015730978393554686, 2.072265625) (-0.00016185696411132812, 2.07421875) (-0.00016651791381835937, 2.076171875) (-0.00017117906188964842, 2.078125) (-0.0001757432861328125, 2.080078125) (-0.00018017070007324217, 2.08203125) (-0.00018445022583007812, 2.083984375) (-0.00018861703491210936, 2.0859375) (-0.00019274168395996092, 2.087890625) (-0.00019686271667480467, 2.08984375) (-0.00020100802612304687, 2.091796875) (-0.00020521421813964844, 2.09375) (-0.000209494140625, 2.095703125) (-0.00021385723876953124, 2.09765625) (-0.00021830938720703125, 2.099609375) (-0.0002228266906738281, 2.1015625) (-0.00022738330078124998, 2.103515625) (-0.00023197152709960935, 2.10546875) (-0.00023659567260742186, 2.107421875) (-0.0002412814025878906, 2.109375) (-0.00024605364990234373, 2.111328125) (-0.00025090866088867185, 2.11328125) (-0.0002558286437988281, 2.115234375) (-0.00026077996826171873, 2.1171875) (-0.0002657120056152344, 2.119140625) (-0.0002705859375, 2.12109375) (-0.00027536660766601563, 2.123046875) (-0.0002800101318359375, 2.125) (-0.0002844839172363281, 2.126953125) (-0.000288763427734375, 2.12890625) (-0.00029282769775390626, 2.130859375) (-0.00029667138671875, 2.1328125) (-0.00030029556274414063, 2.134765625) (-0.00030369091796874997, 2.13671875) (-0.000306843505859375, 2.138671875) (-0.0003097349243164062, 2.140625) (-0.0003123428039550781, 2.142578125) (-0.00031465136718749996, 2.14453125) (-0.0003166487426757812, 2.146484375) (-0.00031832330322265626, 2.1484375) (-0.00031966693115234373, 2.150390625) (-0.00032067163085937496, 2.15234375) (-0.00032133016967773436, 2.154296875) (-0.00032163964843749996, 2.15625) (-0.0003215965881347656, 2.158203125) (-0.00032119464111328124, 2.16015625) (-0.0003204268798828125, 2.162109375) (-0.0003192835693359375, 2.1640625) (-0.0003177535400390625, 2.166015625) (-0.0003158294982910156, 2.16796875) (-0.0003135061645507812, 2.169921875) (-0.0003107791748046875, 2.171875) (-0.00030764721679687497, 2.173828125) (-0.00030411080932617185, 2.17578125) (-0.00030017196655273434, 2.177734375) (-0.0002958362121582031, 2.1796875) (-0.0002911116027832031, 2.181640625) (-0.0002860066528320312, 2.18359375) (-0.00028053124999999996, 2.185546875) (-0.00027469659423828125, 2.1875) (-0.00026851535034179685, 2.189453125) (-0.0002620025634765625, 2.19140625) (-0.0002551757507324219, 2.193359375) (-0.0002480543823242187, 2.1953125) (-0.00024065988159179685, 2.197265625) (-0.00023301605224609374, 2.19921875) (-0.00022514918518066405, 2.201171875) (-0.00021708810424804687, 2.203125) (-0.0002088636932373047, 2.205078125) (-0.00020050863647460936, 2.20703125) (-0.00019205685424804686, 2.208984375) (-0.00018354336547851563, 2.2109375) (-0.00017500451660156248, 2.212890625) (-0.00016647813415527344, 2.21484375) (-0.00015800250244140624, 2.216796875) (-0.00014961566162109374, 2.21875) (-0.00014135638427734373, 2.220703125) (-0.00013326416015625, 2.22265625) (-0.00012537925720214842, 2.224609375) (-0.00011774362182617187, 2.2265625) (-0.00011039881896972656, 2.228515625) (-0.0001033845977783203, 2.23046875) (-9.674018096923828e-05, 2.232421875) (-9.050395202636719e-05, 2.234375) (-8.471224212646484e-05, 2.236328125) (-7.939954376220703e-05, 2.23828125) (-7.459620666503906e-05, 2.240234375) (-7.03265609741211e-05, 2.2421875) (-6.661225128173827e-05, 2.244140625) (-6.347292709350585e-05, 2.24609375) (-6.0926303863525385e-05, 2.248046875) (-5.8989189147949216e-05, 2.25) (-5.767379760742187e-05, 2.251953125) (-5.6986976623535155e-05, 2.25390625) (-5.693197631835937e-05, 2.255859375) (-5.7507919311523435e-05, 2.2578125) (-5.87099380493164e-05, 2.259765625) (-6.05296401977539e-05, 2.26171875) (-6.294966125488281e-05, 2.263671875) (-6.594293212890625e-05, 2.265625) (-6.94817886352539e-05, 2.267578125) (-7.353704071044921e-05, 2.26953125) (-7.808375549316406e-05, 2.271484375) (-8.310632324218749e-05, 2.2734375) (-8.85823745727539e-05, 2.275390625) (-9.448184967041015e-05, 2.27734375) (-0.00010077195739746094, 2.279296875) (-0.00010741223907470702, 2.28125) (-0.00011435725402832031, 2.283203125) (-0.00012155926513671874, 2.28515625) (-0.00012895481872558594, 2.287109375) (-0.0001364625549316406, 2.2890625) (-0.00014400152587890625, 2.291015625) (-0.00015148995971679688, 2.29296875) (-0.00015885510253906248, 2.294921875) (-0.0001660386505126953, 2.296875) (-0.00017297091674804688, 2.298828125) (-0.0001795763702392578, 2.30078125) (-0.00018576947021484375, 2.302734375) (-0.0001914491271972656, 2.3046875) (-0.000196530517578125, 2.306640625) (-0.0002009414367675781, 2.30859375) (-0.00020461660766601562, 2.310546875) (-0.0002075154113769531, 2.3125) (-0.00020962123107910155, 2.314453125) (-0.00021093939208984374, 2.31640625) (-0.00021151651000976562, 2.318359375) (-0.00021142770385742187, 2.3203125) (-0.00021075283813476561, 2.322265625) (-0.00020959716796875, 2.32421875) (-0.0002080686340332031, 2.326171875) (-0.00020627655029296875, 2.328125) (-0.00020434828186035155, 2.330078125) (-0.00020237405395507813, 2.33203125) (-0.00020048068237304685, 2.333984375) (-0.00019887638854980467, 2.3359375) (-0.00019768724060058592, 2.337890625) (-0.00019695220947265623, 2.33984375) (-0.00019656278991699217, 2.341796875) (-0.0001961325988769531, 2.34375) (-0.0001952398681640625, 2.345703125) (-0.00019357969665527344, 2.34765625) (-0.00019074179077148437, 2.349609375) (-0.000186214111328125, 2.3515625) (-0.00017969447326660154, 2.353515625) (-0.00017108209228515624, 2.35546875) (-0.00016081356811523437, 2.357421875) (-0.0001501559600830078, 2.359375) (-0.00014038262939453124, 2.361328125) (-0.0001324092254638672, 2.36328125) (-0.00012718878173828123, 2.365234375) (-0.00012555389404296874, 2.3671875) (-0.00012793031311035156, 2.369140625) (-0.0001344143829345703, 2.37109375) (-0.0001428711395263672, 2.373046875) (-0.00014862525939941405, 2.375) (-0.00014725773620605467, 2.376953125) (-0.00013465766906738282, 2.37890625) (-0.00011081320190429687, 2.380859375) (-7.982232666015625e-05, 2.3828125) (-4.377653503417968e-05, 2.384765625) (-4.5045690536499024e-06, 2.38671875) (4.3011188507080075e-05, 2.388671875) (0.00011085200500488281, 2.390625) (0.00020710662841796874, 2.392578125) (0.00033856781005859373, 2.39453125) (0.0004993929443359374, 2.396484375) (0.0006659892578124999, 2.3984375) (0.0008109661865234374, 2.400390625) (0.0009036070556640625, 2.40234375) (0.0009249435424804688, 2.404296875) (0.0008785211791992187, 2.40625) (0.0007798448486328125, 2.408203125) (0.000651144287109375, 2.41015625) (0.000509106689453125, 2.412109375) (0.00036027117919921873, 2.4140625) (0.00020728875732421874, 2.416015625) (5.689871215820312e-05, 2.41796875) (-7.451758575439452e-05, 2.419921875) (-0.00017213964843749998, 2.421875) (-0.0002278150634765625, 2.423828125) (-0.00024570040893554684, 2.42578125) (-0.0002442870941162109, 2.427734375) (-0.000237803466796875, 2.4296875) (-0.00023307688903808594, 2.431640625) (-0.00023079270935058593, 2.43359375) (-0.00022403324890136718, 2.435546875) (-0.0002105087890625, 2.4375) (-0.00019301402282714843, 2.439453125) (-0.00017484819030761718, 2.44140625) (-0.00016069345092773436, 2.443359375) (-0.00015284088134765624, 2.4453125) (-0.00015124423217773437, 2.447265625) (-0.00015529014587402343, 2.44921875) (-0.00016337864685058592, 2.451171875) (-0.0001738269348144531, 2.453125) (-0.00018525880432128906, 2.455078125) (-0.000196555419921875, 2.45703125) (-0.0002070902099609375, 2.458984375) (-0.00021611351013183593, 2.4609375) (-0.00022246670532226562, 2.462890625) (-0.0002255701446533203, 2.46484375) (-0.00022542591857910155, 2.466796875) (-0.00022235816955566405, 2.46875) (-0.00021703515625, 2.470703125) (-0.00020993531799316404, 2.47265625) (-0.0002012765655517578, 2.474609375) (-0.00019156274414062498, 2.4765625) (-0.00018165745544433592, 2.478515625) (-0.00017214755249023438, 2.48046875) (-0.00016333074951171874, 2.482421875) (-0.00015529876708984374, 2.484375) (-0.00014783558654785155, 2.486328125) (-0.00014080490112304686, 2.48828125) (-0.00013421551513671874, 2.490234375) (-0.0001279424514770508, 2.4921875) (-0.00012173532104492187, 2.494140625) (-0.00011541943359374999, 2.49609375) (-0.00010889055633544921, 2.498046875) (-0.0001021231460571289, 2.5) (-9.527178955078124e-05, 2.501953125) (-8.852673339843749e-05, 2.50390625) (-8.202038574218749e-05, 2.505859375) (-7.590924072265625e-05, 2.5078125) (-7.033625793457031e-05, 2.509765625) (-6.538265991210938e-05, 2.51171875) (-6.112052154541016e-05, 2.513671875) (-5.761048889160156e-05, 2.515625) (-5.4863368988037105e-05, 2.517578125) (-5.2857566833496094e-05, 2.51953125) (-5.155320358276367e-05, 2.521484375) (-5.085858154296875e-05, 2.5234375) (-5.066793823242187e-05, 2.525390625) (-5.092198944091797e-05, 2.52734375) (-5.1567752838134764e-05, 2.529296875) (-5.255558776855469e-05, 2.53125) (-5.381496429443359e-05, 2.533203125) (-5.5217555999755856e-05, 2.53515625) (-5.6643051147460934e-05, 2.537109375) (-5.800443649291992e-05, 2.5390625) (-5.923567962646484e-05, 2.541015625) (-6.029305267333984e-05, 2.54296875) (-6.113747406005859e-05, 2.544921875) (-6.171491241455077e-05, 2.546875) (-6.19874038696289e-05, 2.548828125) (-6.196664047241211e-05, 2.55078125) (-6.168296813964843e-05, 2.552734375) (-6.119359588623046e-05, 2.5546875) (-6.0571231842041015e-05, 2.556640625) (-5.98436279296875e-05, 2.55859375) (-5.902132797241211e-05, 2.560546875) (-5.811990356445312e-05, 2.5625) (-5.715449905395508e-05, 2.564453125) (-5.615260696411132e-05, 2.56640625) (-5.513272857666015e-05, 2.568359375) (-5.407787322998047e-05, 2.5703125) (-5.2947540283203125e-05, 2.572265625) (-5.170983123779297e-05, 2.57421875) (-5.034158706665039e-05, 2.576171875) (-4.882756805419922e-05, 2.578125) (-4.715358734130859e-05, 2.580078125) (-4.528096008300781e-05, 2.58203125) (-4.316375732421875e-05, 2.583984375) (-4.076879501342773e-05, 2.5859375) (-3.807231521606445e-05, 2.587890625) (-3.506714630126953e-05, 2.58984375) (-3.175600242614746e-05, 2.591796875) (-2.812301254272461e-05, 2.59375) (-2.4136859893798826e-05, 2.595703125) (-1.9778570175170898e-05, 2.59765625) (-1.5037591934204101e-05, 2.599609375) (-9.91691780090332e-06, 2.6015625) (-4.4385118484497065e-06, 2.603515625) (1.4030475616455077e-06, 2.60546875) (7.641551971435547e-06, 2.607421875) (1.4296335220336913e-05, 2.609375) (2.1379215240478513e-05, 2.611328125) (2.8899784088134764e-05, 2.61328125) (3.685774230957031e-05, 2.615234375) (4.529003143310547e-05, 2.6171875) (5.427052307128906e-05, 2.619140625) (6.384902954101562e-05, 2.62109375) (7.405482482910156e-05, 2.623046875) (8.487721252441406e-05, 2.625) (9.62518310546875e-05, 2.626953125) (0.00010811968994140624, 2.62890625) (0.00012042387390136719, 2.630859375) (0.00013307916259765624, 2.6328125) (0.0001459906768798828, 2.634765625) (0.0001590209045410156, 2.63671875) (0.00017198191833496092, 2.638671875) (0.00018472128295898436, 2.640625) (0.00019711753845214842, 2.642578125) (0.00020903886413574217, 2.64453125) (0.00022036502075195312, 2.646484375) (0.00023093124389648436, 2.6484375) (0.00024051991271972656, 2.650390625) (0.0002489609680175781, 2.65234375) (0.0002561295166015625, 2.654296875) (0.00026194122314453125, 2.65625) (0.0002663756103515625, 2.658203125) (0.00026941723632812497, 2.66015625) (0.0002710512084960937, 2.662109375) (0.0002713211669921875, 2.6640625) (0.00027031072998046876, 2.666015625) (0.0002681473388671875, 2.66796875) (0.00026501287841796875, 2.669921875) (0.0002610469970703125, 2.671875) (0.0002563448486328125, 2.673828125) (0.0002510155029296875, 2.67578125) (0.00024516130065917966, 2.677734375) (0.00023891880798339841, 2.6796875) (0.00023247140502929688, 2.681640625) (0.0002259603271484375, 2.68359375) (0.00021948431396484375, 2.685546875) (0.0002131284484863281, 2.6875) (0.00020694450378417969, 2.689453125) (0.0002009839172363281, 2.69140625) (0.00019530616760253904, 2.693359375) (0.00018992028808593748, 2.6953125) (0.00018479605102539063, 2.697265625) (0.00017988125610351563, 2.69921875) (0.0001750939483642578, 2.701171875) (0.00017038819885253906, 2.703125) (0.0001657591552734375, 2.705078125) (0.00016119668579101562, 2.70703125) (0.00015669647216796874, 2.708984375) (0.00015224478149414061, 2.7109375) (0.0001478079833984375, 2.712890625) (0.0001433792266845703, 2.71484375) (0.00013897877502441405, 2.716796875) (0.00013462141418457032, 2.71875) (0.00013032533264160156, 2.720703125) (0.00012610570526123046, 2.72265625) (0.00012196771240234375, 2.724609375) (0.00011794087982177734, 2.7265625) (0.00011407568359375, 2.728515625) (0.00011042459106445312, 2.73046875) (0.00010704567718505859, 2.732421875) (0.00010397840118408202, 2.734375) (0.00010123965454101562, 2.736328125) (9.884469604492187e-05, 2.73828125) (9.680389404296874e-05, 2.740234375) (9.51215591430664e-05, 2.7421875) (9.380078125e-05, 2.744140625) (9.283162689208984e-05, 2.74609375) (9.219075775146484e-05, 2.748046875) (9.185974884033203e-05, 2.75) (9.182318115234374e-05, 2.751953125) (9.206491851806641e-05, 2.75390625) (9.257131195068359e-05, 2.755859375) (9.33205337524414e-05, 2.7578125) (9.428245544433593e-05, 2.759765625) (9.542747497558593e-05, 2.76171875) (9.672575378417968e-05, 2.763671875) (9.814886474609375e-05, 2.765625) (9.96715316772461e-05, 2.767578125) (0.00010126797485351562, 2.76953125) (0.00010291212463378905, 2.771484375) (0.00010458124542236328, 2.7734375) (0.00010625518035888671, 2.775390625) (0.00010791613006591796, 2.77734375) (0.00010954911804199219, 2.779296875) (0.00011113790130615234, 2.78125) (0.00011266498565673828, 2.783203125) (0.00011411427307128906, 2.78515625) (0.0001154705810546875, 2.787109375) (0.00011672047424316406, 2.7890625) (0.0001178529052734375, 2.791015625) (0.00011885797119140624, 2.79296875) (0.00011972702026367187, 2.794921875) (0.00012045448303222656, 2.796875) (0.00012103740692138671, 2.798828125) (0.00012147498321533202, 2.80078125) (0.00012176869201660155, 2.802734375) (0.0001219213409423828, 2.8046875) (0.00012193690490722656, 2.806640625) (0.00012182112884521484, 2.80859375) (0.00012158133697509765, 2.810546875) (0.00012122602081298828, 2.8125) (0.00012076480102539061, 2.814453125) (0.00012020836639404297, 2.81640625) (0.00011956832885742188, 2.818359375) (0.0001188573760986328, 2.8203125) (0.00011808909606933593, 2.822265625) (0.00011727751922607421, 2.82421875) (0.00011643691253662109, 2.826171875) (0.00011558168029785156, 2.828125) (0.00011472628784179686, 2.830078125) (0.00011388533020019531, 2.83203125) (0.0001130731201171875, 2.833984375) (0.00011230348205566406, 2.8359375) (0.00011158965301513671, 2.837890625) (0.00011094423675537109, 2.83984375) (0.00011037917327880859, 2.841796875) (0.00010990573120117188, 2.84375) (0.00010953409576416015, 2.845703125) (0.0001092728042602539, 2.84765625) (0.00010912882995605468, 2.849609375) (0.00010910746765136719, 2.8515625) (0.00010921212768554687, 2.853515625) (0.00010944462585449218, 2.85546875) (0.0001098050537109375, 2.857421875) (0.00011029122924804687, 2.859375) (0.00011089920806884766, 2.861328125) (0.00011162370300292969, 2.86328125) (0.00011245790100097656, 2.865234375) (0.00011339397430419921, 2.8671875) (0.00011442296600341796, 2.869140625) (0.00011553424072265624, 2.87109375) (0.00011671562957763671, 2.873046875) (0.00011795391845703124, 2.875) (0.00011923475646972656, 2.876953125) (0.0001205429916381836, 2.87890625) (0.00012186275482177734, 2.880859375) (0.00012317723083496093, 2.8828125) (0.00012446913146972656, 2.884765625) (0.0001257210235595703, 2.88671875) (0.00012691551208496093, 2.888671875) (0.00012803556823730468, 2.890625) (0.00012906433105468748, 2.892578125) (0.0001299846496582031, 2.89453125) (0.0001307796936035156, 2.896484375) (0.00013143304443359374, 2.8984375) (0.00013192860412597655, 2.900390625) (0.00013225125122070313, 2.90234375) (0.00013238699340820313, 2.904296875) (0.00013232254028320312, 2.90625) (0.00013204638671875, 2.908203125) (0.00013154959106445312, 2.91015625) (0.0001308251953125, 2.912109375) (0.0001298686828613281, 2.9140625) (0.00012867869567871094, 2.916015625) (0.00012725599670410155, 2.91796875) (0.00012560363006591796, 2.919921875) (0.00012372804260253907, 2.921875) (0.00012163719177246094, 2.923828125) (0.00011933962249755859, 2.92578125) (0.00011684574890136719, 2.927734375) (0.0001141668701171875, 2.9296875) (0.00011131449127197265, 2.931640625) (0.00010830281829833984, 2.93359375) (0.00010514772033691406, 2.935546875) (0.00010186515808105468, 2.9375) (9.847416687011718e-05, 2.939453125) (9.499687957763671e-05, 2.94140625) (9.145738220214843e-05, 2.943359375) (8.788357543945313e-05, 2.9453125) (8.43052749633789e-05, 2.947265625) (8.075052642822265e-05, 2.94921875) (7.724732971191406e-05, 2.951171875) (7.38233184814453e-05, 2.953125) (7.050452423095703e-05, 2.955078125) (6.731868743896484e-05, 2.95703125) (6.429161071777343e-05, 2.958984375) (6.144456481933593e-05, 2.9609375) (5.880207824707031e-05, 2.962890625) (5.6390487670898435e-05, 2.96484375) (5.423827362060547e-05, 2.966796875) (5.238188934326172e-05, 2.96875) (5.085218048095703e-05, 2.970703125) (4.9664840698242186e-05, 2.97265625) (4.883006286621093e-05, 2.974609375) (4.8348571777343746e-05, 2.9765625) (4.8207748413085934e-05, 2.978515625) (4.839927673339843e-05, 2.98046875) (4.8910854339599605e-05, 2.982421875) (4.971656799316406e-05, 2.984375) (5.080012130737304e-05, 2.986328125) (5.2155033111572266e-05, 2.98828125) (5.378322601318359e-05, 2.990234375) (5.5709049224853514e-05, 2.9921875) (5.795709228515625e-05, 2.994140625) (6.05322265625e-05, 2.99609375) (6.342551422119141e-05, 2.998046875) (6.660819244384765e-05, 3.0) (7.004977416992187e-05, 3.001953125) (7.374427795410155e-05, 3.00390625) (7.768849182128906e-05, 3.005859375) (8.187944793701172e-05, 3.0078125) (8.633389282226562e-05, 3.009765625) (9.105992126464843e-05, 3.01171875) (9.60723876953125e-05, 3.013671875) (0.0001014163589477539, 3.015625) (0.00010710765075683593, 3.017578125) (0.00011311886596679687, 3.01953125) (0.00011939479064941405, 3.021484375) (0.00012582707214355468, 3.0234375) (0.0001322886962890625, 3.025390625) (0.0001386883087158203, 3.02734375) (0.00014495187377929687, 3.029296875) (0.00015102066040039062, 3.03125) (0.000156847412109375, 3.033203125) (0.00016235870361328125, 3.03515625) (0.00016748178100585935, 3.037109375) (0.00017215853881835937, 3.0390625) (0.00017630836486816405, 3.041015625) (0.0001798511962890625, 3.04296875) (0.00018269279479980467, 3.044921875) (0.00018469879150390624, 3.046875) (0.00018577574157714843, 3.048828125) (0.00018589468383789062, 3.05078125) (0.00018506297302246094, 3.052734375) (0.00018335037231445312, 3.0546875) (0.00018085525512695312, 3.056640625) (0.00017763912963867187, 3.05859375) (0.00017375830078125, 3.060546875) (0.0001692699432373047, 3.0625) (0.00016421340942382811, 3.064453125) (0.00015864862060546874, 3.06640625) (0.00015263583374023438, 3.068359375) (0.0001462216796875, 3.0703125) (0.00013948733520507812, 3.072265625) (0.00013252996826171873, 3.07421875) (0.00012546501159667968, 3.076171875) (0.00011844535827636719, 3.078125) (0.00011159027099609375, 3.080078125) (0.00010497250366210937, 3.08203125) (9.865179443359374e-05, 3.083984375) (9.264922332763671e-05, 3.0859375) (8.696735382080078e-05, 3.087890625) (8.16312255859375e-05, 3.08984375) (7.665191650390625e-05, 3.091796875) (7.202783966064453e-05, 3.09375) (6.777204132080077e-05, 3.095703125) (6.387567901611328e-05, 3.09765625) (6.031108093261719e-05, 3.099609375) (5.704518127441406e-05, 3.1015625) (5.399946594238281e-05, 3.103515625) (5.107045745849609e-05, 3.10546875) (4.814454269409179e-05, 3.107421875) (4.5071922302246094e-05, 3.109375) (4.1708053588867184e-05, 3.111328125) (3.793339157104492e-05, 3.11328125) (3.3647880554199216e-05, 3.115234375) (2.8760164260864258e-05, 3.1171875) (2.3158630371093748e-05, 3.119140625) (1.6756994247436524e-05, 3.12109375) (9.539763450622558e-06, 3.123046875) (1.6366729736328124e-06, 3.125) (-6.641275405883789e-06, 3.126953125) (-1.4932398796081543e-05, 3.12890625) (-2.2909828186035156e-05, 3.130859375) (-3.0218746185302733e-05, 3.1328125) (-3.640913391113281e-05, 3.134765625) (-4.105332946777344e-05, 3.13671875) (-4.3854095458984376e-05, 3.138671875) (-4.493989181518555e-05, 3.140625) (-4.506472015380859e-05, 3.142578125) (-4.5101646423339845e-05, 3.14453125) (-4.573454284667968e-05, 3.146484375) (-4.7637741088867185e-05, 3.1484375) (-5.1457489013671874e-05, 3.150390625) (-5.790065002441406e-05, 3.15234375) (-6.772456359863281e-05, 3.154296875) (-7.950387573242187e-05, 3.15625) (-8.9276611328125e-05, 3.158203125) (-9.326124572753905e-05, 3.16015625) (-8.753248596191406e-05, 3.162109375) (-7.257792663574218e-05, 3.1640625) (-5.4497379302978515e-05, 3.166015625) (-3.52057876586914e-05, 3.16796875) (-1.4605120658874512e-05, 3.169921875) (1.2904410362243652e-05, 3.171875) (6.329292678833007e-05, 3.173828125) (0.00014507601928710938, 3.17578125) (0.00026105474853515626, 3.177734375) (0.0004094969482421875, 3.1796875) (0.0005717816162109375, 3.181640625) (0.0007274179077148437, 3.18359375) (0.0008565877685546875, 3.185546875) (0.0009355442504882812, 3.1875) (0.0009524055175781249, 3.189453125) (0.0009070823364257812, 3.19140625) (0.0008058695068359374, 3.193359375) (0.0006645833740234375, 3.1953125) (0.0005020780334472656, 3.197265625) (0.0003323372192382812, 3.19921875) (0.00016831417846679687, 3.201171875) (2.4164871215820312e-05, 3.203125) (-9.135630798339844e-05, 3.205078125) (-0.00017469915771484374, 3.20703125) (-0.00022533734130859373, 3.208984375) (-0.000251477294921875, 3.2109375) (-0.0002624937133789062, 3.212890625) (-0.0002597099609375, 3.21484375) (-0.00024684953308105466, 3.216796875) (-0.00022757386779785155, 3.21875) (-0.00020331271362304687, 3.220703125) (-0.00018328962707519532, 3.22265625) (-0.00017145220947265623, 3.224609375) (-0.00016344467163085936, 3.2265625) (-0.00015659930419921873, 3.228515625) (-0.00014502587890624999, 3.23046875) (-0.00012690864562988282, 3.232421875) (-0.00010826554107666016, 3.234375) (-9.302973175048828e-05, 3.236328125) (-8.357036590576172e-05, 3.23828125) (-8.009226989746094e-05, 3.240234375) (-7.957102966308594e-05, 3.2421875) (-8.075038146972656e-05, 3.244140625) (-8.377057647705078e-05, 3.24609375) (-8.859132385253906e-05, 3.248046875) (-9.495881652832031e-05, 3.25) (-0.00010148284912109375, 3.251953125) (-0.00010691159057617188, 3.25390625) (-0.0001109428253173828, 3.255859375) (-0.0001135712432861328, 3.2578125) (-0.000114882080078125, 3.259765625) (-0.00011492945861816406, 3.26171875) (-0.00011367428588867188, 3.263671875) (-0.0001115501480102539, 3.265625) (-0.00010958248901367186, 3.267578125) (-0.00010843798828125, 3.26953125) (-0.00010834233856201172, 3.271484375) (-0.00010929801940917968, 3.2734375) (-0.00011098983764648437, 3.275390625) (-0.0001131555938720703, 3.27734375) (-0.0001157005386352539, 3.279296875) (-0.00011836952209472656, 3.28125) (-0.00012076434326171874, 3.283203125) (-0.00012265283203125, 3.28515625) (-0.00012390804290771484, 3.287109375) (-0.00012450614929199218, 3.2890625) (-0.00012460006713867187, 3.291015625) (-0.0001243011016845703, 3.29296875) (-0.0001236555709838867, 3.294921875) (-0.00012274366760253906, 3.296875) (-0.00012163101196289061, 3.298828125) (-0.00012036408233642578, 3.30078125) (-0.00011900711059570312, 3.302734375) (-0.00011760810852050781, 3.3046875) (-0.00011620021820068359, 3.306640625) (-0.00011483718109130859, 3.30859375) (-0.00011355882263183593, 3.310546875) (-0.00011238895416259766, 3.3125) (-0.00011135329437255859, 3.314453125) (-0.00011045912170410156, 3.31640625) (-0.00010970480346679687, 3.318359375) (-0.00010908523559570312, 3.3203125) (-0.00010857498168945312, 3.322265625) (-0.00010814252471923827, 3.32421875) (-0.0001077662353515625, 3.326171875) (-0.000107428955078125, 3.328125) (-0.00010712102508544921, 3.330078125) (-0.00010683512878417968, 3.33203125) (-0.00010655348205566406, 3.333984375) (-0.0001062547607421875, 3.3359375) (-0.0001059190902709961, 3.337890625) (-0.00010552474212646484, 3.33984375) (-0.00010505301666259765, 3.341796875) (-0.00010448638916015625, 3.34375) (-0.00010380414581298828, 3.345703125) (-0.00010298876190185546, 3.34765625) (-0.00010202775573730468, 3.349609375) (-0.00010091096496582031, 3.3515625) (-9.963245391845703e-05, 3.353515625) (-9.81880645751953e-05, 3.35546875) (-9.65706787109375e-05, 3.357421875) (-9.477256011962891e-05, 3.359375) (-9.278689575195312e-05, 3.361328125) (-9.060720825195313e-05, 3.36328125) (-8.822899627685547e-05, 3.365234375) (-8.564967346191406e-05, 3.3671875) (-8.286712646484374e-05, 3.369140625) (-7.988069152832031e-05, 3.37109375) (-7.66927490234375e-05, 3.373046875) (-7.330799102783203e-05, 3.375) (-6.973323822021484e-05, 3.376953125) (-6.597711181640624e-05, 3.37890625) (-6.204887771606445e-05, 3.380859375) (-5.7958915710449216e-05, 3.3828125) (-5.371936798095703e-05, 3.384765625) (-4.934383773803711e-05, 3.38671875) (-4.484706497192382e-05, 3.388671875) (-4.024507141113281e-05, 3.390625) (-3.555495452880859e-05, 3.392578125) (-3.0794816970825195e-05, 3.39453125) (-2.598430633544922e-05, 3.396484375) (-2.1144065856933594e-05, 3.3984375) (-1.6295160293579102e-05, 3.400390625) (-1.145940589904785e-05, 3.40234375) (-6.65916633605957e-06, 3.404296875) (-1.9171499013900755e-06, 3.40625) (2.7434215545654295e-06, 3.408203125) (7.299173355102539e-06, 3.41015625) (1.1727062225341797e-05, 3.412109375) (1.6004238128662108e-05, 3.4140625) (2.01081600189209e-05, 3.416015625) (2.4016986846923828e-05, 3.41796875) (2.7709495544433594e-05, 3.419921875) (3.116533660888672e-05, 3.421875) (3.4365436553955075e-05, 3.423828125) (3.729190826416016e-05, 3.42578125) (3.992813491821289e-05, 3.427734375) (4.225897216796875e-05, 3.4296875) (4.427066802978516e-05, 3.431640625) (4.595098495483398e-05, 3.43359375) (4.728958892822266e-05, 3.435546875) (4.827798461914062e-05, 3.4375) (4.890945816040039e-05, 3.439453125) (4.9179229736328124e-05, 3.44140625) (4.90843505859375e-05, 3.443359375) (4.8623752593994135e-05, 3.4453125) (4.779841232299804e-05, 3.447265625) (4.6611228942871095e-05, 3.44921875) (4.506690216064453e-05, 3.451171875) (4.3171951293945314e-05, 3.453125) (4.093468856811523e-05, 3.455078125) (3.8365104675292966e-05, 3.45703125) (3.5474952697753904e-05, 3.458984375) (3.227761459350586e-05, 3.4609375) (2.8787986755371092e-05, 3.462890625) (2.502252197265625e-05, 3.46484375) (2.099913787841797e-05, 3.466796875) (1.6737106323242188e-05, 3.46875) (1.2256974220275878e-05, 3.470703125) (7.580410480499267e-06, 3.47265625) (2.730031013488769e-06, 3.474609375) (-2.2707209587097168e-06, 3.4765625) (-7.397784233093261e-06, 3.478515625) (-1.2626724243164062e-05, 3.48046875) (-1.7932888031005857e-05, 3.482421875) (-2.3291576385498047e-05, 3.484375) (-2.867820930480957e-05, 3.486328125) (-3.4068397521972655e-05, 3.48828125) (-3.9438095092773436e-05, 3.490234375) (-4.4763744354248044e-05, 3.4921875) (-5.002235412597656e-05, 3.494140625) (-5.5191619873046875e-05, 3.49609375) (-6.0250061035156246e-05, 3.498046875) (-6.517715454101562e-05, 3.5) (-6.99534454345703e-05, 3.501953125) (-7.456077575683593e-05, 3.50390625) (-7.898234558105468e-05, 3.505859375) (-8.320281982421875e-05, 3.5078125) (-8.720840454101562e-05, 3.509765625) (-9.098684692382812e-05, 3.51171875) (-9.452748107910156e-05, 3.513671875) (-9.78212890625e-05, 3.515625) (-0.00010086087799072265, 3.517578125) (-0.0001036405029296875, 3.51953125) (-0.00010615599060058594, 3.521484375) (-0.00010840488433837891, 3.5234375) (-0.00011038641357421875, 3.525390625) (-0.00011210153198242188, 3.52734375) (-0.00011355300140380859, 3.529296875) (-0.00011474527740478515, 3.53125) (-0.00011568449401855469, 3.533203125) (-0.0001163782730102539, 3.53515625) (-0.00011683572387695312, 3.537109375) (-0.0001170672607421875, 3.5390625) (-0.00011708447265625, 3.541015625) (-0.00011689988708496093, 3.54296875) (-0.00011652684783935546, 3.544921875) (-0.00011597935485839843, 3.546875) (-0.00011527204895019531, 3.548828125) (-0.00011442007446289063, 3.55078125) (-0.0001134390640258789, 3.552734375) (-0.00011234494018554687, 3.5546875) (-0.00011115385437011719, 3.556640625) (-0.00010988202667236328, 3.55859375) (-0.00010854566955566406, 3.560546875) (-0.00010716084289550781, 3.5625) (-0.00010574330139160156, 3.564453125) (-0.00010430824279785156, 3.56640625) (-0.00010287030029296875, 3.568359375) (-0.00010144337463378906, 3.5703125) (-0.00010004060363769531, 3.572265625) (-9.867433166503906e-05, 3.57421875) (-9.735612487792969e-05, 3.576171875) (-9.609664916992187e-05, 3.578125) (-9.490567016601562e-05, 3.580078125) (-9.37920150756836e-05, 3.58203125) (-9.276358032226562e-05, 3.583984375) (-9.182720947265625e-05, 3.5859375) (-9.098870849609375e-05, 3.587890625) (-9.025265502929686e-05, 3.58984375) (-8.962237548828125e-05, 3.591796875) (-8.910002136230468e-05, 3.59375) (-8.868658447265625e-05, 3.595703125) (-8.838197326660155e-05, 3.59765625) (-8.818511962890625e-05, 3.599609375) (-8.809397888183594e-05, 3.6015625) (-8.810570526123046e-05, 3.603515625) (-8.821676635742187e-05, 3.60546875) (-8.842306518554686e-05, 3.607421875) (-8.871997070312499e-05, 3.609375) (-8.910234069824219e-05, 3.611328125) (-8.95645751953125e-05, 3.61328125) (-9.010057830810546e-05, 3.615234375) (-9.070390319824218e-05, 3.6171875) (-9.136785125732421e-05, 3.619140625) (-9.208550262451171e-05, 3.62109375) (-9.284986877441405e-05, 3.623046875) (-9.365393829345703e-05, 3.625) (-9.449079132080078e-05, 3.626953125) (-9.535379791259765e-05, 3.62890625) (-9.623667907714843e-05, 3.630859375) (-9.713354492187499e-05, 3.6328125) (-9.803890991210938e-05, 3.634765625) (-9.89477081298828e-05, 3.63671875) (-9.985527038574218e-05, 3.638671875) (-0.00010075738525390625, 3.640625) (-0.00010165036010742187, 3.642578125) (-0.00010253099060058593, 3.64453125) (-0.00010339656066894531, 3.646484375) (-0.00010424493408203125, 3.6484375) (-0.00010507450103759765, 3.650390625) (-0.0001058843536376953, 3.65234375) (-0.00010667431640625, 3.654296875) (-0.00010744484710693359, 3.65625) (-0.00010819696044921875, 3.658203125) (-0.00010893218994140625, 3.66015625) (-0.00010965248870849609, 3.662109375) (-0.00011036026000976562, 3.6640625) (-0.00011105825805664062, 3.666015625) (-0.00011174941253662109, 3.66796875) (-0.00011243675231933593, 3.669921875) (-0.0001131233901977539, 3.671875) (-0.0001138124771118164, 3.673828125) (-0.00011450726318359374, 3.67578125) (-0.00011521112060546875, 3.677734375) (-0.00011592737579345702, 3.6796875) (-0.00011665929412841796, 3.681640625) (-0.00011740992736816406, 3.68359375) (-0.0001181821060180664, 3.685546875) (-0.00011897841644287108, 3.6875) (-0.00011980113220214843, 3.689453125) (-0.00012065194702148437, 3.69140625) (-0.00012153201293945313, 3.693359375) (-0.00012244178771972657, 3.6953125) (-0.00012338096618652342, 3.697265625) (-0.00012434867858886718, 3.69921875) (-0.000125343505859375, 3.701171875) (-0.0001263632354736328, 3.703125) (-0.00012740485382080078, 3.705078125) (-0.00012846466064453125, 3.70703125) (-0.00012953817749023438, 3.708984375) (-0.00013062034606933594, 3.7109375) (-0.00013170555114746092, 3.712890625) (-0.00013278733825683594, 3.71484375) (-0.0001338583984375, 3.716796875) (-0.00013491085815429686, 3.71875) (-0.0001359362335205078, 3.720703125) (-0.00013692559814453125, 3.72265625) (-0.0001378696746826172, 3.724609375) (-0.00013875871276855468, 3.7265625) (-0.00013958245849609373, 3.728515625) (-0.00014033065795898437, 3.73046875) (-0.0001409931640625, 3.732421875) (-0.0001415600128173828, 3.734375) (-0.00014202146911621093, 3.736328125) (-0.000142367919921875, 3.73828125) (-0.00014258988952636718, 3.740234375) (-0.00014267825317382813, 3.7421875) (-0.00014262440490722656, 3.744140625) (-0.00014242027282714844, 3.74609375) (-0.00014205845642089842, 3.748046875) (-0.00014153204345703125, 3.75) (-0.00014083462524414061, 3.751953125) (-0.00013996081542968749, 3.75390625) (-0.00013890640258789062, 3.755859375) (-0.00013766844177246092, 3.7578125) (-0.0001362454833984375, 3.759765625) (-0.0001346372375488281, 3.76171875) (-0.00013284432983398436, 3.763671875) (-0.00013086927795410156, 3.765625) (-0.00012871643066406248, 3.767578125) (-0.00012639178466796873, 3.76953125) (-0.00012390274810791015, 3.771484375) (-0.00012125778198242187, 3.7734375) (-0.00011846617889404296, 3.775390625) (-0.00011553922271728515, 3.77734375) (-0.00011249029541015625, 3.779296875) (-0.00010933427429199219, 3.78125) (-0.00010608721160888672, 3.783203125) (-0.00010276644897460937, 3.78515625) (-9.939071655273437e-05, 3.787109375) (-9.598069763183594e-05, 3.7890625) (-9.25599365234375e-05, 3.791015625) (-8.915301513671875e-05, 3.79296875) (-8.578433227539062e-05, 3.794921875) (-8.247840881347655e-05, 3.796875) (-7.925951385498047e-05, 3.798828125) (-7.615173339843749e-05, 3.80078125) (-7.318042755126952e-05, 3.802734375) (-7.037107086181641e-05, 3.8046875) (-6.774720001220703e-05, 3.806640625) (-6.533128356933593e-05, 3.80859375) (-6.314489746093749e-05, 3.810546875) (-6.120893096923828e-05, 3.8125) (-5.9545692443847656e-05, 3.814453125) (-5.817729568481445e-05, 3.81640625) (-5.712214279174804e-05, 3.818359375) (-5.639556884765625e-05, 3.8203125) (-5.6008556365966796e-05, 3.822265625) (-5.596816253662109e-05, 3.82421875) (-5.62822265625e-05, 3.826171875) (-5.695518493652344e-05, 3.828125) (-5.798592376708984e-05, 3.830078125) (-5.9372978210449214e-05, 3.83203125) (-6.111065292358398e-05, 3.833984375) (-6.319073867797851e-05, 3.8359375) (-6.56109619140625e-05, 3.837890625) (-6.836719512939453e-05, 3.83984375) (-7.144770050048827e-05, 3.841796875) (-7.484052276611328e-05, 3.84375) (-7.852745819091796e-05, 3.845703125) (-8.247841644287109e-05, 3.84765625) (-8.666423034667969e-05, 3.849609375) (-9.10484161376953e-05, 3.8515625) (-9.558309173583984e-05, 3.853515625) (-0.00010022601318359374, 3.85546875) (-0.00010493212890624999, 3.857421875) (-0.00010965516662597656, 3.859375) (-0.0001143548355102539, 3.861328125) (-0.00011898165893554687, 3.86328125) (-0.0001234862823486328, 3.865234375) (-0.00012782948303222656, 3.8671875) (-0.00013197195434570312, 3.869140625) (-0.0001358804931640625, 3.87109375) (-0.0001395233459472656, 3.873046875) (-0.0001428385772705078, 3.875) (-0.00014576000976562498, 3.876953125) (-0.00014826654052734376, 3.87890625) (-0.00015036735534667967, 3.880859375) (-0.0001521259002685547, 3.8828125) (-0.00015360569763183594, 3.884765625) (-0.0001547841796875, 3.88671875) (-0.00015568876647949217, 3.888671875) (-0.00015646908569335937, 3.890625) (-0.00015738279724121092, 3.892578125) (-0.00015874102783203125, 3.89453125) (-0.0001607012939453125, 3.896484375) (-0.00016313357543945313, 3.8984375) (-0.00016590008544921874, 3.900390625) (-0.00016909100341796875, 3.90234375) (-0.00017270396423339844, 3.904296875) (-0.00017652752685546873, 3.90625) (-0.00017991937255859374, 3.908203125) (-0.00018180509948730468, 3.91015625) (-0.00018145791625976562, 3.912109375) (-0.00017884791564941406, 3.9140625) (-0.0001741707763671875, 3.916015625) (-0.00016735969543457032, 3.91796875) (-0.00015837757873535154, 3.919921875) (-0.00014744334411621093, 3.921875) (-0.00013568080139160155, 3.923828125) (-0.0001252807388305664, 3.92578125) (-0.0001180488510131836, 3.927734375) (-0.00011466646575927734, 3.9296875) (-0.00011524707031249999, 3.931640625) (-0.00012005825805664063, 3.93359375) (-0.00012936216735839843, 3.935546875) (-0.0001430426025390625, 3.9375) (-0.00015838337707519532, 3.939453125) (-0.00016981675720214844, 3.94140625) (-0.0001726748352050781, 3.943359375) (-0.00016432615661621092, 3.9453125) (-0.00014638650512695313, 3.947265625) (-0.0001229165573120117, 3.94921875) (-9.339186859130859e-05, 3.951171875) (-5.351056671142578e-05, 3.953125) (3.856922149658203e-06, 3.955078125) (8.616918945312499e-05, 3.95703125) (0.00019254095458984375, 3.958984375) (0.00031594360351562496, 3.9609375) (0.00044814691162109373, 3.962890625) (0.0005777767944335937, 3.96484375) (0.0006948901977539062, 3.966796875) (0.0007905695800781249, 3.96875) (0.00084927197265625, 3.970703125) (0.0008567316894531249, 3.97265625) (0.0008059776611328125, 3.974609375) (0.0006953286743164063, 3.9765625) (0.000538483642578125, 3.978515625) (0.00035976025390624996, 3.98046875) (0.00018094064331054685, 3.982421875) (2.493375778198242e-05, 3.984375) (-9.372785949707031e-05, 3.986328125) (-0.00017510987854003906, 3.98828125) (-0.00022313774108886718, 3.990234375) (-0.0002489053955078125, 3.9921875) (-0.0002660353698730469, 3.994140625) (-0.00027883020019531246, 3.99609375) (-0.00028763977050781246, 3.998046875) (-0.00028925439453125, 4.0) (-0.0002780780029296875, 4.001953125) (-0.00025474716186523437, 4.00390625) (-0.00022346061706542968, 4.005859375) (-0.0001887594757080078, 4.0078125) (-0.00015566043090820312, 4.009765625) (-0.0001263961944580078, 4.01171875) (-0.00010163917541503906, 4.013671875) (-8.271104431152343e-05, 4.015625) (-6.997403717041015e-05, 4.017578125) (-6.303652954101562e-05, 4.01953125) (-6.123299407958984e-05, 4.021484375) (-6.320182037353516e-05, 4.0234375) (-6.769450378417969e-05, 4.025390625) (-7.389511108398437e-05, 4.02734375) (-8.049139404296874e-05, 4.029296875) (-8.553665161132812e-05, 4.03125) (-8.769673919677734e-05, 4.033203125) (-8.635264587402343e-05, 4.03515625) (-8.138819122314452e-05, 4.037109375) (-7.339522552490234e-05, 4.0390625) (-6.30260009765625e-05, 4.041015625) (-5.077580261230468e-05, 4.04296875) (-3.759413909912109e-05, 4.044921875) (-2.4776094436645506e-05, 4.046875) (-1.3178912162780762e-05, 4.048828125) (-3.2766711711883543e-06, 4.05078125) (4.7530517578125e-06, 4.052734375) (1.1167146682739258e-05, 4.0546875) (1.624069595336914e-05, 4.056640625) (2.0164140701293944e-05, 4.05859375) (2.3327276229858396e-05, 4.060546875) (2.6165000915527343e-05, 4.0625) (2.8876440048217774e-05, 4.064453125) (3.15465145111084e-05, 4.06640625) (3.41568489074707e-05, 4.068359375) (3.6588005065917964e-05, 4.0703125) (3.880476379394531e-05, 4.072265625) (4.0836357116699215e-05, 4.07421875) (4.269238662719726e-05, 4.076171875) (4.437058639526367e-05, 4.078125) (4.588147735595703e-05, 4.080078125) (4.723727798461914e-05, 4.08203125) (4.846406555175781e-05, 4.083984375) (4.958914566040039e-05, 4.0859375) (5.0600376129150385e-05, 4.087890625) (5.147282409667968e-05, 4.08984375) (5.218154144287109e-05, 4.091796875) (5.274142837524414e-05, 4.09375) (5.3220481872558595e-05, 4.095703125) (5.3684844970703124e-05, 4.09765625) (5.418956756591797e-05, 4.099609375) (5.47598762512207e-05, 4.1015625) (5.5389930725097654e-05, 4.103515625) (5.6055969238281246e-05, 4.10546875) (5.671439743041992e-05, 4.107421875) (5.732374954223632e-05, 4.109375) (5.7848869323730466e-05, 4.111328125) (5.8267818450927734e-05, 4.11328125) (5.857730102539062e-05, 4.115234375) (5.879154586791992e-05, 4.1171875) (5.893999481201172e-05, 4.119140625) (5.905813980102539e-05, 4.12109375) (5.9189498901367184e-05, 4.123046875) (5.936215591430664e-05, 4.125) (5.958179473876953e-05, 4.126953125) (5.985381317138672e-05, 4.12890625) (6.018666076660156e-05, 4.130859375) (6.0602462768554685e-05, 4.1328125) (6.11431655883789e-05, 4.134765625) (6.186691284179687e-05, 4.13671875) (6.283566284179688e-05, 4.138671875) (6.410257720947266e-05, 4.140625) (6.571649169921874e-05, 4.142578125) (6.771399688720703e-05, 4.14453125) (7.011494445800781e-05, 4.146484375) (7.292668151855468e-05, 4.1484375) (7.613719177246093e-05, 4.150390625) (7.971490478515625e-05, 4.15234375) (8.362319946289062e-05, 4.154296875) (8.783161926269532e-05, 4.15625) (9.231939697265624e-05, 4.158203125) (9.707632446289063e-05, 4.16015625) (0.0001020953140258789, 4.162109375) (0.00010736851501464843, 4.1640625) (0.00011288113403320312, 4.166015625) (0.00011860972595214843, 4.16796875) (0.0001245460205078125, 4.169921875) (0.00013070011901855467, 4.171875) (0.00013708883666992187, 4.173828125) (0.00014373893737792967, 4.17578125) (0.00015068246459960937, 4.177734375) (0.00015795211791992187, 4.1796875) (0.00016560040283203125, 4.181640625) (0.00017370317077636718, 4.18359375) (0.0001823231964111328, 4.185546875) (0.00019150210571289061, 4.1875) (0.00020125973510742187, 4.189453125) (0.00021158412170410156, 4.19140625) (0.00022244378662109374, 4.193359375) (0.00023378825378417967, 4.1953125) (0.0002455531311035156, 4.197265625) (0.0002576629028320312, 4.19921875) (0.0002700037536621094, 4.201171875) (0.0002824287109375, 4.203125) (0.00029476837158203125, 4.205078125) (0.00030683331298828124, 4.20703125) (0.0003184404296875, 4.208984375) (0.00032941790771484375, 4.2109375) (0.000339575439453125, 4.212890625) (0.0003487033081054687, 4.21484375) (0.00035661657714843747, 4.216796875) (0.0003631626281738281, 4.21875) (0.000368224365234375, 4.220703125) (0.0003717315673828125, 4.22265625) (0.0003736415405273437, 4.224609375) (0.0003739404296875, 4.2265625) (0.0003726435546875, 4.228515625) (0.0003697938842773437, 4.23046875) (0.00036548422241210936, 4.232421875) (0.0003598468627929687, 4.234375) (0.00035304913330078125, 4.236328125) (0.0003452887268066406, 4.23828125) (0.000336750244140625, 4.240234375) (0.00032760174560546876, 4.2421875) (0.00031802572631835934, 4.244140625) (0.00030821585083007813, 4.24609375) (0.00029834759521484374, 4.248046875) (0.000288574951171875, 4.25) (0.0002790205078125, 4.251953125) (0.0002697689208984375, 4.25390625) (0.00026089306640624996, 4.255859375) (0.00025245166015625, 4.2578125) (0.00024448350524902343, 4.259765625) (0.0002370084533691406, 4.26171875) (0.00023001248168945311, 4.263671875) (0.00022345698547363282, 4.265625) (0.00021728062438964842, 4.267578125) (0.00021140206909179687, 4.26953125) (0.00020575807189941405, 4.271484375) (0.00020030416870117187, 4.2734375) (0.00019499380493164062, 4.275390625) (0.00018978274536132813, 4.27734375) (0.00018463761901855468, 4.279296875) (0.00017953431701660155, 4.28125) (0.00017446916198730469, 4.283203125) (0.00016946002197265625, 4.28515625) (0.0001645211944580078, 4.287109375) (0.00015966558837890625, 4.2890625) (0.00015491085815429686, 4.291015625) (0.00015027746582031248, 4.29296875) (0.0001457982635498047, 4.294921875) (0.0001415137176513672, 4.296875) (0.00013746865844726562, 4.298828125) (0.00013371163940429688, 4.30078125) (0.00013027780151367188, 4.302734375) (0.00012718859100341797, 4.3046875) (0.00012446010589599608, 4.306640625) (0.00012210037231445313, 4.30859375) (0.00012010943603515625, 4.310546875) (0.00011848208618164062, 4.3125) (0.00011720144653320312, 4.314453125) (0.0001162398681640625, 4.31640625) (0.00011557321166992186, 4.318359375) (0.00011517977905273437, 4.3203125) (0.00011503693389892578, 4.322265625) (0.00011512294006347655, 4.32421875) (0.00011541178131103515, 4.326171875) (0.00011587423706054687, 4.328125) (0.00011648110961914061, 4.330078125) (0.00011720307159423828, 4.33203125) (0.00011801258087158203, 4.333984375) (0.0001188844985961914, 4.3359375) (0.00011979483795166015, 4.337890625) (0.00012072148132324218, 4.33984375) (0.00012164466857910156, 4.341796875) (0.00012254617309570312, 4.34375) (0.00012341060638427733, 4.345703125) (0.00012422541809082032, 4.34765625) (0.00012497711181640625, 4.349609375) (0.00012565170288085937, 4.3515625) (0.00012623583984375, 4.353515625) (0.00012671629333496092, 4.35546875) (0.00012708168029785155, 4.357421875) (0.00012732283020019532, 4.359375) (0.0001274315414428711, 4.361328125) (0.00012740092468261719, 4.36328125) (0.000127226806640625, 4.365234375) (0.00012690753173828125, 4.3671875) (0.00012644380187988282, 4.369140625) (0.0001258388214111328, 4.37109375) (0.00012509721374511719, 4.373046875) (0.00012422488403320312, 4.375) (0.00012322931671142578, 4.376953125) (0.00012211936950683592, 4.37890625) (0.0001209050064086914, 4.380859375) (0.00011959722900390624, 4.3828125) (0.00011820789337158202, 4.384765625) (0.00011674954986572265, 4.38671875) (0.00011523532104492187, 4.388671875) (0.00011367870330810546, 4.390625) (0.00011209344482421875, 4.392578125) (0.00011049343872070312, 4.39453125) (0.00010889229583740233, 4.396484375) (0.00010730335998535156, 4.3984375) (0.00010573937225341796, 4.400390625) (0.00010421238708496094, 4.40234375) (0.00010273384857177733, 4.404296875) (0.00010131471252441406, 4.40625) (9.996511840820312e-05, 4.408203125) (9.869439697265625e-05, 4.41015625) (9.751100158691405e-05, 4.412109375) (9.642243957519531e-05, 4.4140625) (9.543515014648437e-05, 4.416015625) (9.4554443359375e-05, 4.41796875) (9.378421020507812e-05, 4.419921875) (9.312680816650391e-05, 4.421875) (9.258305358886718e-05, 4.423828125) (9.215203094482421e-05, 4.42578125) (9.183100891113281e-05, 4.427734375) (9.161536407470702e-05, 4.4296875) (9.149879455566406e-05, 4.431640625) (9.147335815429687e-05, 4.43359375) (9.152955627441406e-05, 4.435546875) (9.165642547607422e-05, 4.4375) (9.184172058105468e-05, 4.439453125) (9.207194519042969e-05, 4.44140625) (9.233258056640625e-05, 4.443359375) (9.260821533203125e-05, 4.4453125) (9.288255310058593e-05, 4.447265625) (9.313861083984374e-05, 4.44921875) (9.335889434814453e-05, 4.451171875) (9.352571105957031e-05, 4.453125) (9.362129211425781e-05, 4.455078125) (9.36280288696289e-05, 4.45703125) (9.352857971191406e-05, 4.458984375) (9.330599975585937e-05, 4.4609375) (9.294402313232422e-05, 4.462890625) (9.242713165283203e-05, 4.46484375) (9.174061584472656e-05, 4.466796875) (9.087066650390624e-05, 4.46875) (8.980444335937499e-05, 4.470703125) (8.853012084960937e-05, 4.47265625) (8.703721618652344e-05, 4.474609375) (8.531665802001953e-05, 4.4765625) (8.336101531982422e-05, 4.478515625) (8.116465759277343e-05, 4.48046875) (7.872382354736328e-05, 4.482421875) (7.603659057617187e-05, 4.484375) (7.31032485961914e-05, 4.486328125) (6.992636108398438e-05, 4.48828125) (6.651055908203125e-05, 4.490234375) (6.286267852783203e-05, 4.4921875) (5.899151611328125e-05, 4.494140625) (5.490766906738281e-05, 4.49609375) (5.062384033203125e-05, 4.498046875) (4.6154823303222654e-05, 4.5) (4.151718139648437e-05, 4.501953125) (3.6729209899902344e-05, 4.50390625) (3.181088256835937e-05, 4.505859375) (2.678353118896484e-05, 4.5078125) (2.1670063018798825e-05, 4.509765625) (1.649494171142578e-05, 4.51171875) (1.1283400535583496e-05, 4.513671875) (6.061276435852051e-06, 4.515625) (8.54776382446289e-07, 4.517578125) (-4.309898376464843e-06, 4.51953125) (-9.406354904174804e-06, 4.521484375) (-1.4407976150512694e-05, 4.5234375) (-1.9288484573364255e-05, 4.525390625) (-2.402205467224121e-05, 4.52734375) (-2.8583404541015623e-05, 4.529296875) (-3.294821929931641e-05, 4.53125) (-3.7092792510986323e-05, 4.533203125) (-4.099408721923828e-05, 4.53515625) (-4.463060760498047e-05, 4.537109375) (-4.7982551574707026e-05, 4.5390625) (-5.103211212158203e-05, 4.541015625) (-5.376413345336914e-05, 4.54296875) (-5.616524887084961e-05, 4.544921875) (-5.822371673583984e-05, 4.546875) (-5.993047332763672e-05, 4.548828125) (-6.127915573120116e-05, 4.55078125) (-6.226606369018555e-05, 4.552734375) (-6.28907127380371e-05, 4.5546875) (-6.315509796142578e-05, 4.556640625) (-6.306332397460938e-05, 4.55859375) (-6.262282562255859e-05, 4.560546875) (-6.184451293945312e-05, 4.5625) (-6.0742229461669916e-05, 4.564453125) (-5.9332885742187495e-05, 4.56640625) (-5.7636039733886715e-05, 4.568359375) (-5.567337799072265e-05, 4.5703125) (-5.346920013427734e-05, 4.572265625) (-5.10507698059082e-05, 4.57421875) (-4.8448272705078125e-05, 4.576171875) (-4.569436645507812e-05, 4.578125) (-4.282439804077148e-05, 4.580078125) (-3.9876029968261714e-05, 4.58203125) (-3.6887268066406245e-05, 4.583984375) (-3.389682006835937e-05, 4.5859375) (-3.0943099975585934e-05, 4.587890625) (-2.806277847290039e-05, 4.58984375) (-2.5292194366455078e-05, 4.591796875) (-2.2667066574096677e-05, 4.59375) (-2.022123336791992e-05, 4.595703125) (-1.7987789154052732e-05, 4.59765625) (-1.5999836921691892e-05, 4.599609375) (-1.4288504600524902e-05, 4.6015625) (-1.2886640548706053e-05, 4.603515625) (-1.182815933227539e-05, 4.60546875) (-1.11400728225708e-05, 4.607421875) (-1.0845182418823242e-05, 4.609375) (-1.0956883430480957e-05, 4.611328125) (-1.1475961685180663e-05, 4.61328125) (-1.240573501586914e-05, 4.615234375) (-1.375122833251953e-05, 4.6171875) (-1.551812934875488e-05, 4.619140625) (-1.7720220565795896e-05, 4.62109375) (-2.0367103576660154e-05, 4.623046875) (-2.345857238769531e-05, 4.625) (-2.699943161010742e-05, 4.626953125) (-3.0995103836059567e-05, 4.62890625) (-3.543842315673828e-05, 4.630859375) (-4.031915283203125e-05, 4.6328125) (-4.5601318359375e-05, 4.634765625) (-5.121557998657226e-05, 4.63671875) (-5.7107826232910154e-05, 4.638671875) (-6.323244094848632e-05, 4.640625) (-6.95651397705078e-05, 4.642578125) (-7.612149810791016e-05, 4.64453125) (-8.288278198242187e-05, 4.646484375) (-8.979186248779296e-05, 4.6484375) (-9.677720642089844e-05, 4.650390625) (-0.00010373057556152343, 4.65234375) (-0.00011056732177734374, 4.654296875) (-0.00011726264953613281, 4.65625) (-0.00012374021911621094, 4.658203125) (-0.00012987557983398437, 4.66015625) (-0.00013564181518554687, 4.662109375) (-0.00014106671142578124, 4.6640625) (-0.00014633428955078125, 4.666015625) (-0.00015183343505859373, 4.66796875) (-0.00015775430297851562, 4.669921875) (-0.000164056640625, 4.671875) (-0.00017067933654785154, 4.673828125) (-0.00017748785400390624, 4.67578125) (-0.00018431207275390623, 4.677734375) (-0.00019103414916992186, 4.6796875) (-0.00019724464416503906, 4.681640625) (-0.00020224259948730468, 4.68359375) (-0.000205745849609375, 4.685546875) (-0.00020786843872070313, 4.6875) (-0.00020891026306152341, 4.689453125) (-0.00020935574340820312, 4.69140625) (-0.00020948519897460936, 4.693359375) (-0.00020935282897949217, 4.6953125) (-0.00020931881713867186, 4.697265625) (-0.00021001014709472657, 4.69921875) (-0.00021161984252929687, 4.701171875) (-0.00021395642089843748, 4.703125) (-0.0002166625518798828, 4.705078125) (-0.0002194101104736328, 4.70703125) (-0.00022242063903808593, 4.708984375) (-0.00022623710632324218, 4.7109375) (-0.00023103857421875, 4.712890625) (-0.00023675938415527342, 4.71484375) (-0.00024363566589355467, 4.716796875) (-0.00025200994873046873, 4.71875) (-0.00026188226318359374, 4.720703125) (-0.0002714247741699219, 4.72265625) (-0.00027672479248046873, 4.724609375) (-0.00027375729370117185, 4.7265625) (-0.00025997372436523434, 4.728515625) (-0.00023710263061523437, 4.73046875) (-0.00020871304321289061, 4.732421875) (-0.00017596092224121093, 4.734375) (-0.00013661143493652343, 4.736328125) (-8.18736343383789e-05, 4.73828125) (-2.6694068908691405e-06, 4.740234375) (0.00010537200164794921, 4.7421875) (0.0002414337158203125, 4.744140625) (0.00039413702392578125, 4.74609375) (0.00054787109375, 4.748046875) (0.0006834354248046874, 4.75) (0.000779436279296875, 4.751953125) (0.0008224439697265625, 4.75390625) (0.0008039130859374999, 4.755859375) (0.0007268045043945312, 4.7578125) (0.0006038324584960937, 4.759765625) (0.0004455190734863281, 4.76171875) (0.00026635205078125, 4.763671875) (7.947718811035155e-05, 4.765625) (-0.00010181008148193359, 4.767578125) (-0.00025529425048828125, 4.76953125) (-0.00036374462890625, 4.771484375) (-0.0004199671325683594, 4.7734375) (-0.0004274183654785156, 4.775390625) (-0.00040464373779296875, 4.77734375) (-0.0003715901184082031, 4.779296875) (-0.0003389398193359375, 4.78125) (-0.00031039044189453124, 4.783203125) (-0.0002820280456542969, 4.78515625) (-0.0002485096740722656, 4.787109375) (-0.00021126681518554685, 4.7890625) (-0.00017459889221191406, 4.791015625) (-0.00014361997985839844, 4.79296875) (-0.00012347142028808593, 4.794921875) (-0.00011507543182373047, 4.796875) (-0.00011669943237304687, 4.798828125) (-0.00012625968933105468, 4.80078125) (-0.00014075106811523437, 4.802734375) (-0.00015723350524902342, 4.8046875) (-0.00017364904785156248, 4.806640625) (-0.000187923828125, 4.80859375) (-0.00019826687622070312, 4.810546875) (-0.00020405816650390625, 4.8125) (-0.0002052534942626953, 4.814453125) (-0.000202203125, 4.81640625) (-0.0001959820098876953, 4.818359375) (-0.00018783613586425781, 4.8203125) (-0.00017890103149414063, 4.822265625) (-0.0001704870147705078, 4.82421875) (-0.00016357308959960936, 4.826171875) (-0.00015849920654296875, 4.828125) (-0.00015539198303222656, 4.830078125) (-0.00015412078857421875, 4.83203125) (-0.00015425958251953124, 4.833984375) (-0.00015542214965820312, 4.8359375) (-0.00015714198303222655, 4.837890625) (-0.0001587915802001953, 4.83984375) (-0.0001599932861328125, 4.841796875) (-0.0001605947723388672, 4.84375) (-0.00016051376342773437, 4.845703125) (-0.0001598231506347656, 4.84765625) (-0.0001586018829345703, 4.849609375) (-0.0001568498077392578, 4.8515625) (-0.00015463021850585938, 4.853515625) (-0.00015205087280273437, 4.85546875) (-0.0001491636047363281, 4.857421875) (-0.0001460185546875, 4.859375) (-0.00014264762878417968, 4.861328125) (-0.00013904147338867186, 4.86328125) (-0.00013524110412597656, 4.865234375) (-0.0001313189239501953, 4.8671875) (-0.0001273515625, 4.869140625) (-0.00012343508911132813, 4.87109375) (-0.00011963435363769531, 4.873046875) (-0.00011598097229003906, 4.875) (-0.0001125047607421875, 4.876953125) (-0.0001092240753173828, 4.87890625) (-0.00010614874267578124, 4.880859375) (-0.00010329147338867187, 4.8828125) (-0.0001006476058959961, 4.884765625) (-9.819610595703124e-05, 4.88671875) (-9.592623138427734e-05, 4.888671875) (-9.382846069335937e-05, 4.890625) (-9.189231872558593e-05, 4.892578125) (-9.011181640625e-05, 4.89453125) (-8.846883392333984e-05, 4.896484375) (-8.693526458740234e-05, 4.8984375) (-8.548226928710937e-05, 4.900390625) (-8.407908630371093e-05, 4.90234375) (-8.269881439208984e-05, 4.904296875) (-8.131989288330078e-05, 4.90625) (-7.992062377929687e-05, 4.908203125) (-7.847952270507812e-05, 4.91015625) (-7.697781372070312e-05, 4.912109375) (-7.539810180664062e-05, 4.9140625) (-7.372625732421874e-05, 4.916015625) (-7.19510269165039e-05, 4.91796875) (-7.00584487915039e-05, 4.919921875) (-6.8032958984375e-05, 4.921875) (-6.585971069335937e-05, 4.923828125) (-6.352421951293945e-05, 4.92578125) (-6.101424407958984e-05, 4.927734375) (-5.831995391845703e-05, 4.9296875) (-5.543217468261719e-05, 4.931640625) (-5.23428726196289e-05, 4.93359375) (-4.904671478271484e-05, 4.935546875) (-4.5540992736816405e-05, 4.9375) (-4.182525634765625e-05, 4.939453125) (-3.790151214599609e-05, 4.94140625) (-3.377342224121094e-05, 4.943359375) (-2.9446205139160154e-05, 4.9453125) (-2.4927322387695313e-05, 4.947265625) (-2.0226634979248045e-05, 4.94921875) (-1.535588550567627e-05, 4.951171875) (-1.0328595161437987e-05, 4.953125) (-5.160145759582519e-06, 4.955078125) (1.3240838050842285e-07, 4.95703125) (5.530241966247558e-06, 4.958984375) (1.1012458801269531e-05, 4.9609375) (1.6556753158569337e-05, 4.962890625) (2.2139932632446287e-05, 4.96484375) (2.773771858215332e-05, 4.966796875) (3.332509994506836e-05, 4.96875) (3.887655639648437e-05, 4.970703125) (4.436606979370117e-05, 4.97265625) (4.976770782470703e-05, 4.974609375) (5.5056064605712886e-05, 4.9765625) (6.0206188201904296e-05, 4.978515625) (6.519373321533203e-05, 4.98046875) (6.999510192871094e-05, 4.982421875) (7.458739471435546e-05, 4.984375) (7.894889068603516e-05, 4.986328125) (8.305925750732421e-05, 4.98828125) (8.689942932128906e-05, 4.990234375) (9.045184326171875e-05, 4.9921875) (9.370050811767577e-05, 4.994140625) (9.663107299804687e-05, 4.99609375) (9.923129272460938e-05, 4.998046875) (0.0001014911880493164, 5.0) (0.00010340284729003906, 5.001953125) (0.0001049605255126953, 5.00390625) (0.00010616054534912109, 5.005859375) (0.00010700126647949219, 5.0078125) (0.00010748316955566405, 5.009765625) (0.00010760897827148437, 5.01171875) (0.00010738328552246094, 5.013671875) (0.00010681268310546875, 5.015625) (0.00010590563201904296, 5.017578125) (0.00010467244720458984, 5.01953125) (0.00010312529754638671, 5.021484375) (0.00010127816772460938, 5.0234375) (9.91466064453125e-05, 5.025390625) (9.674755096435547e-05, 5.02734375) (9.409915924072265e-05, 5.029296875) (9.122065734863281e-05, 5.03125) (8.813214111328125e-05, 5.033203125) (8.48543930053711e-05, 5.03515625) (8.140873718261719e-05, 5.037109375) (7.78167724609375e-05, 5.0390625) (7.410026550292969e-05, 5.041015625) (7.028096771240234e-05, 5.04296875) (6.638054656982422e-05, 5.044921875) (6.242041397094726e-05, 5.046875) (5.842156219482422e-05, 5.048828125) (5.4404430389404294e-05, 5.05078125) (5.038878631591797e-05, 5.052734375) (4.6393615722656246e-05, 5.0546875) (4.243701171875e-05, 5.056640625) (3.853611755371094e-05, 5.05859375) (3.470702743530273e-05, 5.060546875) (3.096467971801758e-05, 5.0625) (2.7322872161865234e-05, 5.064453125) (2.3794204711914063e-05, 5.06640625) (2.0390045166015625e-05, 5.068359375) (1.7120534896850586e-05, 5.0703125) (1.3994534492492675e-05, 5.072265625) (1.1019601821899414e-05, 5.07421875) (8.201996803283692e-06, 5.076171875) (5.546685218811035e-06, 5.078125) (3.0573558807373047e-06, 5.080078125) (7.364550232887268e-07, 5.08203125) (-1.414771795272827e-06, 5.083984375) (-3.3962185382843014e-06, 5.0859375) (-5.2088308334350585e-06, 5.087890625) (-6.854520797729492e-06, 5.08984375) (-8.336072921752928e-06, 5.091796875) (-9.657055854797363e-06, 5.09375) (-1.0821748733520507e-05, 5.095703125) (-1.1835062980651855e-05, 5.09765625) (-1.2702459335327147e-05, 5.099609375) (-1.3429864883422851e-05, 5.1015625) (-1.4023575782775878e-05, 5.103515625) (-1.4490173339843749e-05, 5.10546875) (-1.483642578125e-05, 5.107421875) (-1.5069192886352538e-05, 5.109375) (-1.5195341110229492e-05, 5.111328125) (-1.5221656799316405e-05, 5.11328125) (-1.5154764175415039e-05, 5.115234375) (-1.5001081466674804e-05, 5.1171875) (-1.4766779899597167e-05, 5.119140625) (-1.4457773208618164e-05, 5.12109375) (-1.407969284057617e-05, 5.123046875) (-1.3637885093688963e-05, 5.125) (-1.3137379646301268e-05, 5.126953125) (-1.258286952972412e-05, 5.12890625) (-1.1978693008422852e-05, 5.130859375) (-1.1328813552856444e-05, 5.1328125) (-1.063679790496826e-05, 5.134765625) (-9.90580368041992e-06, 5.13671875) (-9.138574600219727e-06, 5.138671875) (-8.33745002746582e-06, 5.140625) (-7.504406929016113e-06, 5.142578125) (-6.641102313995361e-06, 5.14453125) (-5.748948097229003e-06, 5.146484375) (-4.829165458679199e-06, 5.1484375) (-3.882833003997802e-06, 5.150390625) (-2.910942316055298e-06, 5.15234375) (-1.9144232273101804e-06, 5.154296875) (-8.941684961318969e-07, 5.15625) (1.4892962574958801e-07, 5.158203125) (1.2139720916748047e-06, 5.16015625) (2.300042629241943e-06, 5.162109375) (3.406167984008789e-06, 5.1640625) (4.531282901763916e-06, 5.166015625) (5.6741790771484375e-06, 5.16796875) (6.833413124084472e-06, 5.169921875) (8.007266998291015e-06, 5.171875) (9.19371509552002e-06, 5.173828125) (1.0390380859375e-05, 5.17578125) (1.1594535827636719e-05, 5.177734375) (1.2803092002868652e-05, 5.1796875) (1.4012613296508788e-05, 5.181640625) (1.5219339370727539e-05, 5.18359375) (1.6419229507446288e-05, 5.185546875) (1.7607965469360352e-05, 5.1875) (1.8780956268310546e-05, 5.189453125) (1.9933326721191406e-05, 5.19140625) (2.1059869766235352e-05, 5.193359375) (2.215506362915039e-05, 5.1953125) (2.321308135986328e-05, 5.197265625) (2.4227794647216796e-05, 5.19921875) (2.5192834854125974e-05, 5.201171875) (2.6101619720458984e-05, 5.203125) (2.6947431564331053e-05, 5.205078125) (2.772349166870117e-05, 5.20703125) (2.8423112869262695e-05, 5.208984375) (2.9039779663085935e-05, 5.2109375) (2.956721496582031e-05, 5.212890625) (2.999945831298828e-05, 5.21484375) (3.0330820083618163e-05, 5.216796875) (3.0555913925170895e-05, 5.21875) (3.0669757843017575e-05, 5.220703125) (3.0667768478393553e-05, 5.22265625) (3.054578399658203e-05, 5.224609375) (3.030009078979492e-05, 5.2265625) (2.9927413940429686e-05, 5.228515625) (2.9424999237060545e-05, 5.23046875) (2.879079437255859e-05, 5.232421875) (2.802349472045898e-05, 5.234375) (2.7122583389282225e-05, 5.236328125) (2.608835983276367e-05, 5.23828125) (2.4921852111816404e-05, 5.240234375) (2.362487030029297e-05, 5.2421875) (2.22000617980957e-05, 5.244140625) (2.0650861740112303e-05, 5.24609375) (1.8981515884399415e-05, 5.248046875) (1.7197059631347655e-05, 5.25) (1.5303281784057617e-05, 5.251953125) (1.3306815147399901e-05, 5.25390625) (1.1215301513671874e-05, 5.255859375) (9.037355422973632e-06, 5.2578125) (6.782612800598144e-06, 5.259765625) (4.461742401123047e-06, 5.26171875) (2.086169242858887e-06, 5.263671875) (-3.318938016891479e-07, 5.265625) (-2.779423713684082e-06, 5.267578125) (-5.242781639099121e-06, 5.26953125) (-7.707889556884765e-06, 5.271484375) (-1.0160354614257811e-05, 5.2734375) (-1.258572769165039e-05, 5.275390625) (-1.4969590187072753e-05, 5.27734375) (-1.7297271728515625e-05, 5.279296875) (-1.955398941040039e-05, 5.28125) (-2.1725067138671873e-05, 5.283203125) (-2.3795963287353514e-05, 5.28515625) (-2.575240898132324e-05, 5.287109375) (-2.7580400466918944e-05, 5.2890625) (-2.926599884033203e-05, 5.291015625) (-3.0795475006103515e-05, 5.29296875) (-3.215579986572265e-05, 5.294921875) (-3.333474349975586e-05, 5.296875) (-3.4320919036865236e-05, 5.298828125) (-3.510386657714844e-05, 5.30078125) (-3.5673698425292964e-05, 5.302734375) (-3.602140045166015e-05, 5.3046875) (-3.613917541503906e-05, 5.306640625) (-3.60202522277832e-05, 5.30859375) (-3.5659168243408204e-05, 5.310546875) (-3.505177688598633e-05, 5.3125) (-3.419496154785156e-05, 5.314453125) (-3.308703994750976e-05, 5.31640625) (-3.1728347778320314e-05, 5.318359375) (-3.0120819091796874e-05, 5.3203125) (-2.826826477050781e-05, 5.322265625) (-2.6176532745361326e-05, 5.32421875) (-2.3852584838867186e-05, 5.326171875) (-2.1305049896240233e-05, 5.328125) (-1.8544887542724608e-05, 5.330078125) (-1.5584818840026856e-05, 5.33203125) (-1.2439296722412109e-05, 5.333984375) (-9.12446117401123e-06, 5.3359375) (-5.657059669494629e-06, 5.337890625) (-2.054892063140869e-06, 5.33984375) (1.6621255874633788e-06, 5.341796875) (5.473132133483887e-06, 5.34375) (9.356634140014649e-06, 5.345703125) (1.3290695190429687e-05, 5.34765625) (1.7253646850585938e-05, 5.349609375) (2.1222211837768553e-05, 5.3515625) (2.5169797897338867e-05, 5.353515625) (2.906751251220703e-05, 5.35546875) (3.288504409790039e-05, 5.357421875) (3.659112548828125e-05, 5.359375) (4.01553955078125e-05, 5.361328125) (4.3547271728515626e-05, 5.36328125) (4.673565292358398e-05, 5.365234375) (4.96920051574707e-05, 5.3671875) (5.239050674438476e-05, 5.369140625) (5.480941009521484e-05, 5.37109375) (5.693096923828125e-05, 5.373046875) (5.873706817626953e-05, 5.375) (6.0208801269531245e-05, 5.376953125) (6.132709503173827e-05, 5.37890625) (6.207241439819336e-05, 5.380859375) (6.242902374267578e-05, 5.3828125) (6.238861083984375e-05, 5.384765625) (6.194683837890625e-05, 5.38671875) (6.110478973388671e-05, 5.388671875) (5.987033081054687e-05, 5.390625) (5.8253715515136716e-05, 5.392578125) (5.6271060943603514e-05, 5.39453125) (5.393880462646484e-05, 5.396484375) (5.126669311523437e-05, 5.3984375) (4.825817489624023e-05, 5.400390625) (4.490560913085937e-05, 5.40234375) (4.1199764251708986e-05, 5.404296875) (3.7140113830566406e-05, 5.40625) (3.272891616821289e-05, 5.408203125) (2.797652435302734e-05, 5.41015625) (2.2909950256347656e-05, 5.412109375) (1.7556158065795898e-05, 5.4140625) (1.194597339630127e-05, 5.416015625) (6.118321418762207e-06, 5.41796875) (8.760547637939453e-08, 5.419921875) (-6.130760192871093e-06, 5.421875) (-1.249759292602539e-05, 5.423828125) (-1.8978656768798827e-05, 5.42578125) (-2.5506820678710935e-05, 5.427734375) (-3.198745536804199e-05, 5.4296875) (-3.836159896850586e-05, 5.431640625) (-4.452823638916016e-05, 5.43359375) (-5.034302139282226e-05, 5.435546875) (-5.5763088226318356e-05, 5.4375) (-6.0790679931640625e-05, 5.439453125) (-6.548245239257812e-05, 5.44140625) (-7.008146667480468e-05, 5.443359375) (-7.478813171386718e-05, 5.4453125) (-7.960042572021484e-05, 5.447265625) (-8.456198120117187e-05, 5.44921875) (-8.966447448730469e-05, 5.451171875) (-9.463969421386718e-05, 5.453125) (-9.92653350830078e-05, 5.455078125) (-0.0001031932373046875, 5.45703125) (-0.00010575242614746093, 5.458984375) (-0.00010656619262695312, 5.4609375) (-0.00010572317504882812, 5.462890625) (-0.00010343068695068358, 5.46484375) (-0.0001001456069946289, 5.466796875) (-9.658893585205078e-05, 5.46875) (-9.323268127441406e-05, 5.470703125) (-9.066275024414062e-05, 5.47265625) (-8.980662536621094e-05, 5.474609375) (-9.114667510986327e-05, 5.4765625) (-9.463117218017578e-05, 5.478515625) (-9.991717529296875e-05, 5.48046875) (-0.0001064189453125, 5.482421875) (-0.0001136952896118164, 5.484375) (-0.00012177643585205077, 5.486328125) (-0.00013068795776367186, 5.48828125) (-0.00014006005859375, 5.490234375) (-0.00014973843383789062, 5.4921875) (-0.00016000596618652343, 5.494140625) (-0.00017138894653320313, 5.49609375) (-0.00018416624450683593, 5.498046875) (-0.0001964383850097656, 5.5) (-0.0002045472412109375, 5.501953125) (-0.00020525941467285157, 5.50390625) (-0.00019650885009765625, 5.505859375) (-0.00018012030029296874, 5.5078125) (-0.00015954855346679686, 5.509765625) (-0.0001338741455078125, 5.51171875) (-9.934689331054687e-05, 5.513671875) (-4.905909347534179e-05, 5.515625) (2.527536392211914e-05, 5.517578125) (0.0001245308074951172, 5.51953125) (0.0002442927856445312, 5.521484375) (0.0003780206298828125, 5.5234375) (0.0005139478759765625, 5.525390625) (0.0006388558349609374, 5.52734375) (0.0007396102294921874, 5.529296875) (0.0008003797607421875, 5.53125) (0.0008089402465820312, 5.533203125) (0.0007634625244140624, 5.53515625) (0.000668083251953125, 5.537109375) (0.0005325233154296875, 5.5390625) (0.00037244647216796875, 5.541015625) (0.00020110971069335938, 5.54296875) (3.363900756835937e-05, 5.544921875) (-0.00010965526580810546, 5.546875) (-0.00021428048706054686, 5.548828125) (-0.00027366427612304686, 5.55078125) (-0.00029121319580078126, 5.552734375) (-0.00028433419799804685, 5.5546875) (-0.0002718845825195312, 5.556640625) (-0.0002636849365234375, 5.55859375) (-0.00026207803344726563, 5.560546875) (-0.0002615593872070312, 5.5625) (-0.00025452938842773434, 5.564453125) (-0.00024017330932617187, 5.56640625) (-0.00022183697509765623, 5.568359375) (-0.0002033900909423828, 5.5703125) (-0.000188539306640625, 5.572265625) (-0.00017825335693359375, 5.57421875) (-0.0001713446807861328, 5.576171875) (-0.0001669675750732422, 5.578125) (-0.00016486260986328124, 5.580078125) (-0.0001645355987548828, 5.58203125) (-0.00016524893188476562, 5.583984375) (-0.0001666021728515625, 5.5859375) (-0.00016808570861816407, 5.587890625) (-0.00016903001403808593, 5.58984375) (-0.00016938497924804687, 5.591796875) (-0.00016900224304199218, 5.59375) (-0.00016726278686523437, 5.595703125) (-0.00016406704711914062, 5.59765625) (-0.0001596947021484375, 5.599609375) (-0.00015430685424804686, 5.6015625) (-0.00014845263671875, 5.603515625) (-0.00014289422607421874, 5.60546875) (-0.00013787591552734375, 5.607421875) (-0.00013359132385253907, 5.609375) (-0.00013037577819824219, 5.611328125) (-0.0001282220458984375, 5.61328125) (-0.00012703382873535156, 5.615234375) (-0.00012672247314453124, 5.6171875) (-0.0001268663330078125, 5.619140625) (-0.00012694319915771484, 5.62109375) (-0.0001266966552734375, 5.623046875) (-0.00012595623016357422, 5.625) (-0.0001246194381713867, 5.626953125) (-0.00012274132537841797, 5.62890625) (-0.00012032333374023438, 5.630859375) (-0.00011735165405273437, 5.6328125) (-0.00011393017578124999, 5.634765625) (-0.00011018036651611328, 5.63671875) (-0.0001061916275024414, 5.638671875) (-0.00010204458618164062, 5.640625) (-9.777088928222656e-05, 5.642578125) (-9.337553405761719e-05, 5.64453125) (-8.890816497802734e-05, 5.646484375) (-8.444096374511718e-05, 5.6484375) (-8.00563735961914e-05, 5.650390625) (-7.584677124023437e-05, 5.65234375) (-7.186896514892578e-05, 5.654296875) (-6.81530532836914e-05, 5.65625) (-6.472257995605468e-05, 5.658203125) (-6.15877456665039e-05, 5.66015625) (-5.875556945800781e-05, 5.662109375) (-5.622601318359375e-05, 5.6640625) (-5.3978565216064453e-05, 5.666015625) (-5.198396301269531e-05, 5.66796875) (-5.021902465820312e-05, 5.669921875) (-4.866485595703125e-05, 5.671875) (-4.730880355834961e-05, 5.673828125) (-4.613936233520507e-05, 5.67578125) (-4.513299942016601e-05, 5.677734375) (-4.4260154724121095e-05, 5.6796875) (-4.348951721191406e-05, 5.681640625) (-4.278689575195312e-05, 5.68359375) (-4.212319183349609e-05, 5.685546875) (-4.147278594970703e-05, 5.6875) (-4.080889129638672e-05, 5.689453125) (-4.0106533050537106e-05, 5.69140625) (-3.934321594238281e-05, 5.693359375) (-3.849772262573242e-05, 5.6953125) (-3.7552249908447264e-05, 5.697265625) (-3.649141693115234e-05, 5.69921875) (-3.529743576049804e-05, 5.701171875) (-3.3951381683349607e-05, 5.703125) (-3.243489074707031e-05, 5.705078125) (-3.072996139526367e-05, 5.70703125) (-2.882096481323242e-05, 5.708984375) (-2.6694707870483396e-05, 5.7109375) (-2.433907699584961e-05, 5.712890625) (-2.1743568420410155e-05, 5.71484375) (-1.8900602340698243e-05, 5.716796875) (-1.5805158615112305e-05, 5.71875) (-1.24547119140625e-05, 5.720703125) (-8.849406242370606e-06, 5.72265625) (-4.991165161132812e-06, 5.724609375) (-8.839896917343139e-07, 5.7265625) (3.465346336364746e-06, 5.728515625) (8.04764175415039e-06, 5.73046875) (1.285157299041748e-05, 5.732421875) (1.786349678039551e-05, 5.734375) (2.3067672729492187e-05, 5.736328125) (2.844638442993164e-05, 5.73828125) (3.39794692993164e-05, 5.740234375) (3.964482879638672e-05, 5.7421875) (4.5419078826904294e-05, 5.744140625) (5.127724456787109e-05, 5.74609375) (5.7192993164062496e-05, 5.748046875) (6.313893127441406e-05, 5.75) (6.908650207519531e-05, 5.751953125) (7.500642395019531e-05, 5.75390625) (8.086935424804687e-05, 5.755859375) (8.664579010009765e-05, 5.7578125) (9.230632781982422e-05, 5.759765625) (9.782199096679687e-05, 5.76171875) (0.00010316416931152344, 5.763671875) (0.00010830494689941406, 5.765625) (0.00011321749877929687, 5.767578125) (0.00011787615966796874, 5.76953125) (0.00012225640869140624, 5.771484375) (0.0001263351593017578, 5.7734375) (0.00013009069824218748, 5.775390625) (0.00013350286865234374, 5.77734375) (0.00013655364990234375, 5.779296875) (0.00013922711181640625, 5.78125) (0.0001415094299316406, 5.783203125) (0.0001433889923095703, 5.78515625) (0.00014485638427734373, 5.787109375) (0.00014590443420410155, 5.7890625) (0.00014652842712402342, 5.791015625) (0.00014672615051269532, 5.79296875) (0.00014649761962890625, 5.794921875) (0.00014584526062011717, 5.796875) (0.00014477369689941405, 5.798828125) (0.00014328985595703125, 5.80078125) (0.00014140301513671874, 5.802734375) (0.000139124755859375, 5.8046875) (0.00013646865844726562, 5.806640625) (0.00013345034790039062, 5.80859375) (0.0001300872344970703, 5.810546875) (0.00012639840698242186, 5.8125) (0.00012240456390380858, 5.814453125) (0.00011812770080566406, 5.81640625) (0.0001135909423828125, 5.818359375) (0.00010881827545166015, 5.8203125) (0.00010383441925048827, 5.822265625) (9.866455078125e-05, 5.82421875) (9.333419036865234e-05, 5.826171875) (8.786909484863281e-05, 5.828125) (8.229497528076172e-05, 5.830078125) (7.663737487792969e-05, 5.83203125) (7.092152404785156e-05, 5.833984375) (6.51721954345703e-05, 5.8359375) (5.941364288330078e-05, 5.837890625) (5.3669445037841795e-05, 5.83984375) (4.796233749389648e-05, 5.841796875) (4.2314117431640626e-05, 5.84375) (3.6745532989501954e-05, 5.845703125) (3.127619934082031e-05, 5.84765625) (2.5924564361572264e-05, 5.849609375) (2.0707809448242185e-05, 5.8515625) (1.564179039001465e-05, 5.853515625) (1.074094772338867e-05, 5.85546875) (6.01827049255371e-06, 5.857421875) (1.4852521419525145e-06, 5.859375) (-2.848123550415039e-06, 5.861328125) (-6.973402023315429e-06, 5.86328125) (-1.0883703231811524e-05, 5.865234375) (-1.4573715209960936e-05, 5.8671875) (-1.8039676666259766e-05, 5.869140625) (-2.127931213378906e-05, 5.87109375) (-2.4291772842407226e-05, 5.873046875) (-2.7077526092529297e-05, 5.875) (-2.9638301849365232e-05, 5.876953125) (-3.197698211669922e-05, 5.87890625) (-3.409748840332031e-05, 5.880859375) (-3.6004657745361326e-05, 5.8828125) (-3.770411682128906e-05, 5.884765625) (-3.92021484375e-05, 5.88671875) (-4.0505592346191404e-05, 5.888671875) (-4.162177276611328e-05, 5.890625) (-4.255836486816406e-05, 5.892578125) (-4.3323307037353514e-05, 5.89453125) (-4.3924682617187495e-05, 5.896484375) (-4.4370635986328126e-05, 5.8984375) (-4.466933059692383e-05, 5.900390625) (-4.4828884124755854e-05, 5.90234375) (-4.485730361938476e-05, 5.904296875) (-4.476244735717773e-05, 5.90625) (-4.455199813842773e-05, 5.908203125) (-4.423339462280273e-05, 5.91015625) (-4.381386566162109e-05, 5.912109375) (-4.330040740966797e-05, 5.9140625) (-4.269975280761719e-05, 5.916015625) (-4.201835250854492e-05, 5.91796875) (-4.126233673095703e-05, 5.919921875) (-4.04375e-05, 5.921875) (-3.954926681518554e-05, 5.923828125) (-3.860272598266601e-05, 5.92578125) (-3.760257720947265e-05, 5.927734375) (-3.655314254760742e-05, 5.9296875) (-3.545838165283203e-05, 5.931640625) (-3.432191848754883e-05, 5.93359375) (-3.314705657958984e-05, 5.935546875) (-3.1936864852905275e-05, 5.9375) (-3.069418525695801e-05, 5.939453125) (-2.9421695709228513e-05, 5.94140625) (-2.812196159362793e-05, 5.943359375) (-2.6797508239746093e-05, 5.9453125) (-2.5450862884521484e-05, 5.947265625) (-2.4084646224975585e-05, 5.94921875) (-2.2701601028442383e-05, 5.951171875) (-2.130463981628418e-05, 5.953125) (-1.9896915435791015e-05, 5.955078125) (-1.8481864929199217e-05, 5.95703125) (-1.7063247680664063e-05, 5.958984375) (-1.5645195960998534e-05, 5.9609375) (-1.4232192993164061e-05, 5.962890625) (-1.2829080581665039e-05, 5.96484375) (-1.1441082954406737e-05, 5.966796875) (-1.0073769569396972e-05, 5.96875) (-8.733034133911132e-06, 5.970703125) (-7.425083637237549e-06, 5.97265625) (-6.156343936920166e-06, 5.974609375) (-4.933416366577148e-06, 5.9765625) (-3.763097286224365e-06, 5.978515625) (-2.652313709259033e-06, 5.98046875) (-1.6080549955368042e-06, 5.982421875) (-6.373624205589294e-07, 5.984375) (2.527530193328857e-07, 5.986328125) (1.0553817749023436e-06, 5.98828125) (1.7636678218841552e-06, 5.990234375) (2.370851516723633e-06, 5.9921875) (2.8703813552856444e-06, 5.994140625) (3.255939722061157e-06, 5.99609375) (3.521489381790161e-06, 5.998046875) (3.6613616943359375e-06, 6.0) (3.6702239513397214e-06, 6.001953125) (3.543110847473144e-06, 6.00390625) (3.2756123542785643e-06, 6.005859375) (2.863950252532959e-06, 6.0078125) (2.3050549030303955e-06, 6.009765625) (1.596659779548645e-06, 6.01171875) (7.372457981109619e-07, 6.013671875) (-2.7388662099838254e-07, 6.015625) (-1.436480402946472e-06, 6.017578125) (-2.749296188354492e-06, 6.01953125) (-4.210018634796142e-06, 6.021484375) (-5.8152456283569335e-06, 6.0234375) (-7.560650825500488e-06, 6.025390625) (-9.440916061401366e-06, 6.02734375) (-1.1449545860290527e-05, 6.029296875) (-1.3578958511352538e-05, 6.03125) (-1.5820440292358397e-05, 6.033203125) (-1.8164098739624022e-05, 6.03515625) (-2.0599227905273437e-05, 6.037109375) (-2.311429786682129e-05, 6.0390625) (-2.5696735382080076e-05, 6.041015625) (-2.8333145141601562e-05, 6.04296875) (-3.100942230224609e-05, 6.044921875) (-3.3710826873779294e-05, 6.046875) (-3.642227554321289e-05, 6.048828125) (-3.912853622436523e-05, 6.05078125) (-4.181390762329101e-05, 6.052734375) (-4.446229171752929e-05, 6.0546875) (-4.705744171142578e-05, 6.056640625) (-4.9582996368408204e-05, 6.05859375) (-5.202264785766601e-05, 6.060546875) (-5.4360260009765625e-05, 6.0625) (-5.657965087890625e-05, 6.064453125) (-5.8664550781249994e-05, 6.06640625) (-6.059907531738281e-05, 6.068359375) (-6.236804962158203e-05, 6.0703125) (-6.395724487304687e-05, 6.072265625) (-6.535345458984375e-05, 6.07421875) (-6.654423522949218e-05, 6.076171875) (-6.75180435180664e-05, 6.078125) (-6.82645034790039e-05, 6.080078125) (-6.877458953857421e-05, 6.08203125) (-6.904093933105469e-05, 6.083984375) (-6.90577163696289e-05, 6.0859375) (-6.882015228271483e-05, 6.087890625) (-6.832477569580078e-05, 6.08984375) (-6.757008361816406e-05, 6.091796875) (-6.655637359619141e-05, 6.09375) (-6.528601074218749e-05, 6.095703125) (-6.376371002197266e-05, 6.09765625) (-6.199551391601562e-05, 6.099609375) (-5.9989009857177735e-05, 6.1015625) (-5.775420379638672e-05, 6.103515625) (-5.530308532714843e-05, 6.10546875) (-5.2649330139160154e-05, 6.107421875) (-4.980850219726562e-05, 6.109375) (-4.679718017578125e-05, 6.111328125) (-4.3632694244384764e-05, 6.11328125) (-4.0334083557128905e-05, 6.115234375) (-3.692224502563476e-05, 6.1171875) (-3.341908264160156e-05, 6.119140625) (-2.9847440719604492e-05, 6.12109375) (-2.623138046264648e-05, 6.123046875) (-2.2595951080322265e-05, 6.125) (-1.8968172073364257e-05, 6.126953125) (-1.5377598762512206e-05, 6.12890625) (-1.1854410171508788e-05, 6.130859375) (-8.428464889526366e-06, 6.1328125) (-5.12968635559082e-06, 6.134765625) (-1.987795114517212e-06, 6.13671875) (9.678162336349486e-07, 6.138671875) (3.707977771759033e-06, 6.140625) (6.2064208984375e-06, 6.142578125) (8.440823554992675e-06, 6.14453125) (1.0390343666076659e-05, 6.146484375) (1.2035530090332031e-05, 6.1484375) (1.3356690406799316e-05, 6.150390625) (1.4333410263061523e-05, 6.15234375) (1.4949075698852538e-05, 6.154296875) (1.5190751075744628e-05, 6.15625) (1.5047497749328613e-05, 6.158203125) (1.4511847496032715e-05, 6.16015625) (1.3577692031860352e-05, 6.162109375) (1.2240018844604491e-05, 6.1640625) (1.0503176689147948e-05, 6.166015625) (8.379899024963379e-06, 6.16796875) (5.881838798522949e-06, 6.169921875) (3.021883964538574e-06, 6.171875) (-1.935511827468872e-07, 6.173828125) (-3.768794536590576e-06, 6.17578125) (-7.699310302734375e-06, 6.177734375) (-1.1971830368041992e-05, 6.1796875) (-1.6572040557861326e-05, 6.181640625) (-2.1477550506591797e-05, 6.18359375) (-2.6660926818847653e-05, 6.185546875) (-3.2093063354492184e-05, 6.1875) (-3.772565460205078e-05, 6.189453125) (-4.349023818969727e-05, 6.19140625) (-4.931951904296875e-05, 6.193359375) (-5.514485931396484e-05, 6.1953125) (-6.090877914428711e-05, 6.197265625) (-6.657099151611328e-05, 6.19921875) (-7.207600402832031e-05, 6.201171875) (-7.735919952392577e-05, 6.203125) (-8.234607696533203e-05, 6.205078125) (-8.694544219970703e-05, 6.20703125) (-9.109033966064452e-05, 6.208984375) (-9.473343658447265e-05, 6.2109375) (-9.782266998291015e-05, 6.212890625) (-0.00010032319641113281, 6.21484375) (-0.00010222848510742187, 6.216796875) (-0.00010355394744873046, 6.21875) (-0.00010436393737792969, 6.220703125) (-0.00010476261901855469, 6.22265625) (-0.00010484017181396484, 6.224609375) (-0.000104698486328125, 6.2265625) (-0.00010444876098632812, 6.228515625) (-0.00010419791412353515, 6.23046875) (-0.00010408644866943359, 6.232421875) (-0.00010422937011718749, 6.234375) (-0.0001047554931640625, 6.236328125) (-0.00010585833740234375, 6.23828125) (-0.00010765785217285156, 6.240234375) (-0.00011018776702880859, 6.2421875) (-0.00011336073303222655, 6.244140625) (-0.00011684525299072265, 6.24609375) (-0.00012017664337158203, 6.248046875) (-0.0001229593505859375, 6.25) (-0.00012474275970458985, 6.251953125) (-0.0001249424591064453, 6.25390625) (-0.00012311370849609374, 6.255859375) (-0.00011899763488769531, 6.2578125) (-0.00011281233215332031, 6.259765625) (-0.00010549285125732422, 6.26171875) (-9.830801391601562e-05, 6.263671875) (-9.235347747802733e-05, 6.265625) (-8.835116577148437e-05, 6.267578125) (-8.71605987548828e-05, 6.26953125) (-8.970000457763672e-05, 6.271484375) (-9.614140319824218e-05, 6.2734375) (-0.00010563864135742188, 6.275390625) (-0.00011511264038085938, 6.27734375) (-0.00011939449310302734, 6.279296875) (-0.00011517943572998046, 6.28125) (-0.00010075407409667968, 6.283203125) (-7.588206481933594e-05, 6.28515625) (-4.25126838684082e-05, 6.287109375) (1.6472330093383787e-06, 6.2890625) (6.0306854248046874e-05, 6.291015625) (0.00013604396057128907, 6.29296875) (0.00023282244873046873, 6.294921875) (0.00034866317749023435, 6.296875) (0.00047907211303710933, 6.298828125) (0.0006186632080078125, 6.30078125) (0.0007540255126953125, 6.302734375) (0.0008689894409179687, 6.3046875) (0.0009449219970703124, 6.306640625) (0.0009646011962890624, 6.30859375) (0.0009236209716796874, 6.310546875) (0.00082897802734375, 6.3125) (0.0006957907714843749, 6.314453125) (0.0005397937622070312, 6.31640625) (0.00037124072265625, 6.318359375) (0.0001984581604003906, 6.3203125) (3.0765129089355465e-05, 6.322265625) (-0.00011682569885253905, 6.32421875) (-0.0002282350616455078, 6.326171875) (-0.0002955998840332031, 6.328125) (-0.0003201890869140625, 6.330078125) (-0.000311966552734375, 6.33203125) (-0.0002838302001953125, 6.333984375) (-0.0002449003448486328, 6.3359375) (-0.0002026046142578125, 6.337890625) (-0.00016521871948242187, 6.33984375) (-0.00013961550903320312, 6.341796875) (-0.0001301693115234375, 6.34375) (-0.00013573869323730469, 6.345703125) (-0.00014823515319824218, 6.34765625) 