(2.3052740097045896e-05, 0.0) (1.9612958908081053e-05, 0.001953125) (1.6131813049316405e-05, 0.00390625) (1.2629873275756835e-05, 0.005859375) (9.139768600463866e-06, 0.0078125) (5.675448417663574e-06, 0.009765625) (2.245796203613281e-06, 0.01171875) (-1.1094118356704712e-06, 0.013671875) (-4.35928726196289e-06, 0.015625) (-7.489027976989746e-06, 0.017578125) (-1.0478468894958495e-05, 0.01953125) (-1.3292560577392578e-05, 0.021484375) (-1.5880051612854002e-05, 0.0234375) (-1.8193889617919922e-05, 0.025390625) (-2.0209144592285156e-05, 0.02734375) (-2.1925109863281247e-05, 0.029296875) (-2.3348140716552733e-05, 0.03125) (-2.44847469329834e-05, 0.033203125) (-2.5335519790649413e-05, 0.03515625) (-2.591030502319336e-05, 0.037109375) (-2.6267108917236325e-05, 0.0390625) (-2.6492971420288085e-05, 0.041015625) (-2.666086196899414e-05, 0.04296875) (-2.682481002807617e-05, 0.044921875) (-2.702808380126953e-05, 0.046875) (-2.728709030151367e-05, 0.048828125) (-2.767727470397949e-05, 0.05078125) (-2.837622833251953e-05, 0.052734375) (-2.9456737518310546e-05, 0.0546875) (-3.0865415573120116e-05, 0.056640625) (-3.246499252319336e-05, 0.05859375) (-3.3952518463134766e-05, 0.060546875) (-3.506211853027344e-05, 0.0625) (-3.565172576904297e-05, 0.064453125) (-3.5377712249755855e-05, 0.06640625) (-3.374812316894531e-05, 0.068359375) (-3.0674160003662105e-05, 0.0703125) (-2.636459159851074e-05, 0.072265625) (-2.128913116455078e-05, 0.07421875) (-1.637447738647461e-05, 0.076171875) (-1.2436010360717773e-05, 0.078125) (-1.0181024551391601e-05, 0.080078125) (-1.0770922660827637e-05, 0.08203125) (-1.5323683738708496e-05, 0.083984375) (-2.2940481185913086e-05, 0.0859375) (-3.1282104492187495e-05, 0.087890625) (-3.8294586181640624e-05, 0.08984375) (-4.2034545898437495e-05, 0.091796875) (-4.387804412841797e-05, 0.09375) (-4.700626754760742e-05, 0.095703125) (-5.024827194213867e-05, 0.09765625) (-4.928813552856445e-05, 0.099609375) (-3.668951034545898e-05, 0.1015625) (-3.757287502288818e-06, 0.103515625) (5.253092575073242e-05, 0.10546875) (0.0001300854797363281, 0.107421875) (0.00022229806518554685, 0.109375) (0.00031821078491210935, 0.111328125) (0.0004053739013671875, 0.11328125) (0.0004699418029785156, 0.115234375) (0.0005018821411132813, 0.1171875) (0.0004977318115234375, 0.119140625) (0.00046084722900390624, 0.12109375) (0.0004026009826660156, 0.123046875) (0.00033356198120117187, 0.125) (0.0002600157470703125, 0.126953125) (0.00018471971130371094, 0.12890625) (0.00010558555603027343, 0.130859375) (2.2286241531372068e-05, 0.1328125) (-6.145357513427734e-05, 0.134765625) (-0.00014022967529296875, 0.13671875) (-0.00020739300537109373, 0.138671875) (-0.00025803866577148437, 0.140625) (-0.0002905273132324219, 0.142578125) (-0.00030485113525390625, 0.14453125) (-0.00030195587158203123, 0.146484375) (-0.000283765625, 0.1484375) (-0.000252908935546875, 0.150390625) (-0.00021286930847167968, 0.15234375) (-0.000167997314453125, 0.154296875) (-0.0001227222671508789, 0.15625) (-8.06339874267578e-05, 0.158203125) (-4.476469039916992e-05, 0.16015625) (-1.7471900939941404e-05, 0.162109375) (1.9697934389114378e-07, 0.1640625) (8.161891937255859e-06, 0.166015625) (7.27912950515747e-06, 0.16796875) (-4.768457412719726e-07, 0.169921875) (-1.2711471557617187e-05, 0.171875) (-2.71429328918457e-05, 0.173828125) (-4.1346118927001954e-05, 0.17578125) (-5.332054138183594e-05, 0.177734375) (-6.198760223388672e-05, 0.1796875) (-6.679766845703124e-05, 0.181640625) (-6.780960845947265e-05, 0.18359375) (-6.574790954589843e-05, 0.185546875) (-6.152090072631835e-05, 0.1875) (-5.612441253662109e-05, 0.189453125) (-5.0766571044921874e-05, 0.19140625) (-4.633511352539062e-05, 0.193359375) (-4.322005462646484e-05, 0.1953125) (-4.1608791351318356e-05, 0.197265625) (-4.140159225463867e-05, 0.19921875) (-4.2268581390380855e-05, 0.201171875) (-4.3898586273193355e-05, 0.203125) (-4.5902824401855465e-05, 0.205078125) (-4.778901672363281e-05, 0.20703125) (-4.9264404296875e-05, 0.208984375) (-5.021540069580078e-05, 0.2109375) (-5.05697021484375e-05, 0.212890625) (-5.03520622253418e-05, 0.21484375) (-4.9623168945312495e-05, 0.216796875) (-4.841769409179687e-05, 0.21875) (-4.6839775085449216e-05, 0.220703125) (-4.5049205780029296e-05, 0.22265625) (-4.313600540161133e-05, 0.224609375) (-4.1158493041992183e-05, 0.2265625) (-3.916741180419922e-05, 0.228515625) (-3.718462753295898e-05, 0.23046875) (-3.525557708740234e-05, 0.232421875) (-3.343255996704101e-05, 0.234375) (-3.1733469009399415e-05, 0.236328125) (-3.0157423019409177e-05, 0.23828125) (-2.8703517913818358e-05, 0.240234375) (-2.7368764877319335e-05, 0.2421875) (-2.616516876220703e-05, 0.244140625) (-2.511835479736328e-05, 0.24609375) (-2.4230119705200193e-05, 0.248046875) (-2.3489784240722657e-05, 0.25) (-2.2879098892211913e-05, 0.251953125) (-2.2366596221923828e-05, 0.25390625) (-2.193121337890625e-05, 0.255859375) (-2.1555641174316405e-05, 0.2578125) (-2.1212469100952147e-05, 0.259765625) (-2.0869316101074216e-05, 0.26171875) (-2.049576187133789e-05, 0.263671875) (-2.0066360473632813e-05, 0.265625) (-1.9565958023071287e-05, 0.267578125) (-1.8988767623901365e-05, 0.26953125) (-1.832486915588379e-05, 0.271484375) (-1.756128692626953e-05, 0.2734375) (-1.6684139251708985e-05, 0.275390625) (-1.5677835464477537e-05, 0.27734375) (-1.4531867027282715e-05, 0.279296875) (-1.323756217956543e-05, 0.28125) (-1.1785474777221679e-05, 0.283203125) (-1.0167537689208985e-05, 0.28515625) (-8.375822067260742e-06, 0.287109375) (-6.4036021232604975e-06, 0.2890625) (-4.248016834259033e-06, 0.291015625) (-1.9089984893798826e-06, 0.29296875) (6.141139268875122e-07, 0.294921875) (3.321247100830078e-06, 0.296875) (6.2118768692016595e-06, 0.298828125) (9.285737037658691e-06, 0.30078125) (1.2539416313171387e-05, 0.302734375) (1.5966978073120117e-05, 0.3046875) (1.9561614990234374e-05, 0.306640625) (2.3314922332763672e-05, 0.30859375) (2.72165470123291e-05, 0.310546875) (3.125442886352539e-05, 0.3125) (3.541420364379883e-05, 0.314453125) (3.967930603027343e-05, 0.31640625) (4.403250885009765e-05, 0.318359375) (4.8455787658691406e-05, 0.3203125) (5.292996978759765e-05, 0.322265625) (5.743487930297851e-05, 0.32421875) (6.194927215576171e-05, 0.326171875) (6.645116424560547e-05, 0.328125) (7.091807556152343e-05, 0.330078125) (7.532708740234375e-05, 0.33203125) (7.965476989746094e-05, 0.333984375) (8.387737274169921e-05, 0.3359375) (8.797108459472656e-05, 0.337890625) (9.191236114501953e-05, 0.33984375) (9.567807006835937e-05, 0.341796875) (9.924540710449218e-05, 0.34375) (0.00010259207153320312, 0.345703125) (0.00010569646453857422, 0.34765625) (0.00010853799438476562, 0.349609375) (0.00011109718322753905, 0.3515625) (0.00011335588073730468, 0.353515625) (0.00011529731750488281, 0.35546875) (0.0001169062271118164, 0.357421875) (0.00011816905212402343, 0.359375) (0.00011907429504394531, 0.361328125) (0.00011961244201660156, 0.36328125) (0.00011977608489990233, 0.365234375) (0.0001195599136352539, 0.3671875) (0.00011896051025390624, 0.369140625) (0.00011797647094726562, 0.37109375) (0.00011660862731933593, 0.373046875) (0.00011485995483398437, 0.375) (0.00011273552703857421, 0.376953125) (0.00011024256134033202, 0.37890625) (0.00010739005279541015, 0.380859375) (0.00010418876647949218, 0.3828125) (0.0001006514434814453, 0.384765625) (9.67926025390625e-05, 0.38671875) (9.26284408569336e-05, 0.388671875) (8.817668151855469e-05, 0.390625) (8.345643615722656e-05, 0.392578125) (7.848799133300781e-05, 0.39453125) (7.329289245605468e-05, 0.396484375) (6.789376831054687e-05, 0.3984375) (6.231413650512694e-05, 0.400390625) (5.657827758789062e-05, 0.40234375) (5.07110366821289e-05, 0.404296875) (4.4737735748291016e-05, 0.40625) (3.868404388427734e-05, 0.408203125) (3.2575893402099607e-05, 0.41015625) (2.643927001953125e-05, 0.412109375) (2.030009651184082e-05, 0.4140625) (1.4183982849121093e-05, 0.416015625) (8.116066932678223e-06, 0.41796875) (2.1208634376525878e-06, 0.419921875) (-3.7779309749603268e-06, 0.421875) (-9.557597160339356e-06, 0.423828125) (-1.5196514129638671e-05, 0.42578125) (-2.067432403564453e-05, 0.427734375) (-2.5972028732299805e-05, 0.4296875) (-3.1071990966796876e-05, 0.431640625) (-3.595803070068359e-05, 0.43359375) (-4.061544036865234e-05, 0.435546875) (-4.5031066894531245e-05, 0.4375) (-4.919332504272461e-05, 0.439453125) (-5.3092304229736326e-05, 0.44140625) (-5.6719734191894526e-05, 0.443359375) (-6.0069007873535154e-05, 0.4453125) (-6.313522338867187e-05, 0.447265625) (-6.591516113281249e-05, 0.44921875) (-6.840731048583984e-05, 0.451171875) (-7.061177062988282e-05, 0.453125) (-7.253023529052734e-05, 0.455078125) (-7.416592407226563e-05, 0.45703125) (-7.55234375e-05, 0.458984375) (-7.66087417602539e-05, 0.4609375) (-7.742912292480469e-05, 0.462890625) (-7.799308013916016e-05, 0.46484375) (-7.831025695800781e-05, 0.466796875) (-7.839136505126953e-05, 0.46875) (-7.824810028076171e-05, 0.470703125) (-7.789307403564453e-05, 0.47265625) (-7.733970642089843e-05, 0.474609375) (-7.660209655761719e-05, 0.4765625) (-7.569490814208985e-05, 0.478515625) (-7.46331787109375e-05, 0.48046875) (-7.343220520019531e-05, 0.482421875) (-7.2107421875e-05, 0.484375) (-7.067422485351562e-05, 0.486328125) (-6.914794158935547e-05, 0.48828125) (-6.754367065429687e-05, 0.490234375) (-6.5876220703125e-05, 0.4921875) (-6.416002655029297e-05, 0.494140625) (-6.240907669067382e-05, 0.49609375) (-6.0636940002441405e-05, 0.498046875) (-5.8856628417968745e-05, 0.5) (-5.708055877685546e-05, 0.501953125) (-5.532051086425781e-05, 0.50390625) (-5.358750915527344e-05, 0.505859375) (-5.189177703857422e-05, 0.5078125) (-5.0242713928222656e-05, 0.509765625) (-4.864887237548828e-05, 0.51171875) (-4.711786651611328e-05, 0.513671875) (-4.565640258789062e-05, 0.515625) (-4.42702407836914e-05, 0.517578125) (-4.296419525146484e-05, 0.51953125) (-4.174224472045898e-05, 0.521484375) (-4.060752105712891e-05, 0.5234375) (-3.9562324523925776e-05, 0.525390625) (-3.860818099975586e-05, 0.52734375) (-3.7745841979980466e-05, 0.529296875) (-3.6975326538085936e-05, 0.53125) (-3.629598999023437e-05, 0.533203125) (-3.570661163330078e-05, 0.53515625) (-3.5205310821533204e-05, 0.537109375) (-3.478969955444336e-05, 0.5390625) (-3.445692825317383e-05, 0.541015625) (-3.420369720458984e-05, 0.54296875) (-3.402645874023437e-05, 0.544921875) (-3.3921466827392575e-05, 0.546875) (-3.388478851318359e-05, 0.548828125) (-3.391248703002929e-05, 0.55078125) (-3.400061798095703e-05, 0.552734375) (-3.4145156860351564e-05, 0.5546875) (-3.434215927124023e-05, 0.556640625) (-3.458774185180664e-05, 0.55859375) (-3.487801742553711e-05, 0.560546875) (-3.520922470092773e-05, 0.5625) (-3.557766342163086e-05, 0.564453125) (-3.59796028137207e-05, 0.56640625) (-3.641152191162109e-05, 0.568359375) (-3.6870147705078126e-05, 0.5703125) (-3.7352420806884764e-05, 0.572265625) (-3.7855648040771486e-05, 0.57421875) (-3.83775634765625e-05, 0.576171875) (-3.891621017456055e-05, 0.578125) (-3.947013473510742e-05, 0.580078125) (-4.003840637207031e-05, 0.58203125) (-4.062035751342773e-05, 0.583984375) (-4.1215698242187496e-05, 0.5859375) (-4.182448577880859e-05, 0.587890625) (-4.244691467285156e-05, 0.58984375) (-4.30833625793457e-05, 0.591796875) (-4.373441314697265e-05, 0.59375) (-4.440060806274414e-05, 0.595703125) (-4.5082595825195314e-05, 0.59765625) (-4.5781295776367185e-05, 0.599609375) (-4.6497558593749996e-05, 0.6015625) (-4.723233795166016e-05, 0.603515625) (-4.798677825927734e-05, 0.60546875) (-4.876186370849609e-05, 0.607421875) (-4.955858612060547e-05, 0.609375) (-5.0377906799316404e-05, 0.611328125) (-5.122027969360351e-05, 0.61328125) (-5.2085910797119135e-05, 0.615234375) (-5.297498321533203e-05, 0.6171875) (-5.388738632202148e-05, 0.619140625) (-5.482288742065429e-05, 0.62109375) (-5.5781398773193354e-05, 0.623046875) (-5.6762424468994136e-05, 0.625) (-5.776552200317383e-05, 0.626953125) (-5.879071807861328e-05, 0.62890625) (-5.983791351318359e-05, 0.630859375) (-6.090700531005859e-05, 0.6328125) (-6.199808883666993e-05, 0.634765625) (-6.311083221435546e-05, 0.63671875) (-6.424452209472656e-05, 0.638671875) (-6.539846801757812e-05, 0.640625) (-6.657155609130859e-05, 0.642578125) (-6.776224517822265e-05, 0.64453125) (-6.896903228759765e-05, 0.646484375) (-7.019007110595702e-05, 0.6484375) (-7.142303466796874e-05, 0.650390625) (-7.26657485961914e-05, 0.65234375) (-7.391652679443358e-05, 0.654296875) (-7.517407989501952e-05, 0.65625) (-7.643801879882812e-05, 0.658203125) (-7.770875549316406e-05, 0.66015625) (-7.898631286621093e-05, 0.662109375) (-8.027099609374999e-05, 0.6640625) (-8.156340789794921e-05, 0.666015625) (-8.286367797851562e-05, 0.66796875) (-8.41715087890625e-05, 0.669921875) (-8.548595428466797e-05, 0.671875) (-8.680439758300781e-05, 0.673828125) (-8.812312316894531e-05, 0.67578125) (-8.94392852783203e-05, 0.677734375) (-9.074974060058594e-05, 0.6796875) (-9.205227661132813e-05, 0.681640625) (-9.334644317626952e-05, 0.68359375) (-9.463005828857421e-05, 0.685546875) (-9.590090179443359e-05, 0.6875) (-9.715727233886719e-05, 0.689453125) (-9.839454650878906e-05, 0.69140625) (-9.960707092285156e-05, 0.693359375) (-0.00010078985595703125, 0.6953125) (-0.00010193392181396484, 0.697265625) (-0.00010302833557128906, 0.69921875) (-0.00010406684875488281, 0.701171875) (-0.00010504220581054687, 0.703125) (-0.00010595152282714844, 0.705078125) (-0.00010680268859863281, 0.70703125) (-0.00010759916687011718, 0.708984375) (-0.0001083412857055664, 0.7109375) (-0.00010902874755859375, 0.712890625) (-0.00010965105438232422, 0.71484375) (-0.00011019414520263671, 0.716796875) (-0.00011064473724365234, 0.71875) (-0.00011097854614257812, 0.720703125) (-0.00011116429138183593, 0.72265625) (-0.00011117494201660155, 0.724609375) (-0.00011097706604003906, 0.7265625) (-0.0001105445327758789, 0.728515625) (-0.00010986529541015625, 0.73046875) (-0.00010891600036621093, 0.732421875) (-0.00010767880249023437, 0.734375) (-0.00010613651275634765, 0.736328125) (-0.00010424823760986327, 0.73828125) (-0.0001019855728149414, 0.740234375) (-9.934075927734375e-05, 0.7421875) (-9.631317138671875e-05, 0.744140625) (-9.292934417724609e-05, 0.74609375) (-8.923252868652344e-05, 0.748046875) (-8.526194763183594e-05, 0.75) (-8.107495117187499e-05, 0.751953125) (-7.674868011474609e-05, 0.75390625) (-7.236784362792969e-05, 0.755859375) (-6.803845977783203e-05, 0.7578125) (-6.386087799072265e-05, 0.759765625) (-5.992499542236328e-05, 0.76171875) (-5.633338546752929e-05, 0.763671875) (-5.3154899597167964e-05, 0.765625) (-5.048056411743164e-05, 0.767578125) (-4.8453186035156245e-05, 0.76953125) (-4.708935928344726e-05, 0.771484375) (-4.629450225830078e-05, 0.7734375) (-4.587411499023437e-05, 0.775390625) (-4.544269180297851e-05, 0.77734375) (-4.464744567871094e-05, 0.779296875) (-4.323238372802734e-05, 0.78125) (-4.0814231872558595e-05, 0.783203125) (-3.7051002502441405e-05, 0.78515625) (-3.193931579589844e-05, 0.787109375) (-2.566645812988281e-05, 0.7890625) (-1.8744625091552734e-05, 0.791015625) (-1.207792568206787e-05, 0.79296875) (-6.323497295379638e-06, 0.794921875) (-2.026769161224365e-06, 0.796875) (7.057639956474303e-08, 0.798828125) (-2.7374923229217527e-07, 0.80078125) (-2.5754494667053222e-06, 0.802734375) (-5.903902530670166e-06, 0.8046875) (-8.666465759277344e-06, 0.806640625) (-8.807336807250976e-06, 0.80859375) (-4.533368587493897e-06, 0.810546875) (6.052169322967529e-06, 0.8125) (2.5182823181152343e-05, 0.814453125) (5.4228752136230464e-05, 0.81640625) (9.324732971191406e-05, 0.818359375) (0.00014129409790039063, 0.8203125) (0.00019639447021484375, 0.822265625) (0.0002558180694580078, 0.82421875) (0.00031639697265624996, 0.826171875) (0.0003741417236328125, 0.828125) (0.0004240491943359375, 0.830078125) (0.0004614256896972656, 0.83203125) (0.00048301733398437496, 0.833984375) (0.00048664019775390623, 0.8359375) (0.0004709288024902343, 0.837890625) (0.000435571533203125, 0.83984375) (0.00038144616699218746, 0.841796875) (0.00031106591796874997, 0.84375) (0.00022895396423339842, 0.845703125) (0.00014046023559570312, 0.84765625) (5.0325714111328125e-05, 0.849609375) (-3.6732101440429685e-05, 0.8515625) (-0.0001157146759033203, 0.853515625) (-0.00018216082763671874, 0.85546875) (-0.0002323614807128906, 0.857421875) (-0.0002641698303222656, 0.859375) (-0.00027766638183593747, 0.861328125) (-0.0002741049194335937, 0.86328125) (-0.0002550972442626953, 0.865234375) (-0.00022334465026855468, 0.8671875) (-0.00018273524475097654, 0.869140625) (-0.00013758526611328125, 0.87109375) (-9.259434509277344e-05, 0.873046875) (-5.172756195068359e-05, 0.875) (-1.7403608322143553e-05, 0.876953125) (8.615885734558106e-06, 0.87890625) (2.5245849609375e-05, 0.880859375) (3.262999725341797e-05, 0.8828125) (3.1979137420654296e-05, 0.884765625) (2.5299444198608397e-05, 0.88671875) (1.5430094718933105e-05, 0.888671875) (5.0616211891174314e-06, 0.890625) (-4.007842540740966e-06, 0.892578125) (-1.0293004989624022e-05, 0.89453125) (-1.2887786865234375e-05, 0.896484375) (-1.1681756019592284e-05, 0.8984375) (-7.0634989738464356e-06, 0.900390625) (4.9265861511230465e-08, 0.90234375) (8.196344375610352e-06, 0.904296875) (1.5945920944213868e-05, 0.90625) (2.2414730072021483e-05, 0.908203125) (2.6996959686279294e-05, 0.91015625) (2.9449907302856444e-05, 0.912109375) (2.9903888702392575e-05, 0.9140625) (2.8591037750244138e-05, 0.916015625) (2.5930450439453122e-05, 0.91796875) (2.2555166244506835e-05, 0.919921875) (1.9080062866210935e-05, 0.921875) (1.5867871284484863e-05, 0.923828125) (1.3123414993286132e-05, 0.92578125) (1.0921245574951171e-05, 0.927734375) (9.251491546630859e-06, 0.9296875) (8.170783996582032e-06, 0.931640625) (7.707714557647704e-06, 0.93359375) (7.813589096069336e-06, 0.935546875) (8.422255516052246e-06, 0.9375) (9.481814384460448e-06, 0.939453125) (1.0956138610839843e-05, 0.94140625) (1.2821043014526367e-05, 0.943359375) (1.5026448249816894e-05, 0.9453125) (1.7458261489868164e-05, 0.947265625) (1.999930191040039e-05, 0.94921875) (2.2553096771240234e-05, 0.951171875) (2.5050876617431638e-05, 0.953125) (2.746970748901367e-05, 0.955078125) (2.9793718338012694e-05, 0.95703125) (3.2003417968749995e-05, 0.958984375) (3.40835952758789e-05, 0.9609375) (3.601814651489258e-05, 0.962890625) (3.7801685333251954e-05, 0.96484375) (3.9440879821777345e-05, 0.966796875) (4.0937023162841794e-05, 0.96875) (4.22879638671875e-05, 0.970703125) (4.350267028808594e-05, 0.97265625) (4.4599662780761715e-05, 0.974609375) (4.561983871459961e-05, 0.9765625) (4.662754440307617e-05, 0.978515625) (4.7676567077636716e-05, 0.98046875) (4.880930328369141e-05, 0.982421875) (5.0061744689941406e-05, 0.984375) (5.145472335815429e-05, 0.986328125) (5.3006000518798824e-05, 0.98828125) (5.473315811157226e-05, 0.990234375) (5.6642646789550775e-05, 0.9921875) (5.8734134674072265e-05, 0.994140625) (6.1009311676025386e-05, 0.99609375) (6.346921920776367e-05, 0.998046875) (6.611825561523438e-05, 1.0) (6.896521759033202e-05, 1.001953125) (7.201319122314453e-05, 1.00390625) (7.526055908203125e-05, 1.005859375) (7.870207977294921e-05, 1.0078125) (8.232662963867187e-05, 1.009765625) (8.612362670898437e-05, 1.01171875) (9.008383178710938e-05, 1.013671875) (9.419510650634765e-05, 1.015625) (9.844438171386719e-05, 1.017578125) (0.00010281864929199218, 1.01953125) (0.00010730352020263672, 1.021484375) (0.00011188601684570312, 1.0234375) (0.00011655467987060546, 1.025390625) (0.00012129437255859374, 1.02734375) (0.00012608695983886719, 1.029296875) (0.00013091282653808592, 1.03125) (0.00013574993896484373, 1.033203125) (0.00014057565307617188, 1.03515625) (0.00014536720275878907, 1.037109375) (0.00015009991455078124, 1.0390625) (0.00015474790954589842, 1.041015625) (0.00015928594970703126, 1.04296875) (0.00016368907165527344, 1.044921875) (0.00016793286132812498, 1.046875) (0.00017199395751953125, 1.048828125) (0.00017584904479980468, 1.05078125) (0.00017947540283203125, 1.052734375) (0.00018285169982910156, 1.0546875) (0.00018595806884765624, 1.056640625) (0.00018877584838867186, 1.05859375) (0.00019128804016113282, 1.060546875) (0.00019347897338867188, 1.0625) (0.0001953344268798828, 1.064453125) (0.00019684213256835936, 1.06640625) (0.00019799179077148435, 1.068359375) (0.0001987748107910156, 1.0703125) (0.0001991846923828125, 1.072265625) (0.00019921679687499999, 1.07421875) (0.00019886837768554687, 1.076171875) (0.00019813916015624998, 1.078125) (0.00019703126525878905, 1.080078125) (0.00019554907226562498, 1.08203125) (0.00019369902038574217, 1.083984375) (0.0001914896545410156, 1.0859375) (0.0001889312286376953, 1.087890625) (0.00018603630065917967, 1.08984375) (0.0001828194580078125, 1.091796875) (0.00017929689025878906, 1.09375) (0.00017548641967773436, 1.095703125) (0.00017140740966796873, 1.09765625) (0.00016708045959472657, 1.099609375) (0.00016252769470214844, 1.1015625) (0.00015777255249023437, 1.103515625) (0.00015283921813964843, 1.10546875) (0.00014775250244140623, 1.107421875) (0.00014253762817382812, 1.109375) (0.0001372200927734375, 1.111328125) (0.00013182534790039062, 1.11328125) (0.00012637887573242187, 1.115234375) (0.00012090547180175781, 1.1171875) (0.00011542933654785155, 1.119140625) (0.00010997386169433593, 1.12109375) (0.0001045615234375, 1.123046875) (9.921382904052734e-05, 1.125) (9.395124816894531e-05, 1.126953125) (8.879302978515625e-05, 1.12890625) (8.375717163085938e-05, 1.130859375) (7.886033630371094e-05, 1.1328125) (7.41177749633789e-05, 1.134765625) (6.954322814941406e-05, 1.13671875) (6.51489028930664e-05, 1.138671875) (6.094520568847656e-05, 1.140625) (5.694075775146484e-05, 1.142578125) (5.314236450195312e-05, 1.14453125) (4.955499267578125e-05, 1.146484375) (4.618183898925781e-05, 1.1484375) (4.302444458007812e-05, 1.150390625) (4.008268737792969e-05, 1.15234375) (3.735489654541015e-05, 1.154296875) (3.48380012512207e-05, 1.15625) (3.2527606964111325e-05, 1.158203125) (3.0418054580688475e-05, 1.16015625) (2.8502500534057614e-05, 1.162109375) (2.67729377746582e-05, 1.1640625) (2.5220287322998045e-05, 1.166015625) (2.3834556579589843e-05, 1.16796875) (2.2604911804199217e-05, 1.169921875) (2.1519866943359375e-05, 1.171875) (2.0567462921142576e-05, 1.173828125) (1.9735446929931638e-05, 1.17578125) (1.9011524200439452e-05, 1.177734375) (1.838353729248047e-05, 1.1796875) (1.7839593887329102e-05, 1.181640625) (1.7368183135986326e-05, 1.18359375) (1.6958305358886718e-05, 1.185546875) (1.6599506378173827e-05, 1.1875) (1.628195571899414e-05, 1.189453125) (1.59965181350708e-05, 1.19140625) (1.573471450805664e-05, 1.193359375) (1.5488777160644532e-05, 1.1953125) (1.5251775741577147e-05, 1.197265625) (1.5017691612243651e-05, 1.19921875) (1.4781497955322265e-05, 1.201171875) (1.4539261817932129e-05, 1.203125) (1.428812026977539e-05, 1.205078125) (1.4026266098022461e-05, 1.20703125) (1.3753026008605956e-05, 1.208984375) (1.3468816757202148e-05, 1.2109375) (1.3175045013427734e-05, 1.212890625) (1.2874035835266113e-05, 1.21484375) (1.2568835258483886e-05, 1.216796875) (1.226309585571289e-05, 1.21875) (1.1961076736450195e-05, 1.220703125) (1.1667570114135741e-05, 1.22265625) (1.1387882232666016e-05, 1.224609375) (1.1127790451049804e-05, 1.2265625) (1.0893362045288086e-05, 1.228515625) (1.0690912246704101e-05, 1.23046875) (1.0527033805847168e-05, 1.232421875) (1.0408438682556151e-05, 1.234375) (1.034184455871582e-05, 1.236328125) (1.0333869934082032e-05, 1.23828125) (1.0390653610229491e-05, 1.240234375) (1.0517740249633788e-05, 1.2421875) (1.0720197677612303e-05, 1.244140625) (1.1002466201782225e-05, 1.24609375) (1.136827564239502e-05, 1.248046875) (1.1820671081542968e-05, 1.25) (1.2361845970153808e-05, 1.251953125) (1.2993093490600585e-05, 1.25390625) (1.371512985229492e-05, 1.255859375) (1.4528099060058593e-05, 1.2578125) (1.5431382179260253e-05, 1.259765625) (1.6423582077026368e-05, 1.26171875) (1.750244903564453e-05, 1.263671875) (1.8664798736572264e-05, 1.265625) (1.9906770706176757e-05, 1.267578125) (2.122393035888672e-05, 1.26953125) (2.261098289489746e-05, 1.271484375) (2.4061756134033203e-05, 1.2734375) (2.5569259643554685e-05, 1.275390625) (2.712578773498535e-05, 1.27734375) (2.8723331451416016e-05, 1.279296875) (3.0353691101074218e-05, 1.28125) (3.2008365631103515e-05, 1.283203125) (3.3678600311279295e-05, 1.28515625) (3.5355369567871094e-05, 1.287109375) (3.702947998046875e-05, 1.2890625) (3.8692001342773435e-05, 1.291015625) (4.033428955078125e-05, 1.29296875) (4.194761657714844e-05, 1.294921875) (4.3523406982421874e-05, 1.296875) (4.5053222656249995e-05, 1.298828125) (4.6528736114501954e-05, 1.30078125) (4.7942569732666016e-05, 1.302734375) (4.928828430175781e-05, 1.3046875) (5.05598030090332e-05, 1.306640625) (5.175162506103516e-05, 1.30859375) (5.285908508300781e-05, 1.310546875) (5.3878051757812495e-05, 1.3125) (5.48054084777832e-05, 1.314453125) (5.5639152526855465e-05, 1.31640625) (5.63773193359375e-05, 1.318359375) (5.701791763305664e-05, 1.3203125) (5.755953216552734e-05, 1.322265625) (5.800121307373047e-05, 1.32421875) (5.834225845336914e-05, 1.326171875) (5.858245468139648e-05, 1.328125) (5.87212905883789e-05, 1.330078125) (5.875765991210937e-05, 1.33203125) (5.8691356658935544e-05, 1.333984375) (5.852323913574218e-05, 1.3359375) (5.825462341308593e-05, 1.337890625) (5.7887123107910154e-05, 1.33984375) (5.7422538757324215e-05, 1.341796875) (5.686270904541015e-05, 1.34375) (5.62108039855957e-05, 1.345703125) (5.547187042236328e-05, 1.34765625) (5.465082550048828e-05, 1.349609375) (5.375200271606445e-05, 1.3515625) (5.2778617858886716e-05, 1.353515625) (5.173294067382812e-05, 1.35546875) (5.061872100830078e-05, 1.357421875) (4.944026947021484e-05, 1.359375) (4.820108413696289e-05, 1.361328125) (4.690379333496094e-05, 1.36328125) (4.554878234863281e-05, 1.365234375) (4.413515472412109e-05, 1.3671875) (4.26659927368164e-05, 1.369140625) (4.114839172363281e-05, 1.37109375) (3.958641052246094e-05, 1.373046875) (3.798284912109375e-05, 1.375) (3.6336391448974607e-05, 1.376953125) (3.463845062255859e-05, 1.37890625) (3.288797378540039e-05, 1.380859375) (3.1092100143432616e-05, 1.3828125) (2.9257282257080076e-05, 1.384765625) (2.7391105651855468e-05, 1.38671875) (2.5503032684326172e-05, 1.388671875) (2.3603933334350586e-05, 1.390625) (2.171715545654297e-05, 1.392578125) (1.9883270263671874e-05, 1.39453125) (1.8141979217529295e-05, 1.396484375) (1.652792167663574e-05, 1.3984375) (1.506636905670166e-05, 1.400390625) (1.3767414093017578e-05, 1.40234375) (1.2649402618408202e-05, 1.404296875) (1.1736477851867675e-05, 1.40625) (1.105225372314453e-05, 1.408203125) (1.0627801895141601e-05, 1.41015625) (1.0473514556884764e-05, 1.412109375) (1.0578311920166016e-05, 1.4140625) (1.0937261581420897e-05, 1.416015625) (1.1545907974243164e-05, 1.41796875) (1.238333511352539e-05, 1.419921875) (1.341529083251953e-05, 1.421875) (1.45754337310791e-05, 1.423828125) (1.574663734436035e-05, 1.42578125) (1.6815162658691404e-05, 1.427734375) (1.768702507019043e-05, 1.4296875) (1.8275854110717774e-05, 1.431640625) (1.8533220291137694e-05, 1.43359375) (1.8419132232666014e-05, 1.435546875) (1.7883636474609373e-05, 1.4375) (1.687936019897461e-05, 1.439453125) (1.5352206230163573e-05, 1.44140625) (1.3287163734436035e-05, 1.443359375) (1.070421028137207e-05, 1.4453125) (7.63465166091919e-06, 1.447265625) (4.109162330627441e-06, 1.44921875) (1.400914192199707e-07, 1.451171875) (-4.187601089477539e-06, 1.453125) (-8.633526802062988e-06, 1.455078125) (-1.2782072067260741e-05, 1.45703125) (-1.6148429870605466e-05, 1.458984375) (-1.8245441436767578e-05, 1.4609375) (-1.866073417663574e-05, 1.462890625) (-1.7153997421264647e-05, 1.46484375) (-1.3473573684692382e-05, 1.466796875) (-7.511284828186035e-06, 1.46875) (4.5946907997131345e-07, 1.470703125) (9.884355545043945e-06, 1.47265625) (1.9990978240966794e-05, 1.474609375) (2.9808820724487303e-05, 1.4765625) (3.830049896240234e-05, 1.478515625) (4.5056659698486326e-05, 1.48046875) (5.009765243530273e-05, 1.482421875) (5.343690490722656e-05, 1.484375) (5.68659553527832e-05, 1.486328125) (6.262802886962891e-05, 1.48828125) (7.146797180175781e-05, 1.490234375) (8.56515655517578e-05, 1.4921875) (0.00010562362670898437, 1.494140625) (0.0001293427276611328, 1.49609375) (0.00015831759643554686, 1.498046875) (0.00019312791442871092, 1.5) (0.0002349151916503906, 1.501953125) (0.00028815277099609375, 1.50390625) (0.0003531947631835937, 1.505859375) (0.00042687420654296876, 1.5078125) (0.0005014339599609375, 1.509765625) (0.000563736083984375, 1.51171875) (0.000600076171875, 1.513671875) (0.0005990664672851562, 1.515625) (0.0005579723510742187, 1.517578125) (0.0004803839721679687, 1.51953125) (0.00037416198730468747, 1.521484375) (0.0002540426788330078, 1.5234375) (0.00013211845397949218, 1.525390625) (2.081976509094238e-05, 1.52734375) (-6.516992950439453e-05, 1.529296875) (-0.00012120502471923827, 1.53125) (-0.00014716534423828124, 1.533203125) (-0.0001489497528076172, 1.53515625) (-0.0001410356750488281, 1.537109375) (-0.00013136441040039062, 1.5390625) (-0.00012243386840820312, 1.541015625) (-0.0001133475341796875, 1.54296875) (-9.833750915527343e-05, 1.544921875) (-7.645937347412109e-05, 1.546875) (-5.136386108398437e-05, 1.548828125) (-2.6737905502319334e-05, 1.55078125) (-6.3361239433288575e-06, 1.552734375) (8.490874290466308e-06, 1.5546875) (1.8504444122314453e-05, 1.556640625) (2.4073492050170897e-05, 1.55859375) (2.5384012222290037e-05, 1.560546875) (2.328426170349121e-05, 1.5625) (1.928358268737793e-05, 1.564453125) (1.4977867126464844e-05, 1.56640625) (1.1313745498657227e-05, 1.568359375) (8.57447624206543e-06, 1.5703125) (6.674852848052978e-06, 1.572265625) (5.768400192260742e-06, 1.57421875) (6.384810924530029e-06, 1.576171875) (8.56203269958496e-06, 1.578125) (1.161716365814209e-05, 1.580078125) (1.461524200439453e-05, 1.58203125) (1.6909832000732422e-05, 1.583984375) (1.8328065872192383e-05, 1.5859375) (1.9003297805786132e-05, 1.587890625) (1.9008878707885743e-05, 1.58984375) (1.8171680450439453e-05, 1.591796875) (1.6415990829467774e-05, 1.59375) (1.3986904144287108e-05, 1.595703125) (1.1363515853881835e-05, 1.59765625) (8.956083297729491e-06, 1.599609375) (6.943375110626221e-06, 1.6015625) (5.323470115661621e-06, 1.603515625) (4.0189833641052246e-06, 1.60546875) (3.035999774932861e-06, 1.607421875) (2.4305975437164304e-06, 1.609375) (2.194578170776367e-06, 1.611328125) (2.2403161525726317e-06, 1.61328125) (2.4616398811340332e-06, 1.615234375) (2.7797420024871824e-06, 1.6171875) (3.163959503173828e-06, 1.619140625) (3.6290769577026366e-06, 1.62109375) (4.171389579772949e-06, 1.623046875) (4.756074905395508e-06, 1.625) (5.335319519042969e-06, 1.626953125) (5.850924968719482e-06, 1.62890625) (6.26835823059082e-06, 1.630859375) (6.58040714263916e-06, 1.6328125) (6.785832405090332e-06, 1.634765625) (6.889227867126464e-06, 1.63671875) (6.898769378662109e-06, 1.638671875) (6.820295333862305e-06, 1.640625) (6.668171405792236e-06, 1.642578125) (6.47008752822876e-06, 1.64453125) (6.250772476196289e-06, 1.646484375) (6.0307312011718745e-06, 1.6484375) (5.828520774841308e-06, 1.650390625) (5.655899047851562e-06, 1.65234375) (5.527029037475586e-06, 1.654296875) (5.463675975799561e-06, 1.65625) (5.4902734756469724e-06, 1.658203125) (5.632330894470215e-06, 1.66015625) (5.91259765625e-06, 1.662109375) (6.34860610961914e-06, 1.6640625) (6.955748558044433e-06, 1.666015625) (7.748621940612793e-06, 1.66796875) (8.740036010742187e-06, 1.669921875) (9.94111442565918e-06, 1.671875) (1.1360215187072754e-05, 1.673828125) (1.3002553939819335e-05, 1.67578125) (1.4873585700988768e-05, 1.677734375) (1.697916793823242e-05, 1.6796875) (1.9324022293090818e-05, 1.681640625) (2.1912139892578125e-05, 1.68359375) (2.4745510101318357e-05, 1.685546875) (2.782328414916992e-05, 1.6875) (3.11428050994873e-05, 1.689453125) (3.469956588745117e-05, 1.69140625) (3.848633575439453e-05, 1.693359375) (4.249369049072265e-05, 1.6953125) (4.6710327148437496e-05, 1.697265625) (5.112287139892578e-05, 1.69921875) (5.5716453552246094e-05, 1.701171875) (6.04749526977539e-05, 1.703125) (6.538059997558594e-05, 1.705078125) (7.041410827636718e-05, 1.70703125) (7.555504608154296e-05, 1.708984375) (8.078181457519531e-05, 1.7109375) (8.607164001464844e-05, 1.712890625) (9.140074157714843e-05, 1.71484375) (9.67442855834961e-05, 1.716796875) (0.00010207638549804687, 1.71875) (0.00010737056732177734, 1.720703125) (0.00011260009002685546, 1.72265625) (0.00011773785400390625, 1.724609375) (0.00012275662231445313, 1.7265625) (0.0001276291732788086, 1.728515625) (0.0001323285217285156, 1.73046875) (0.00013682829284667968, 1.732421875) (0.00014110308837890625, 1.734375) (0.00014512852478027342, 1.736328125) (0.00014888131713867186, 1.73828125) (0.0001523395538330078, 1.740234375) (0.00015548272705078123, 1.7421875) (0.00015829216003417968, 1.744140625) (0.00016075112915039062, 1.74609375) (0.00016284478759765624, 1.748046875) (0.00016456047058105468, 1.75) (0.00016588754272460937, 1.751953125) (0.00016681756591796875, 1.75390625) (0.00016734463500976563, 1.755859375) (0.00016746522521972655, 1.7578125) (0.00016717819213867187, 1.759765625) (0.0001664846954345703, 1.76171875) (0.00016538803100585938, 1.763671875) (0.00016389361572265624, 1.765625) (0.00016200897216796874, 1.767578125) (0.00015974374389648437, 1.76953125) (0.000157109375, 1.771484375) (0.0001541190948486328, 1.7734375) (0.00015078790283203124, 1.775390625) (0.00014713241577148437, 1.77734375) (0.00014317091369628907, 1.779296875) (0.00013892323303222654, 1.78125) (0.0001344105529785156, 1.783203125) (0.0001296553497314453, 1.78515625) (0.00012468115234375, 1.787109375) (0.00011951246643066406, 1.7890625) (0.00011417455291748046, 1.791015625) (0.00010869332885742187, 1.79296875) (0.00010309503173828125, 1.794921875) (9.740605163574219e-05, 1.796875) (9.165277099609375e-05, 1.798828125) (8.58612823486328e-05, 1.80078125) (8.005733489990233e-05, 1.802734375) (7.42659912109375e-05, 1.8046875) (6.851156616210938e-05, 1.806640625) (6.281739807128906e-05, 1.80859375) (5.720575714111328e-05, 1.810546875) (5.1697658538818356e-05, 1.8125) (4.6312805175781246e-05, 1.814453125) (4.106949996948242e-05, 1.81640625) (3.598448944091797e-05, 1.818359375) (3.107297897338867e-05, 1.8203125) (2.6348567962646484e-05, 1.822265625) (2.18232421875e-05, 1.82421875) (1.750736427307129e-05, 1.826171875) (1.3409711837768555e-05, 1.828125) (9.537458419799805e-06, 1.830078125) (5.896210670471191e-06, 1.83203125) (2.4900455474853516e-06, 1.833984375) (-6.784662008285522e-07, 1.8359375) (-3.6082386970520016e-06, 1.837890625) (-6.299636840820312e-06, 1.83984375) (-8.754454612731933e-06, 1.841796875) (-1.0975873947143555e-05, 1.84375) (-1.2968414306640624e-05, 1.845703125) (-1.4737889289855957e-05, 1.84765625) (-1.6291343688964844e-05, 1.849609375) (-1.7636966705322266e-05, 1.8515625) (-1.878401184082031e-05, 1.853515625) (-1.974267578125e-05, 1.85546875) (-2.0523971557617188e-05, 1.857421875) (-2.113960838317871e-05, 1.859375) (-2.16018123626709e-05, 1.861328125) (-2.1923206329345702e-05, 1.86328125) (-2.2116636276245118e-05, 1.865234375) (-2.2195026397705077e-05, 1.8671875) (-2.2171241760253904e-05, 1.869140625) (-2.2057954788208005e-05, 1.87109375) (-2.1867532730102537e-05, 1.873046875) (-2.161191940307617e-05, 1.875) (-2.1302547454833982e-05, 1.876953125) (-2.0950252532958982e-05, 1.87890625) (-2.0565200805664062e-05, 1.880859375) (-2.015683364868164e-05, 1.8828125) (-1.9733829498291014e-05, 1.884765625) (-1.9304054260253907e-05, 1.88671875) (-1.8874555587768553e-05, 1.888671875) (-1.845156097412109e-05, 1.890625) (-1.804047966003418e-05, 1.892578125) (-1.764590072631836e-05, 1.89453125) (-1.7271629333496094e-05, 1.896484375) (-1.6920679092407227e-05, 1.8984375) (-1.6595300674438475e-05, 1.900390625) (-1.629697608947754e-05, 1.90234375) (-1.602646255493164e-05, 1.904296875) (-1.5783765792846678e-05, 1.90625) (-1.556816577911377e-05, 1.908203125) (-1.5378231048583983e-05, 1.91015625) (-1.5211830139160155e-05, 1.912109375) (-1.5066175460815429e-05, 1.9140625) (-1.4937841415405273e-05, 1.916015625) (-1.4822830200195312e-05, 1.91796875) (-1.4716623306274414e-05, 1.919921875) (-1.461426544189453e-05, 1.921875) (-1.4510467529296875e-05, 1.923828125) (-1.4399696350097656e-05, 1.92578125) (-1.4276283264160156e-05, 1.927734375) (-1.4134498596191405e-05, 1.9296875) (-1.3968647956848144e-05, 1.931640625) (-1.3773157119750977e-05, 1.93359375) (-1.3542648315429687e-05, 1.935546875) (-1.327205753326416e-05, 1.9375) (-1.295668888092041e-05, 1.939453125) (-1.2592259407043456e-05, 1.94140625) (-1.2174940109252929e-05, 1.943359375) (-1.1701441764831542e-05, 1.9453125) (-1.1169059753417969e-05, 1.947265625) (-1.0575726509094237e-05, 1.94921875) (-9.920051574707031e-06, 1.951171875) (-9.201242446899414e-06, 1.953125) (-8.419075012207031e-06, 1.955078125) (-7.5739178657531736e-06, 1.95703125) (-6.66675043106079e-06, 1.958984375) (-5.699128627777099e-06, 1.9609375) (-4.673142910003662e-06, 1.962890625) (-3.591411828994751e-06, 1.96484375) (-2.457015037536621e-06, 1.966796875) (-1.2735207080841065e-06, 1.96875) (-4.5036077499389644e-08, 1.970703125) (1.2238595485687255e-06, 1.97265625) (2.528167724609375e-06, 1.974609375) (3.862505674362183e-06, 1.9765625) (5.221146583557128e-06, 1.978515625) (6.598086357116699e-06, 1.98046875) (7.987017631530762e-06, 1.982421875) (9.38137149810791e-06, 1.984375) (1.0774456024169922e-05, 1.986328125) (1.2159488677978515e-05, 1.98828125) (1.3529693603515625e-05, 1.990234375) (1.4878284454345702e-05, 1.9921875) (1.619844627380371e-05, 1.994140625) (1.748342514038086e-05, 1.99609375) (1.8726566314697265e-05, 1.998046875) (1.9921518325805665e-05, 2.0) (2.1062339782714842e-05, 2.001953125) (2.214341926574707e-05, 2.00390625) (2.3159427642822263e-05, 2.005859375) (2.4105564117431638e-05, 2.0078125) (2.497767639160156e-05, 2.009765625) (2.577231979370117e-05, 2.01171875) (2.6486942291259764e-05, 2.013671875) (2.711954879760742e-05, 2.015625) (2.7668537139892576e-05, 2.017578125) (2.813290786743164e-05, 2.01953125) (2.851241874694824e-05, 2.021484375) (2.880745506286621e-05, 2.0234375) (2.9018997192382812e-05, 2.025390625) (2.9148637771606444e-05, 2.02734375) (2.9198307037353513e-05, 2.029296875) (2.9170488357543946e-05, 2.03125) (2.9068492889404296e-05, 2.033203125) (2.8896163940429685e-05, 2.03515625) (2.8657760620117187e-05, 2.037109375) (2.8357906341552732e-05, 2.0390625) (2.8001426696777343e-05, 2.041015625) (2.7593292236328125e-05, 2.04296875) (2.7138885498046873e-05, 2.044921875) (2.6643808364868162e-05, 2.046875) (2.6113588333129883e-05, 2.048828125) (2.555377960205078e-05, 2.05078125) (2.496968078613281e-05, 2.052734375) (2.4366647720336913e-05, 2.0546875) (2.3750486373901367e-05, 2.056640625) (2.3127017974853516e-05, 2.05859375) (2.2502027511596678e-05, 2.060546875) (2.188110542297363e-05, 2.0625) (2.126923942565918e-05, 2.064453125) (2.0671390533447265e-05, 2.06640625) (2.0093013763427734e-05, 2.068359375) (1.9538604736328123e-05, 2.0703125) (1.9011348724365233e-05, 2.072265625) (1.851325988769531e-05, 2.07421875) (1.8044364929199217e-05, 2.076171875) (1.7604137420654296e-05, 2.078125) (1.7192556381225584e-05, 2.080078125) (1.680862808227539e-05, 2.08203125) (1.6449939727783204e-05, 2.083984375) (1.6114290237426756e-05, 2.0859375) (1.5799346923828124e-05, 2.087890625) (1.5503617286682128e-05, 2.08984375) (1.5228105545043944e-05, 2.091796875) (1.497270107269287e-05, 2.09375) (1.473517608642578e-05, 2.095703125) (1.4512136459350585e-05, 2.09765625) (1.429837417602539e-05, 2.099609375) (1.4089155197143555e-05, 2.1015625) (1.3881293296813965e-05, 2.103515625) (1.3671085357666016e-05, 2.10546875) (1.3453628540039062e-05, 2.107421875) (1.3224987030029296e-05, 2.109375) (1.2981607437133789e-05, 2.111328125) (1.2723062515258788e-05, 2.11328125) (1.2453441619873047e-05, 2.115234375) (1.21724853515625e-05, 2.1171875) (1.1876443862915038e-05, 2.119140625) (1.1556447982788085e-05, 2.12109375) (1.1195265769958496e-05, 2.123046875) (1.0779541969299315e-05, 2.125) (1.0301269531249999e-05, 2.126953125) (9.754557609558105e-06, 2.12890625) (9.13855743408203e-06, 2.130859375) (8.456798553466796e-06, 2.1328125) (7.715685844421386e-06, 2.134765625) (6.93305778503418e-06, 2.13671875) (6.139650821685791e-06, 2.138671875) (5.364112377166748e-06, 2.140625) (4.634278774261474e-06, 2.142578125) (3.970431804656982e-06, 2.14453125) (3.383859872817993e-06, 2.146484375) (2.8968241214752195e-06, 2.1484375) (2.533865928649902e-06, 2.150390625) (2.3256070613861084e-06, 2.15234375) (2.313145637512207e-06, 2.154296875) (2.52429723739624e-06, 2.15625) (2.97939658164978e-06, 2.158203125) (3.6889283657073973e-06, 2.16015625) (4.636488914489746e-06, 2.162109375) (5.791964530944824e-06, 2.1640625) (7.114283561706543e-06, 2.166015625) (8.537508964538573e-06, 2.16796875) (9.986919403076172e-06, 2.169921875) (1.137639045715332e-05, 2.171875) (1.2590200424194336e-05, 2.173828125) (1.3526737213134765e-05, 2.17578125) (1.40931339263916e-05, 2.177734375) (1.417932891845703e-05, 2.1796875) (1.3721719741821289e-05, 2.181640625) (1.2619316101074217e-05, 2.18359375) (1.0697184562683105e-05, 2.185546875) (7.927687644958496e-06, 2.1875) (4.392330169677734e-06, 2.189453125) (2.6440584659576416e-07, 2.19140625) (-4.054502964019775e-06, 2.193359375) (-8.196243286132812e-06, 2.1953125) (-1.1955540657043456e-05, 2.197265625) (-1.494971466064453e-05, 2.19921875) (-1.6702905654907226e-05, 2.201171875) (-1.7136035919189454e-05, 2.203125) (-1.6358158111572264e-05, 2.205078125) (-1.4787630081176757e-05, 2.20703125) (-1.3428491592407226e-05, 2.208984375) (-1.2999906539916992e-05, 2.2109375) (-1.386423873901367e-05, 2.212890625) (-1.664632797241211e-05, 2.21484375) (-2.1786733627319336e-05, 2.216796875) (-2.8886222839355466e-05, 2.21875) (-3.706211853027344e-05, 2.220703125) (-4.484249877929687e-05, 2.22265625) (-4.992261505126953e-05, 2.224609375) (-5.0200283050537104e-05, 2.2265625) (-4.371327590942383e-05, 2.228515625) (-2.8068996429443357e-05, 2.23046875) (-1.2285175323486327e-06, 2.232421875) (3.646822738647461e-05, 2.234375) (8.269937133789061e-05, 2.236328125) (0.00013523719787597656, 2.23828125) (0.00019187210083007811, 2.240234375) (0.0002531566619873047, 2.2421875) (0.0003211220703125, 2.244140625) (0.00039289715576171875, 2.24609375) (0.0004603980102539062, 2.248046875) (0.0005107208251953125, 2.25) (0.0005304799194335938, 2.251953125) (0.000513662109375, 2.25390625) (0.0004635467834472656, 2.255859375) (0.00039271066284179686, 2.2578125) (0.00031492108154296874, 2.259765625) (0.00023739849853515624, 2.26171875) (0.0001630247039794922, 2.263671875) (8.796541595458984e-05, 2.265625) (9.265117645263672e-06, 2.267578125) (-6.58530044555664e-05, 2.26953125) (-0.00013012448120117186, 2.271484375) (-0.00017585641479492186, 2.2734375) (-0.00019680621337890623, 2.275390625) (-0.00019814323425292968, 2.27734375) (-0.00018553639221191405, 2.279296875) (-0.00016356658935546875, 2.28125) (-0.00013890882873535156, 2.283203125) (-0.00011313803100585937, 2.28515625) (-8.798911285400391e-05, 2.287109375) (-6.593209838867188e-05, 2.2890625) (-4.70532112121582e-05, 2.291015625) (-3.288256072998047e-05, 2.29296875) (-2.4715917587280273e-05, 2.294921875) (-2.2586822509765623e-05, 2.296875) (-2.6149566650390625e-05, 2.298828125) (-3.3292724609375e-05, 2.30078125) (-4.110280609130859e-05, 2.302734375) (-4.7949264526367185e-05, 2.3046875) (-5.312195205688476e-05, 2.306640625) (-5.6360363006591795e-05, 2.30859375) (-5.7620964050292965e-05, 2.310546875) (-5.650603866577148e-05, 2.3125) (-5.287960815429687e-05, 2.314453125) (-4.752918243408203e-05, 2.31640625) (-4.1793167114257814e-05, 2.318359375) (-3.661248016357422e-05, 2.3203125) (-3.238020706176758e-05, 2.322265625) (-2.9135490417480468e-05, 2.32421875) (-2.674550437927246e-05, 2.326171875) (-2.5339836120605467e-05, 2.328125) (-2.5054161071777343e-05, 2.330078125) (-2.5654090881347656e-05, 2.33203125) (-2.66558837890625e-05, 2.333984375) (-2.7620798110961912e-05, 2.3359375) (-2.826957321166992e-05, 2.337890625) (-2.853544235229492e-05, 2.33984375) (-2.84892635345459e-05, 2.341796875) (-2.8109672546386717e-05, 2.34375) (-2.733937072753906e-05, 2.345703125) (-2.6179929733276367e-05, 2.34765625) (-2.466916275024414e-05, 2.349609375) (-2.288954544067383e-05, 2.3515625) (-2.0928775787353513e-05, 2.353515625) (-1.8822513580322266e-05, 2.35546875) (-1.657444381713867e-05, 2.357421875) (-1.4197649955749511e-05, 2.359375) (-1.1715611457824706e-05, 2.361328125) (-9.172534942626953e-06, 2.36328125) (-6.628040313720703e-06, 2.365234375) (-4.134854316711425e-06, 2.3671875) (-1.7405931949615478e-06, 2.369140625) (5.218055844306946e-07, 2.37109375) (2.6360278129577634e-06, 2.373046875) (4.588119029998779e-06, 2.375) (6.367942810058593e-06, 2.376953125) (7.969898223876953e-06, 2.37890625) (9.389575958251953e-06, 2.380859375) (1.0635061264038085e-05, 2.3828125) (1.1725744247436522e-05, 2.384765625) (1.2676191329956055e-05, 2.38671875) (1.3496927261352538e-05, 2.388671875) (1.4196961402893066e-05, 2.390625) (1.4784609794616699e-05, 2.392578125) (1.5276387214660645e-05, 2.39453125) (1.5696701049804688e-05, 2.396484375) (1.6068668365478515e-05, 2.3984375) (1.641246795654297e-05, 2.400390625) (1.6745719909667967e-05, 2.40234375) (1.7083133697509764e-05, 2.404296875) (1.744069480895996e-05, 2.40625) (1.7835941314697265e-05, 2.408203125) (1.828462219238281e-05, 2.41015625) (1.8800743103027344e-05, 2.412109375) (1.9396366119384764e-05, 2.4140625) (2.0082157135009765e-05, 2.416015625) (2.0870349884033203e-05, 2.41796875) (2.1774578094482422e-05, 2.419921875) (2.2807859420776366e-05, 2.421875) (2.3981815338134766e-05, 2.423828125) (2.5306087493896485e-05, 2.42578125) (2.678826904296875e-05, 2.427734375) (2.8435184478759764e-05, 2.4296875) (3.0252925872802733e-05, 2.431640625) (3.22454719543457e-05, 2.43359375) (3.4414588928222656e-05, 2.435546875) (3.6760013580322265e-05, 2.4375) (3.927956008911133e-05, 2.439453125) (4.196957778930664e-05, 2.44140625) (4.4825027465820314e-05, 2.443359375) (4.783889007568359e-05, 2.4453125) (5.1001983642578124e-05, 2.447265625) (5.430333709716797e-05, 2.44921875) (5.77303466796875e-05, 2.451171875) (6.126877212524414e-05, 2.453125) (6.490300750732421e-05, 2.455078125) (6.861599731445313e-05, 2.45703125) (7.238918304443359e-05, 2.458984375) (7.620297241210937e-05, 2.4609375) (8.003706359863281e-05, 2.462890625) (8.387026977539062e-05, 2.46484375) (8.768067932128905e-05, 2.466796875) (9.144579315185546e-05, 2.46875) (9.514247894287109e-05, 2.470703125) (9.874734497070312e-05, 2.47265625) (0.00010223702239990234, 2.474609375) (0.00010558815002441405, 2.4765625) (0.00010877755737304687, 2.478515625) (0.00011178244018554688, 2.48046875) (0.00011458053588867187, 2.482421875) (0.00011715051269531249, 2.484375) (0.00011947218322753905, 2.486328125) (0.00012152647399902344, 2.48828125) (0.00012329569244384764, 2.490234375) (0.00012476353454589844, 2.4921875) (0.0001259152374267578, 2.494140625) (0.00012673797607421874, 2.49609375) (0.0001272209014892578, 2.498046875) (0.00012735511779785155, 2.5) (0.00012713382720947266, 2.501953125) (0.00012655230712890625, 2.50390625) (0.0001256081085205078, 2.505859375) (0.0001243010711669922, 2.5078125) (0.00012263346099853514, 2.509765625) (0.0001206096954345703, 2.51171875) (0.00011823637390136718, 2.513671875) (0.00011552214813232422, 2.515625) (0.00011247764587402343, 2.517578125) (0.00010911534881591796, 2.51953125) (0.00010544949340820312, 2.521484375) (0.00010149585723876953, 2.5234375) (9.7271484375e-05, 2.525390625) (9.279479980468749e-05, 2.52734375) (8.808540344238281e-05, 2.529296875) (8.316392517089843e-05, 2.53125) (7.80519790649414e-05, 2.533203125) (7.277202606201172e-05, 2.53515625) (6.73472442626953e-05, 2.537109375) (6.180134201049805e-05, 2.5390625) (5.615849304199218e-05, 2.541015625) (5.044288635253906e-05, 2.54296875) (4.4678321838378906e-05, 2.544921875) (3.888873291015625e-05, 2.546875) (3.3098049163818355e-05, 2.548828125) (2.7329273223876953e-05, 2.55078125) (2.1604820251464842e-05, 2.552734375) (1.5945667266845704e-05, 2.5546875) (1.0370289802551269e-05, 2.556640625) (4.898828506469727e-06, 2.55859375) (-4.4652533531188964e-07, 2.560546875) (-5.646506309509277e-06, 2.5625) (-1.068394660949707e-05, 2.564453125) (-1.554438018798828e-05, 2.56640625) (-2.0219768524169922e-05, 2.568359375) (-2.4698646545410156e-05, 2.5703125) (-2.8962057113647458e-05, 2.572265625) (-3.300704193115234e-05, 2.57421875) (-3.684648132324219e-05, 2.576171875) (-4.0490627288818356e-05, 2.578125) (-4.3953891754150385e-05, 2.580078125) (-4.723799133300781e-05, 2.58203125) (-5.0317165374755854e-05, 2.583984375) (-5.318876266479492e-05, 2.5859375) (-5.588594055175781e-05, 2.587890625) (-5.8395996093749997e-05, 2.58984375) (-6.0662769317626954e-05, 2.591796875) (-6.264583206176757e-05, 2.59375) (-6.430046844482422e-05, 2.595703125) (-6.562696838378906e-05, 2.59765625) (-6.671446990966797e-05, 2.599609375) (-6.760116577148437e-05, 2.6015625) (-6.821467590332031e-05, 2.603515625) (-6.864385986328124e-05, 2.60546875) (-6.920757293701172e-05, 2.607421875) (-6.999701690673827e-05, 2.609375) (-7.092732238769531e-05, 2.611328125) (-7.204963684082031e-05, 2.61328125) (-7.306529998779297e-05, 2.615234375) (-7.453075408935546e-05, 2.6171875) (-7.837402343749999e-05, 2.619140625) (-8.431237792968749e-05, 2.62109375) (-9.054947662353516e-05, 2.623046875) (-9.430575561523438e-05, 2.625) (-9.016361236572265e-05, 2.626953125) (-7.814022827148438e-05, 2.62890625) (-6.37712059020996e-05, 2.630859375) (-5.24598159790039e-05, 2.6328125) (-5.189063262939453e-05, 2.634765625) (-6.299690628051757e-05, 2.63671875) (-7.842826843261719e-05, 2.638671875) (-9.247198486328125e-05, 2.640625) (-9.909514617919921e-05, 2.642578125) (-9.68915557861328e-05, 2.64453125) (-9.133204650878906e-05, 2.646484375) (-8.588668823242187e-05, 2.6484375) (-8.279106903076171e-05, 2.650390625) (-8.287457275390624e-05, 2.65234375) (-8.39152374267578e-05, 2.654296875) (-8.481788635253906e-05, 2.65625) (-8.56736602783203e-05, 2.658203125) (-8.63869400024414e-05, 2.66015625) (-8.727984619140624e-05, 2.662109375) (-8.845307922363281e-05, 2.6640625) (-8.959786987304687e-05, 2.666015625) (-9.060885620117188e-05, 2.66796875) (-9.153410339355469e-05, 2.669921875) (-9.236163330078125e-05, 2.671875) (-9.307167816162109e-05, 2.673828125) (-9.367079162597655e-05, 2.67578125) (-9.416772460937499e-05, 2.677734375) (-9.458515167236327e-05, 2.6796875) (-9.497061157226562e-05, 2.681640625) (-9.533850860595702e-05, 2.68359375) (-9.566187286376952e-05, 2.685546875) (-9.592988586425781e-05, 2.6875) (-9.61438980102539e-05, 2.689453125) (-9.630170440673827e-05, 2.69140625) (-9.640507507324219e-05, 2.693359375) (-9.64530258178711e-05, 2.6953125) (-9.643936157226562e-05, 2.697265625) (-9.636367797851563e-05, 2.69921875) (-9.623140716552734e-05, 2.701171875) (-9.604670715332031e-05, 2.703125) (-9.581329345703124e-05, 2.705078125) (-9.553499603271484e-05, 2.70703125) (-9.521527099609375e-05, 2.708984375) (-9.485860443115234e-05, 2.7109375) (-9.447028350830077e-05, 2.712890625) (-9.40557403564453e-05, 2.71484375) (-9.36205825805664e-05, 2.716796875) (-9.317033386230468e-05, 2.71875) (-9.271075439453124e-05, 2.720703125) (-9.22476577758789e-05, 2.72265625) (-9.17863540649414e-05, 2.724609375) (-9.13319854736328e-05, 2.7265625) (-9.088945770263671e-05, 2.728515625) (-9.046316528320312e-05, 2.73046875) (-9.005744934082031e-05, 2.732421875) (-8.96764678955078e-05, 2.734375) (-8.932379150390625e-05, 2.736328125) (-8.900295257568359e-05, 2.73828125) (-8.871743011474609e-05, 2.740234375) (-8.847027587890625e-05, 2.7421875) (-8.82647476196289e-05, 2.744140625) (-8.810413360595702e-05, 2.74609375) (-8.79910430908203e-05, 2.748046875) (-8.792789459228515e-05, 2.75) (-8.791693878173828e-05, 2.751953125) (-8.795965576171875e-05, 2.75390625) (-8.805754089355468e-05, 2.755859375) (-8.821212768554687e-05, 2.7578125) (-8.842379760742187e-05, 2.759765625) (-8.869248962402344e-05, 2.76171875) (-8.901876068115234e-05, 2.763671875) (-8.940319061279296e-05, 2.765625) (-8.984725189208984e-05, 2.767578125) (-9.035369873046874e-05, 2.76953125) (-9.092436218261719e-05, 2.771484375) (-9.156045532226562e-05, 2.7734375) (-9.226420593261719e-05, 2.775390625) (-9.303755950927734e-05, 2.77734375) (-9.388172149658202e-05, 2.779296875) (-9.479752349853515e-05, 2.78125) (-9.57830810546875e-05, 2.783203125) (-9.683444213867187e-05, 2.78515625) (-9.794911193847656e-05, 2.787109375) (-9.912557983398437e-05, 2.7890625) (-0.0001003631362915039, 2.791015625) (-0.00010166217041015625, 2.79296875) (-0.0001030216827392578, 2.794921875) (-0.00010443930053710937, 2.796875) (-0.00010591415405273437, 2.798828125) (-0.00010744486999511718, 2.80078125) (-0.00010902796173095702, 2.802734375) (-0.00011065980529785155, 2.8046875) (-0.00011233236694335937, 2.806640625) (-0.00011403424072265624, 2.80859375) (-0.00011575890350341797, 2.810546875) (-0.0001175032958984375, 2.8125) (-0.00011926982116699218, 2.814453125) (-0.00012106915283203124, 2.81640625) (-0.00012290959930419922, 2.818359375) (-0.00012479254150390626, 2.8203125) (-0.00012671825408935546, 2.822265625) (-0.00012868531799316405, 2.82421875) (-0.00013068634033203125, 2.826171875) (-0.0001327120666503906, 2.828125) (-0.00013474346923828125, 2.830078125) (-0.00013674797058105468, 2.83203125) (-0.00013869801330566406, 2.833984375) (-0.00014057006835937498, 2.8359375) (-0.00014234388732910157, 2.837890625) (-0.0001440084228515625, 2.83984375) (-0.0001455459289550781, 2.841796875) (-0.0001469288330078125, 2.84375) (-0.00014812411499023437, 2.845703125) (-0.00014908871459960938, 2.84765625) (-0.0001497796936035156, 2.849609375) (-0.00015017593383789062, 2.8515625) (-0.00015027667236328123, 2.853515625) (-0.00015008471679687498, 2.85546875) (-0.00014962159729003905, 2.857421875) (-0.0001489119415283203, 2.859375) (-0.00014798280334472655, 2.861328125) (-0.00014690856933593748, 2.86328125) (-0.00014577151489257812, 2.865234375) (-0.00014463909912109375, 2.8671875) (-0.00014357919311523438, 2.869140625) (-0.00014264308166503907, 2.87109375) (-0.00014188073730468748, 2.873046875) (-0.00014141082763671875, 2.875) (-0.00014141317749023438, 2.876953125) (-0.00014198486328124998, 2.87890625) (-0.00014316128540039062, 2.880859375) (-0.00014488070678710937, 2.8828125) (-0.00014687854003906249, 2.884765625) (-0.00014887899780273436, 2.88671875) (-0.0001506122283935547, 2.888671875) (-0.00015164244079589844, 2.890625) (-0.00015149609375, 2.892578125) (-0.00014999491882324218, 2.89453125) (-0.00014712879943847655, 2.896484375) (-0.0001431031494140625, 2.8984375) (-0.00013884121704101562, 2.900390625) (-0.00013542596435546874, 2.90234375) (-0.00013388363647460938, 2.904296875) (-0.0001357165985107422, 2.90625) (-0.0001410528564453125, 2.908203125) (-0.0001480291748046875, 2.91015625) (-0.00015521418762207031, 2.912109375) (-0.00016098352050781248, 2.9140625) (-0.00016618026733398436, 2.916015625) (-0.000175480712890625, 2.91796875) (-0.00018966146850585936, 2.919921875) (-0.0002059751281738281, 2.921875) (-0.0002159280242919922, 2.923828125) (-0.0002039668731689453, 2.92578125) (-0.00016099064636230468, 2.927734375) (-8.394749450683594e-05, 2.9296875) (2.1889081954956053e-05, 2.931640625) (0.00013862301635742186, 2.93359375) (0.00024918356323242185, 2.935546875) (0.00033727127075195313, 2.9375) (0.00039072387695312496, 2.939453125) (0.0004097142333984375, 2.94140625) (0.0003992201538085937, 2.943359375) (0.00036818377685546874, 2.9453125) (0.000325830078125, 2.947265625) (0.0002752760009765625, 2.94921875) (0.0002167521057128906, 2.951171875) (0.00014886351013183592, 2.953125) (7.181907653808594e-05, 2.955078125) (-1.053813362121582e-05, 2.95703125) (-9.281358337402344e-05, 2.958984375) (-0.00016867315673828125, 2.9609375) (-0.00023309063720703123, 2.962890625) (-0.0002832923583984375, 2.96484375) (-0.00031815341186523436, 2.966796875) (-0.0003380387268066406, 2.96875) (-0.00034417047119140624, 2.970703125) (-0.00033813818359375, 2.97265625) (-0.0003217672424316406, 2.974609375) (-0.0002976035766601562, 2.9765625) (-0.000269063232421875, 2.978515625) (-0.00023958776855468748, 2.98046875) (-0.0002118834228515625, 2.982421875) (-0.00018804998779296873, 2.984375) (-0.00016919268798828123, 2.986328125) (-0.00015581541442871092, 2.98828125) (-0.00014861967468261718, 2.990234375) (-0.0001475833740234375, 2.9921875) (-0.00015151135253906248, 2.994140625) (-0.00015883551025390623, 2.99609375) (-0.00016792172241210937, 2.998046875) (-0.00017705404663085936, 3.0) (-0.00018532080078124998, 3.001953125) (-0.00019220205688476563, 3.00390625) (-0.00019679417419433593, 3.005859375) (-0.0001986818389892578, 3.0078125) (-0.0001981024169921875, 3.009765625) (-0.0001955106506347656, 3.01171875) (-0.00019177523803710938, 3.013671875) (-0.00018797276306152343, 3.015625) (-0.00018458409118652343, 3.017578125) (-0.00018183123779296875, 3.01953125) (-0.00018008380126953124, 3.021484375) (-0.0001794112854003906, 3.0234375) (-0.00017975711059570312, 3.025390625) (-0.00018103424072265625, 3.02734375) (-0.00018281625366210936, 3.029296875) (-0.000184592041015625, 3.03125) (-0.00018613017272949218, 3.033203125) (-0.00018731759643554686, 3.03515625) (-0.00018809835815429687, 3.037109375) (-0.00018854458618164062, 3.0390625) (-0.00018866693115234375, 3.041015625) (-0.00018844885253906248, 3.04296875) (-0.0001879856719970703, 3.044921875) (-0.00018738255310058594, 3.046875) (-0.0001867096252441406, 3.048828125) (-0.00018602374267578123, 3.05078125) (-0.0001853307189941406, 3.052734375) (-0.00018461846923828123, 3.0546875) (-0.00018391018676757812, 3.056640625) (-0.00018324659729003904, 3.05859375) (-0.00018267640686035156, 3.060546875) (-0.00018224182128906248, 3.0625) (-0.00018195758056640624, 3.064453125) (-0.0001818246612548828, 3.06640625) (-0.00018183992004394532, 3.068359375) (-0.00018199430847167967, 3.0703125) (-0.00018228234863281248, 3.072265625) (-0.00018269314575195312, 3.07421875) (-0.0001832016143798828, 3.076171875) (-0.0001837861328125, 3.078125) (-0.00018442739868164063, 3.080078125) (-0.00018510586547851562, 3.08203125) (-0.00018580923461914063, 3.083984375) (-0.0001865205841064453, 3.0859375) (-0.00018721359252929688, 3.087890625) (-0.00018785980224609374, 3.08984375) (-0.00018842762756347654, 3.091796875) (-0.00018888461303710936, 3.09375) (-0.00018920394897460935, 3.095703125) (-0.00018936100769042968, 3.09765625) (-0.00018933099365234373, 3.099609375) (-0.0001890921630859375, 3.1015625) (-0.00018862393188476563, 3.103515625) (-0.000187906982421875, 3.10546875) (-0.00018692547607421873, 3.107421875) (-0.00018566325378417968, 3.109375) (-0.0001841032257080078, 3.111328125) (-0.00018222947692871094, 3.11328125) (-0.00018002685546875, 3.115234375) (-0.00017748239135742186, 3.1171875) (-0.0001745863800048828, 3.119140625) (-0.000171331298828125, 3.12109375) (-0.00016771194458007813, 3.123046875) (-0.00016372642517089843, 3.125) (-0.00015937577819824219, 3.126953125) (-0.00015466342163085936, 3.12890625) (-0.00014959547424316406, 3.130859375) (-0.00014418017578124998, 3.1328125) (-0.0001384276123046875, 3.134765625) (-0.00013235044860839844, 3.13671875) (-0.00012596387481689453, 3.138671875) (-0.00011928530120849609, 3.140625) (-0.00011233457183837891, 3.142578125) (-0.00010513397216796875, 3.14453125) (-9.770799255371094e-05, 3.146484375) (-9.008346557617187e-05, 3.1484375) (-8.228968048095702e-05, 3.150390625) (-7.435792541503905e-05, 3.15234375) (-6.632098388671875e-05, 3.154296875) (-5.821327972412109e-05, 3.15625) (-5.007050323486328e-05, 3.158203125) (-4.1929443359374995e-05, 3.16015625) (-3.3827934265136716e-05, 3.162109375) (-2.5804443359375e-05, 3.1640625) (-1.7897600173950196e-05, 3.166015625) (-1.0146148681640624e-05, 3.16796875) (-2.5886762142181396e-06, 3.169921875) (4.736633777618408e-06, 3.171875) (1.1792175292968749e-05, 3.173828125) (1.8541385650634766e-05, 3.17578125) (2.494911956787109e-05, 3.177734375) (3.098172378540039e-05, 3.1796875) (3.660729598999023e-05, 3.181640625) (4.179582977294922e-05, 3.18359375) (4.651932907104492e-05, 3.185546875) (5.075221252441406e-05, 3.1875) (5.447145843505859e-05, 3.189453125) (5.7656547546386715e-05, 3.19140625) (6.028960418701172e-05, 3.193359375) (6.235543060302734e-05, 3.1953125) (6.38415412902832e-05, 3.197265625) (6.47384033203125e-05, 3.19921875) (6.503959655761719e-05, 3.201171875) (6.474168395996093e-05, 3.203125) (6.384434509277343e-05, 3.205078125) (6.23504180908203e-05, 3.20703125) (6.026589202880859e-05, 3.208984375) (5.760001754760742e-05, 3.2109375) (5.436537551879883e-05, 3.212890625) (5.057771301269531e-05, 3.21484375) (4.625590133666992e-05, 3.216796875) (4.14218635559082e-05, 3.21875) (3.61004524230957e-05, 3.220703125) (3.0319395065307615e-05, 3.22265625) (2.4109134674072264e-05, 3.224609375) (1.7502647399902343e-05, 3.2265625) (1.0535181999206543e-05, 3.228515625) (3.2440247535705564e-06, 3.23046875) (-4.331737518310546e-06, 3.232421875) (-1.2151439666748046e-05, 3.234375) (-2.0173084259033203e-05, 3.236328125) (-2.8353637695312497e-05, 3.23828125) (-3.6649291992187496e-05, 3.240234375) (-4.501569366455078e-05, 3.2421875) (-5.340817260742187e-05, 3.244140625) (-6.178195190429687e-05, 3.24609375) (-7.009230041503906e-05, 3.248046875) (-7.829486083984375e-05, 3.25) (-8.63458251953125e-05, 3.251953125) (-9.420216369628906e-05, 3.25390625) (-0.0001018218765258789, 3.255859375) (-0.00010916412353515624, 3.2578125) (-0.00011618947601318359, 3.259765625) (-0.00012286009979248046, 3.26171875) (-0.00012913998413085936, 3.263671875) (-0.00013499510192871092, 3.265625) (-0.00014039360046386718, 3.267578125) (-0.00014530596923828125, 3.26953125) (-0.00014970516967773438, 3.271484375) (-0.00015356689453125, 3.2734375) (-0.00015686972045898437, 3.275390625) (-0.00015959532165527344, 3.27734375) (-0.0001617285614013672, 3.279296875) (-0.00016325762939453124, 3.28125) (-0.000164174072265625, 3.283203125) (-0.0001644728088378906, 3.28515625) (-0.00016415228271484373, 3.287109375) (-0.00016321429443359373, 3.2890625) (-0.0001616639709472656, 3.291015625) (-0.0001595096435546875, 3.29296875) (-0.00015676271057128905, 3.294921875) (-0.0001534375457763672, 3.296875) (-0.0001495514678955078, 3.298828125) (-0.00014512474060058593, 3.30078125) (-0.00014018020629882812, 3.302734375) (-0.000134743408203125, 3.3046875) (-0.00012884202575683592, 3.306640625) (-0.00012250559997558594, 3.30859375) (-0.00011576605224609374, 3.310546875) (-0.00010865751647949218, 3.3125) (-0.00010121531677246094, 3.314453125) (-9.347619628906249e-05, 3.31640625) (-8.547734069824218e-05, 3.318359375) (-7.725526428222656e-05, 3.3203125) (-6.885016632080078e-05, 3.322265625) (-6.0306068420410154e-05, 3.32421875) (-5.166579055786133e-05, 3.326171875) (-4.297168350219726e-05, 3.328125) (-3.426488494873047e-05, 3.330078125) (-2.5581480026245117e-05, 3.33203125) (-1.696252632141113e-05, 3.333984375) (-8.45776081085205e-06, 3.3359375) (-1.0117816925048827e-07, 3.337890625) (8.08872127532959e-06, 3.33984375) (1.6090648651123045e-05, 3.341796875) (2.3887796401977538e-05, 3.34375) (3.145056915283203e-05, 3.345703125) (3.8722183227539064e-05, 3.34765625) (4.5670951843261716e-05, 3.349609375) (5.2302543640136714e-05, 3.3515625) (5.8576530456542965e-05, 3.353515625) (6.441042327880858e-05, 3.35546875) (6.973940277099608e-05, 3.357421875) (7.449584197998047e-05, 3.359375) (7.866098022460938e-05, 3.361328125) (8.230854034423828e-05, 3.36328125) (8.5461181640625e-05, 3.365234375) (8.8031982421875e-05, 3.3671875) (9.010387420654296e-05, 3.369140625) (9.199482727050781e-05, 3.37109375) (9.37893829345703e-05, 3.373046875) (9.539982604980469e-05, 3.375) (9.687864685058593e-05, 3.376953125) (9.791851806640624e-05, 3.37890625) (9.91090087890625e-05, 3.380859375) (0.0001024242935180664, 3.3828125) (0.00010755628204345703, 3.384765625) (0.00011269606018066406, 3.38671875) (0.0001149955596923828, 3.388671875) (0.00010893746948242187, 3.390625) (9.463824462890624e-05, 3.392578125) (7.775392150878906e-05, 3.39453125) (6.38351707458496e-05, 3.396484375) (6.076423645019531e-05, 3.3984375) (6.941297912597656e-05, 3.400390625) (8.23170928955078e-05, 3.40234375) (9.369003295898437e-05, 3.404296875) (9.738658142089844e-05, 3.40625) (9.208506774902343e-05, 3.408203125) (8.339884185791016e-05, 3.41015625) (7.487187957763671e-05, 3.412109375) (6.882913208007812e-05, 3.4140625) (6.611273193359375e-05, 3.416015625) (6.448079681396485e-05, 3.41796875) (6.286266326904297e-05, 3.419921875) (6.137296295166015e-05, 3.421875) (5.994247436523437e-05, 3.423828125) (5.8925373077392577e-05, 3.42578125) (5.844049835205078e-05, 3.427734375) (5.819250869750976e-05, 3.4296875) (5.809332275390625e-05, 3.431640625) (5.820661926269531e-05, 3.43359375) (5.8532951354980466e-05, 3.435546875) (5.906330108642578e-05, 3.4375) (5.9813392639160156e-05, 3.439453125) (6.0799102783203124e-05, 3.44140625) (6.204875946044921e-05, 3.443359375) (6.3614013671875e-05, 3.4453125) (6.551012420654296e-05, 3.447265625) (6.770838928222655e-05, 3.44921875) (7.019461059570312e-05, 3.451171875) (7.296458435058593e-05, 3.453125) (7.600832366943359e-05, 3.455078125) (7.931806945800782e-05, 3.45703125) (8.288156127929687e-05, 3.458984375) (8.667953491210937e-05, 3.4609375) (9.069723510742187e-05, 3.462890625) (9.49246826171875e-05, 3.46484375) (9.934963989257812e-05, 3.466796875) (0.0001039587173461914, 3.46875) (0.00010873825073242187, 3.470703125) (0.00011367330169677734, 3.47265625) (0.0001187493438720703, 3.474609375) (0.00012395246124267576, 3.4765625) (0.00012926869201660156, 3.478515625) (0.0001346843566894531, 3.48046875) (0.00014018624877929688, 3.482421875) (0.00014576171875, 3.484375) (0.00015139889526367186, 3.486328125) (0.000157086669921875, 3.48828125) (0.00016281491088867187, 3.490234375) (0.0001685744171142578, 3.4921875) (0.0001743568878173828, 3.494140625) (0.00018015463256835937, 3.49609375) (0.0001859607238769531, 3.498046875) (0.00019176876831054687, 3.5) (0.00019757293701171873, 3.501953125) (0.00020336791992187498, 3.50390625) (0.00020914903259277342, 3.505859375) (0.000214912109375, 3.5078125) (0.00022065365600585938, 3.509765625) (0.00022637063598632813, 3.51171875) (0.00023206065368652342, 3.513671875) (0.0002377218017578125, 3.515625) (0.00024335258483886718, 3.517578125) (0.00024895159912109374, 3.51953125) (0.00025451742553710935, 3.521484375) (0.0002600485534667969, 3.5234375) (0.00026554327392578123, 3.525390625) (0.0002709996337890625, 3.52734375) (0.00027641534423828123, 3.529296875) (0.0002817879333496094, 3.53125) (0.00028711447143554684, 3.533203125) (0.00029239205932617184, 3.53515625) (0.0002976174926757812, 3.537109375) (0.0003027872924804687, 3.5390625) (0.0003078978271484375, 3.541015625) (0.0003129450073242187, 3.54296875) (0.0003179241027832031, 3.544921875) (0.0003228300170898437, 3.546875) (0.0003276569213867187, 3.548828125) (0.0003323983154296875, 3.55078125) (0.0003370472412109375, 3.552734375) (0.00034159600830078123, 3.5546875) (0.00034603662109375, 3.556640625) (0.0003503608703613281, 3.55859375) (0.00035456030273437497, 3.560546875) (0.00035862640380859373, 3.5625) (0.0003625507202148437, 3.564453125) (0.00036632467651367186, 3.56640625) (0.00036993969726562497, 3.568359375) (0.0003733873291015625, 3.5703125) (0.0003766592102050781, 3.572265625) (0.0003797469482421875, 3.57421875) (0.00038264242553710933, 3.576171875) (0.000385337890625, 3.578125) (0.0003878259887695312, 3.580078125) (0.00039010003662109374, 3.58203125) (0.000392154296875, 3.583984375) (0.00039398382568359375, 3.5859375) (0.00039558459472656247, 3.587890625) (0.0003969535522460937, 3.58984375) (0.00039808859252929684, 3.591796875) (0.0003989884033203125, 3.59375) (0.0003996525573730469, 3.595703125) (0.00040008123779296874, 3.59765625) (0.00040027548217773433, 3.599609375) (0.00040023687744140626, 3.6015625) (0.0003999678955078125, 3.603515625) (0.00039947186279296873, 3.60546875) (0.0003987529296875, 3.607421875) (0.0003978161926269531, 3.609375) (0.0003966676025390625, 3.611328125) (0.0003953140869140625, 3.61328125) (0.00039376318359375, 3.615234375) (0.00039202337646484375, 3.6171875) (0.000390103515625, 3.619140625) (0.00038801312255859374, 3.62109375) (0.00038576196289062496, 3.623046875) (0.0003833602294921875, 3.625) (0.000380818603515625, 3.626953125) (0.00037814807128906246, 3.62890625) (0.0003753600769042969, 3.630859375) (0.00037246624755859375, 3.6328125) (0.00036947845458984376, 3.634765625) (0.000366408935546875, 3.63671875) (0.0003632698669433594, 3.638671875) (0.0003600733032226562, 3.640625) (0.00035683105468749997, 3.642578125) (0.0003535544738769531, 3.64453125) (0.0003502542419433594, 3.646484375) (0.00034694049072265626, 3.6484375) (0.00034362298583984376, 3.650390625) (0.00034031072998046873, 3.65234375) (0.0003370121765136719, 3.654296875) (0.0003337352600097656, 3.65625) (0.000330487548828125, 3.658203125) (0.0003272763671875, 3.66015625) (0.0003241087951660156, 3.662109375) (0.00032099166870117187, 3.6640625) (0.0003179310607910156, 3.666015625) (0.00031493264770507813, 3.66796875) (0.00031200167846679686, 3.669921875) (0.0003091429443359375, 3.671875) (0.0003063608093261719, 3.673828125) (0.0003036593017578125, 3.67578125) (0.0003010416870117187, 3.677734375) (0.00029851107788085937, 3.6796875) (0.0002960701904296875, 3.681640625) (0.0002937217407226562, 3.68359375) (0.00029146795654296875, 3.685546875) (0.00028931072998046874, 3.6875) (0.0002872512512207031, 3.689453125) (0.00028529013061523434, 3.69140625) (0.000283427490234375, 3.693359375) (0.00028166326904296876, 3.6953125) (0.00027999658203125, 3.697265625) (0.000278426025390625, 3.69921875) (0.00027694970703125, 3.701171875) (0.00027556527709960934, 3.703125) (0.00027427066040039064, 3.705078125) (0.00027306390380859376, 3.70703125) (0.00027194308471679686, 3.708984375) (0.00027090594482421875, 3.7109375) (0.00026995004272460936, 3.712890625) (0.00026907269287109375, 3.71484375) (0.0002682718505859375, 3.716796875) (0.00026754516601562497, 3.71875) (0.00026688946533203123, 3.720703125) (0.000266300537109375, 3.72265625) (0.00026577264404296875, 3.724609375) (0.0002652994689941406, 3.7265625) (0.00026487506103515623, 3.728515625) (0.00026449322509765626, 3.73046875) (0.0002641463623046875, 3.732421875) (0.00026382699584960936, 3.734375) (0.0002635276489257812, 3.736328125) (0.0002632410888671875, 3.73828125) (0.00026296252441406246, 3.740234375) (0.0002626874084472656, 3.7421875) (0.00026240960693359373, 3.744140625) (0.00026212222290039063, 3.74609375) (0.000261817626953125, 3.748046875) (0.000261487060546875, 3.75) (0.00026112319946289064, 3.751953125) (0.0002607192687988281, 3.75390625) (0.0002602668151855469, 3.755859375) (0.0002597580261230469, 3.7578125) (0.0002591861572265625, 3.759765625) (0.00025854608154296874, 3.76171875) (0.0002578369140625, 3.763671875) (0.00025705621337890626, 3.765625) (0.00025619796752929686, 3.767578125) (0.00025525277709960935, 3.76953125) (0.0002542051544189453, 3.771484375) (0.00025303944396972653, 3.7734375) (0.00025174447631835936, 3.775390625) (0.00025031011962890624, 3.77734375) (0.0002487283020019531, 3.779296875) (0.0002469991455078125, 3.78125) (0.00024512684631347657, 3.783203125) (0.00024312443542480466, 3.78515625) (0.00024101835632324217, 3.787109375) (0.0002388346252441406, 3.7890625) (0.00023659735107421873, 3.791015625) (0.00023432687377929686, 3.79296875) (0.00023203724670410155, 3.794921875) (0.00022974755859374998, 3.796875) (0.00022748080444335938, 3.798828125) (0.00022526119995117187, 3.80078125) (0.00022311634826660155, 3.802734375) (0.0002210688781738281, 3.8046875) (0.0002191332092285156, 3.806640625) (0.00021732354736328125, 3.80859375) (0.00021563708496093748, 3.810546875) (0.00021403753662109374, 3.8125) (0.00021247169494628907, 3.814453125) (0.00021085479736328123, 3.81640625) (0.00020908554077148436, 3.818359375) (0.00020708229064941405, 3.8203125) (0.00020475193786621094, 3.822265625) (0.00020199346923828124, 3.82421875) (0.00019870870971679686, 3.826171875) (0.00019478518676757813, 3.828125) (0.00019014002990722656, 3.830078125) (0.00018474212646484375, 3.83203125) (0.00017852653503417967, 3.833984375) (0.00017140438842773437, 3.8359375) (0.00016334799194335937, 3.837890625) (0.00015438067626953126, 3.83984375) (0.00014470848083496094, 3.841796875) (0.00013471707153320313, 3.84375) (0.00012470855712890625, 3.845703125) (0.00011495100402832031, 3.84765625) (0.00010580555725097656, 3.849609375) (9.755525207519531e-05, 3.8515625) (9.039105224609375e-05, 3.853515625) (8.439566040039062e-05, 3.85546875) (7.91009521484375e-05, 3.857421875) (7.380464172363281e-05, 3.859375) (6.819646453857422e-05, 3.861328125) (6.179440307617187e-05, 3.86328125) (5.397908020019531e-05, 3.865234375) (4.472342300415039e-05, 3.8671875) (3.40405044555664e-05, 3.869140625) (2.3242210388183592e-05, 3.87109375) (1.612156295776367e-05, 3.873046875) (1.5594799041748047e-05, 3.875) (2.2421527862548828e-05, 3.876953125) (3.442421722412109e-05, 3.87890625) (4.5131317138671876e-05, 3.880859375) (5.009913635253906e-05, 3.8828125) (5.262981796264648e-05, 3.884765625) (6.265917205810547e-05, 3.88671875) (9.497511291503906e-05, 3.888671875) (0.0001604259033203125, 3.890625) (0.0002536576232910156, 3.892578125) (0.00035604852294921874, 3.89453125) (0.00044141906738281246, 3.896484375) (0.00048438522338867186, 3.8984375) (0.0004774252014160156, 3.900390625) (0.0004278589477539062, 3.90234375) (0.00035138995361328124, 3.904296875) (0.0002689716491699219, 3.90625) (0.0001912452392578125, 3.908203125) (0.00011989481353759765, 3.91015625) (5.3689254760742186e-05, 3.912109375) (-1.2496039390563965e-05, 3.9140625) (-7.903337097167969e-05, 3.916015625) (-0.00014121885681152343, 3.91796875) (-0.00019473641967773436, 3.919921875) (-0.00023578558349609375, 3.921875) (-0.00026321310424804687, 3.923828125) (-0.0002788252563476562, 3.92578125) (-0.0002850025939941406, 3.927734375) (-0.0002838736572265625, 3.9296875) (-0.00027763275146484373, 3.931640625) (-0.00026892965698242186, 3.93359375) (-0.00026038262939453126, 3.935546875) (-0.00025379415893554686, 3.9375) (-0.0002500776977539062, 3.939453125) (-0.0002492665100097656, 3.94140625) (-0.0002508609924316406, 3.943359375) (-0.00025442922973632813, 3.9453125) (-0.0002594076232910156, 3.947265625) (-0.00026471984863281247, 3.94921875) (-0.00026917608642578123, 3.951171875) (-0.00027207244873046874, 3.953125) (-0.0002731746520996094, 3.955078125) (-0.00027264175415039064, 3.95703125) (-0.0002708967590332031, 3.958984375) (-0.0002682966613769531, 3.9609375) (-0.0002651816711425781, 3.962890625) (-0.00026205450439453125, 3.96484375) (-0.00025940673828125, 3.966796875) (-0.0002575885009765625, 3.96875) (-0.00025700482177734373, 3.970703125) (-0.00025791796875, 3.97265625) (-0.00026019635009765624, 3.974609375) (-0.00026354803466796875, 3.9765625) (-0.00026756231689453123, 3.978515625) (-0.00027260739135742185, 3.98046875) (-0.0002802741088867187, 3.982421875) (-0.0002915826721191406, 3.984375) (-0.0003052985534667969, 3.986328125) (-0.0003165811767578125, 3.98828125) (-0.0003186134338378906, 3.990234375) (-0.00030737878417968746, 3.9921875) (-0.0002856712036132812, 3.994140625) (-0.00026368267822265626, 3.99609375) (-0.0002530072784423828, 3.998046875) (-0.0002604320983886719, 4.0) (-0.00028314459228515623, 4.001953125) (-0.00030924783325195313, 4.00390625) (-0.00032776458740234375, 4.005859375) (-0.0003328883666992187, 4.0078125) (-0.00032676971435546874, 4.009765625) (-0.0003193281860351562, 4.01171875) (-0.0003162158508300781, 4.013671875) (-0.0003176591796875, 4.015625) (-0.0003202601318359375, 4.017578125) (-0.0003154437866210937, 4.01953125) (-0.0003018957214355469, 4.021484375) (-0.0002858043212890625, 4.0234375) (-0.0002732201232910156, 4.025390625) (-0.00027280938720703125, 4.02734375) (-0.00028546856689453125, 4.029296875) (-0.00030285272216796876, 4.03125) (-0.0003186405639648437, 4.033203125) (-0.00032628302001953125, 4.03515625) (-0.000324292236328125, 4.037109375) (-0.00031859814453125, 4.0390625) (-0.00031296441650390623, 4.041015625) (-0.0003098685607910156, 4.04296875) (-0.00031023901367187496, 4.044921875) (-0.0003116985168457031, 4.046875) (-0.00031306649780273434, 4.048828125) (-0.0003143975830078125, 4.05078125) (-0.00031556951904296873, 4.052734375) (-0.0003169300537109375, 4.0546875) (-0.00031857574462890626, 4.056640625) (-0.00032016125488281246, 4.05859375) (-0.00032156011962890626, 4.060546875) (-0.00032280941772460937, 4.0625) (-0.00032388912963867187, 4.064453125) (-0.0003247773132324219, 4.06640625) (-0.000325475830078125, 4.068359375) (-0.00032598468017578123, 4.0703125) (-0.0003263185424804687, 4.072265625) (-0.00032651715087890623, 4.07421875) (-0.000326584716796875, 4.076171875) (-0.0003264814147949219, 4.078125) (-0.0003261842346191406, 4.080078125) (-0.0003256824951171875, 4.08203125) (-0.0003249625549316406, 4.083984375) (-0.0003240159301757812, 4.0859375) (-0.00032283154296874997, 4.087890625) (-0.0003213931884765625, 4.08984375) (-0.0003196910400390625, 4.091796875) (-0.0003177217102050781, 4.09375) (-0.00031548150634765624, 4.095703125) (-0.0003129671020507812, 4.09765625) (-0.000310176513671875, 4.099609375) (-0.000307108154296875, 4.1015625) (-0.0003037625732421875, 4.103515625) (-0.000300142333984375, 4.10546875) (-0.00029625213623046874, 4.107421875) (-0.00029209844970703124, 4.109375) (-0.0002876891784667969, 4.111328125) (-0.00028303411865234374, 4.11328125) (-0.00027814450073242186, 4.115234375) (-0.0002730332336425781, 4.1171875) (-0.00026771490478515625, 4.119140625) (-0.000262205810546875, 4.12109375) (-0.00025652362060546875, 4.123046875) (-0.00025068743896484373, 4.125) (-0.0002447179870605469, 4.126953125) (-0.00023863717651367186, 4.12890625) (-0.0002324685363769531, 4.130859375) (-0.0002262369384765625, 4.1328125) (-0.00021996823120117186, 4.134765625) (-0.0002136892395019531, 4.13671875) (-0.00020742753601074218, 4.138671875) (-0.00020121124267578124, 4.140625) (-0.00019506887817382813, 4.142578125) (-0.00018902932739257812, 4.14453125) (-0.00018312121582031248, 4.146484375) (-0.00017737294006347655, 4.1484375) (-0.00017181239318847654, 4.150390625) (-0.00016646697998046875, 4.15234375) (-0.0001613634490966797, 4.154296875) (-0.00015652764892578125, 4.15625) (-0.0001519842834472656, 4.158203125) (-0.00014775669860839843, 4.16015625) (-0.00014386672973632812, 4.162109375) (-0.0001403345031738281, 4.1640625) (-0.00013717831420898436, 4.166015625) (-0.00013441455078125, 4.16796875) (-0.0001320574035644531, 4.169921875) (-0.00013011886596679686, 4.171875) (-0.00012860888671875, 4.173828125) (-0.00012753507995605468, 4.17578125) (-0.00012690289306640625, 4.177734375) (-0.000126715576171875, 4.1796875) (-0.00012697415161132811, 4.181640625) (-0.00012767718505859375, 4.18359375) (-0.00012882089233398438, 4.185546875) (-0.00013039898681640625, 4.1875) (-0.00013240275573730468, 4.189453125) (-0.00013482113647460937, 4.19140625) (-0.00013764080810546873, 4.193359375) (-0.00014084613037109375, 4.1953125) (-0.00014441952514648436, 4.197265625) (-0.00014834146118164061, 4.19921875) (-0.0001525907745361328, 4.201171875) (-0.0001571448211669922, 4.203125) (-0.00016197969055175781, 4.205078125) (-0.00016707012939453123, 4.20703125) (-0.0001723897247314453, 4.208984375) (-0.00017791107177734375, 4.2109375) (-0.0001836058807373047, 4.212890625) (-0.00018944537353515623, 4.21484375) (-0.00019540031433105468, 4.216796875) (-0.00020144137573242186, 4.21875) (-0.0002075391845703125, 4.220703125) (-0.00021366476440429688, 4.22265625) (-0.00021978981018066406, 4.224609375) (-0.0002258869171142578, 4.2265625) (-0.0002319298095703125, 4.228515625) (-0.00023789324951171875, 4.23046875) (-0.0002437532043457031, 4.232421875) (-0.0002494867706298828, 4.234375) (-0.00025507250976562496, 4.236328125) (-0.00026049041748046876, 4.23828125) (-0.00026572213745117184, 4.240234375) (-0.00027075048828125, 4.2421875) (-0.00027555990600585935, 4.244140625) (-0.00028013665771484375, 4.24609375) (-0.0002844689331054687, 4.248046875) (-0.00028854718017578125, 4.25) (-0.00029236331176757814, 4.251953125) (-0.0002959110412597656, 4.25390625) (-0.0002991858520507812, 4.255859375) (-0.0003021844482421875, 4.2578125) (-0.0003049062805175781, 4.259765625) (-0.0003073524475097656, 4.26171875) (-0.0003095221252441406, 4.263671875) (-0.0003114153442382812, 4.265625) (-0.0003130346069335937, 4.267578125) (-0.00031438241577148434, 4.26953125) (-0.00031546475219726563, 4.271484375) (-0.00031629132080078124, 4.2734375) (-0.00031686444091796873, 4.275390625) (-0.00031718600463867183, 4.27734375) (-0.0003172743530273437, 4.279296875) (-0.00031714544677734376, 4.28125) (-0.0003168139953613281, 4.283203125) (-0.0003162991943359375, 4.28515625) (-0.0003155997314453125, 4.287109375) (-0.00031470501708984373, 4.2890625) (-0.00031363653564453123, 4.291015625) (-0.00031241619873046875, 4.29296875) (-0.0003110146484375, 4.294921875) (-0.00030941119384765624, 4.296875) (-0.00030759033203125, 4.298828125) (-0.0003055235595703125, 4.30078125) (-0.00030324200439453124, 4.302734375) (-0.00030080364990234373, 4.3046875) (-0.0002981810913085937, 4.306640625) (-0.00029532171630859374, 4.30859375) (-0.00029237030029296874, 4.310546875) (-0.0002894959106445312, 4.3125) (-0.00028659619140624997, 4.314453125) (-0.0002836799621582031, 4.31640625) (-0.0002807783813476562, 4.318359375) (-0.00027752600097656247, 4.3203125) (-0.00027490396118164063, 4.322265625) (-0.00027386682128906247, 4.32421875) (-0.00027304791259765625, 4.326171875) (-0.0002720333251953125, 4.328125) (-0.00026831573486328126, 4.330078125) (-0.0002588931884765625, 4.33203125) (-0.0002470897216796875, 4.333984375) (-0.00023512089538574218, 4.3359375) (-0.000226285888671875, 4.337890625) (-0.00022511672973632812, 4.33984375) (-0.00022760649108886718, 4.341796875) (-0.00023035806274414062, 4.34375) (-0.0002310434112548828, 4.345703125) (-0.00022581771850585937, 4.34765625) (-0.00021743432617187498, 4.349609375) (-0.00020868157958984373, 4.3515625) (-0.00020017919921874999, 4.353515625) (-0.00019362782287597654, 4.35546875) (-0.00018804473876953123, 4.357421875) (-0.00018217138671875, 4.359375) (-0.0001762582092285156, 4.361328125) (-0.00017014413452148437, 4.36328125) (-0.00016392498779296873, 4.365234375) (-0.00015788671875, 4.3671875) (-0.0001519005584716797, 4.369140625) (-0.00014587312316894532, 4.37109375) (-0.00013987318420410156, 4.373046875) (-0.00013390525817871094, 4.375) (-0.00012795451354980468, 4.376953125) (-0.00012205716705322266, 4.37890625) (-0.00011622268676757812, 4.380859375) (-0.00011038668060302734, 4.3828125) (-0.0001044613265991211, 4.384765625) (-9.837080383300781e-05, 4.38671875) (-9.206022644042969e-05, 4.388671875) (-8.556858062744141e-05, 4.390625) (-7.895303344726562e-05, 4.392578125) (-7.21515655517578e-05, 4.39453125) (-6.522462463378905e-05, 4.396484375) (-5.8560180664062495e-05, 4.3984375) (-5.248480987548828e-05, 4.400390625) (-4.703286361694336e-05, 4.40234375) (-4.20916633605957e-05, 4.404296875) (-3.724661254882812e-05, 4.40625) (-3.319556427001953e-05, 4.408203125) (-3.2202087402343746e-05, 4.41015625) (-3.523017120361328e-05, 4.412109375) (-4.07353286743164e-05, 4.4140625) (-4.303353118896484e-05, 4.416015625) (-3.381840896606445e-05, 4.41796875) (-9.461057662963867e-06, 4.419921875) (2.5719139099121092e-05, 4.421875) (5.944605636596679e-05, 4.423828125) (7.734190368652343e-05, 4.42578125) (7.273155975341797e-05, 4.427734375) (5.035731506347656e-05, 4.4296875) (2.3810382843017576e-05, 4.431640625) (6.443818092346191e-06, 4.43359375) (3.2387852668762204e-06, 4.435546875) (9.383816719055175e-06, 4.4375) (1.531833839416504e-05, 4.439453125) (1.5444532394409178e-05, 4.44140625) (1.2245509147644043e-05, 4.443359375) (1.3640907287597656e-05, 4.4453125) (2.5754722595214842e-05, 4.447265625) (4.679136276245117e-05, 4.44921875) (6.6416748046875e-05, 4.451171875) (7.271730041503907e-05, 4.453125) (6.049874496459961e-05, 4.455078125) (3.4177307128906246e-05, 4.45703125) (6.207657814025879e-06, 4.458984375) (-1.2429738998413086e-05, 4.4609375) (-1.856812858581543e-05, 4.462890625) (-1.5172385215759276e-05, 4.46484375) (-8.38382053375244e-06, 4.466796875) (4.152660369873047e-07, 4.46875) (1.5396053314208984e-05, 4.470703125) (3.95399169921875e-05, 4.47265625) (7.139383697509765e-05, 4.474609375) (0.00010229336547851562, 4.4765625) (0.00012146015167236327, 4.478515625) (0.00012425773620605468, 4.48046875) (0.00011400969696044922, 4.482421875) (0.00010091471862792968, 4.484375) (9.523144531249999e-05, 4.486328125) (0.00010194607543945312, 4.48828125) (0.00012101315307617187, 4.490234375) (0.0001484278869628906, 4.4921875) (0.00018058090209960938, 4.494140625) (0.0002162018585205078, 4.49609375) (0.0002552983093261719, 4.498046875) (0.0002985272216796875, 4.5) (0.00034505807495117187, 4.501953125) (0.00039227529907226563, 4.50390625) (0.0004358958740234375, 4.505859375) (0.0004706678771972656, 4.5078125) (0.0004923968505859375, 4.509765625) (0.0004978597412109375, 4.51171875) (0.0004861804809570312, 4.513671875) (0.00045939733886718746, 4.515625) (0.00041971459960937497, 4.517578125) (0.0003685451965332031, 4.51953125) (0.0003050814514160156, 4.521484375) (0.0002274113006591797, 4.5234375) (0.00013779846191406248, 4.525390625) (4.533099365234375e-05, 4.52734375) (-3.388198852539062e-05, 4.529296875) (-8.397950744628905e-05, 4.53125) (-9.797444152832031e-05, 4.533203125) (-8.006627655029296e-05, 4.53515625) (-4.514277267456055e-05, 4.537109375) (-8.899599075317383e-06, 4.5390625) (2.001235580444336e-05, 4.541015625) (3.9835426330566404e-05, 4.54296875) (5.4981178283691407e-05, 4.544921875) (6.959381866455078e-05, 4.546875) (8.422380065917969e-05, 4.548828125) (9.745111083984375e-05, 4.55078125) (0.00010684362030029296, 4.552734375) (0.00011179229736328125, 4.5546875) (0.00011356349182128905, 4.556640625) (0.00011401715087890624, 4.55859375) (0.00011505900573730469, 4.560546875) (0.00011738104248046875, 4.5625) (0.00012091487884521484, 4.564453125) (0.0001254982452392578, 4.56640625) (0.000130740234375, 4.568359375) (0.00013621231079101562, 4.5703125) (0.0001414804992675781, 4.572265625) (0.00014589193725585937, 4.57421875) (0.00014880760192871094, 4.576171875) (0.00014996485900878906, 4.578125) (0.00014931837463378906, 4.580078125) (0.00014698545837402342, 4.58203125) (0.00014320939636230468, 4.583984375) (0.0001381669158935547, 4.5859375) (0.000132047607421875, 4.587890625) (0.00012509733581542968, 4.58984375) (0.00011758731079101561, 4.591796875) (0.00010980032348632812, 4.59375) (0.00010194615936279297, 4.595703125) (9.414396667480468e-05, 4.59765625) (8.646099853515625e-05, 4.599609375) (7.896426391601563e-05, 4.6015625) (7.173934936523437e-05, 4.603515625) (6.49054946899414e-05, 4.60546875) (5.8591636657714844e-05, 4.607421875) (5.286449432373047e-05, 4.609375) (4.774790954589844e-05, 4.611328125) (4.322841644287109e-05, 4.61328125) (3.9279495239257814e-05, 4.615234375) (3.5898773193359375e-05, 4.6171875) (3.30594367980957e-05, 4.619140625) (3.071103858947754e-05, 4.62109375) (2.876606750488281e-05, 4.623046875) (2.7082170486450192e-05, 4.625) (2.5559675216674802e-05, 4.626953125) (2.417142677307129e-05, 4.62890625) (2.2853710174560546e-05, 4.630859375) (2.1492759704589842e-05, 4.6328125) (1.9993900299072265e-05, 4.634765625) (1.8238237380981446e-05, 4.63671875) (1.614206314086914e-05, 4.638671875) (1.3763212203979491e-05, 4.640625) (1.1131861686706542e-05, 4.642578125) (8.186792373657227e-06, 4.64453125) (5.098376274108886e-06, 4.646484375) (2.2703371047973634e-06, 4.6484375) (-1.7216068506240843e-07, 4.650390625) (-2.2468230724334717e-06, 4.65234375) (-3.835352420806885e-06, 4.654296875) (-5.227379322052001e-06, 4.65625) (-5.6590342521667474e-06, 4.658203125) (-3.0694663524627683e-06, 4.66015625) (2.0792813301086425e-06, 4.662109375) (8.054481506347656e-06, 4.6640625) (1.1831310272216796e-05, 4.666015625) (7.785983085632324e-06, 4.66796875) (-3.4102275371551513e-06, 4.669921875) (-1.6024133682250976e-05, 4.671875) (-2.431795310974121e-05, 4.673828125) (-2.0187232971191406e-05, 4.67578125) (-3.4754681587219236e-06, 4.677734375) (1.8118474960327146e-05, 4.6796875) (3.867652893066406e-05, 4.681640625) (5.17236099243164e-05, 4.68359375) (5.631447601318359e-05, 4.685546875) (5.8111057281494137e-05, 4.6875) (6.0483154296875e-05, 4.689453125) (6.579647827148437e-05, 4.69140625) (7.464080810546875e-05, 4.693359375) (8.46212158203125e-05, 4.6953125) (9.465446472167968e-05, 4.697265625) (0.00010471189880371094, 4.69921875) (0.00011459667968749999, 4.701171875) (0.00012455701446533203, 4.703125) (0.0001346077423095703, 4.705078125) (0.00014440284729003906, 4.70703125) (0.00015386114501953125, 4.708984375) (0.0001630679016113281, 4.7109375) (0.00017201991271972655, 4.712890625) (0.00018071659851074217, 4.71484375) (0.00018920538330078124, 4.716796875) (0.000197528076171875, 4.71875) (0.00020575199890136717, 4.720703125) (0.0002139664306640625, 4.72265625) (0.00022219772338867187, 4.724609375) (0.00023044134521484373, 4.7265625) (0.00023873651123046874, 4.728515625) (0.00024714154052734373, 4.73046875) (0.0002557210083007812, 4.732421875) (0.00026452801513671874, 4.734375) (0.00027357382202148435, 4.736328125) (0.0002828436279296875, 4.73828125) (0.00029230523681640625, 4.740234375) (0.00030192089843749997, 4.7421875) (0.0003116545715332031, 4.744140625) (0.00032142907714843746, 4.74609375) (0.0003311272583007812, 4.748046875) (0.00034060943603515624, 4.75) (0.0003497101745605469, 4.751953125) (0.00035827917480468747, 4.75390625) (0.0003661853332519531, 4.755859375) (0.00037328466796874996, 4.7578125) (0.0003794266357421875, 4.759765625) (0.000384468017578125, 4.76171875) (0.0003882770385742187, 4.763671875) (0.00039075628662109375, 4.765625) (0.00039184027099609375, 4.767578125) (0.0003914701232910156, 4.76953125) (0.00038960198974609373, 4.771484375) (0.00038619027709960933, 4.7734375) (0.0003811984558105469, 4.775390625) (0.00037466476440429683, 4.77734375) (0.0003666814575195312, 4.779296875) (0.0003573864135742187, 4.78125) (0.00034697775268554686, 4.783203125) (0.00033564300537109376, 4.78515625) (0.0003235677490234375, 4.787109375) (0.00031097296142578124, 4.7890625) (0.00029806665039062497, 4.791015625) (0.000285035400390625, 4.79296875) (0.00027205322265625, 4.794921875) (0.0002592463684082031, 4.796875) (0.00024671542358398435, 4.798828125) (0.00023457910156249998, 4.80078125) (0.00022295152282714842, 4.802734375) (0.00021195787048339842, 4.8046875) (0.00020173031616210936, 4.806640625) (0.00019232987976074218, 4.80859375) (0.00018377116394042967, 4.810546875) (0.0001760344543457031, 4.8125) (0.00016903199768066406, 4.814453125) (0.00016267541503906248, 4.81640625) (0.00015686700439453125, 4.818359375) (0.00015146165466308593, 4.8203125) (0.00014633541870117187, 4.822265625) (0.00014139666748046875, 4.82421875) (0.00013656451416015625, 4.826171875) (0.00013180229187011717, 4.828125) (0.00012709580993652342, 4.830078125) (0.00012240275573730468, 4.83203125) (0.00011768077087402343, 4.833984375) (0.00011288079833984374, 4.8359375) (0.00010793057250976562, 4.837890625) (0.00010279579162597656, 4.83984375) (9.746678161621093e-05, 4.841796875) (9.194126892089843e-05, 4.84375) (8.626140594482422e-05, 4.845703125) (8.047911071777344e-05, 4.84765625) (7.465557098388671e-05, 4.849609375) (6.8887939453125e-05, 4.8515625) (6.325879287719726e-05, 4.853515625) (5.7819496154785154e-05, 4.85546875) (5.2610748291015624e-05, 4.857421875) (4.7645038604736326e-05, 4.859375) (4.291586303710937e-05, 4.861328125) (3.8432273864746094e-05, 4.86328125) (3.4200164794921874e-05, 4.865234375) (3.022052001953125e-05, 4.8671875) (2.651239585876465e-05, 4.869140625) (2.3085298538208006e-05, 4.87109375) (1.9940013885498046e-05, 4.873046875) (1.7082096099853515e-05, 4.875) (1.4499140739440917e-05, 4.876953125) (1.2166988372802733e-05, 4.87890625) (1.0055219650268554e-05, 4.880859375) (8.116174697875976e-06, 4.8828125) (6.3038578033447266e-06, 4.884765625) (4.587035179138183e-06, 4.88671875) (2.9404003620147702e-06, 4.888671875) (1.3479691743850707e-06, 4.890625) (-1.9703030586242674e-07, 4.892578125) (-1.7048125267028807e-06, 4.89453125) (-3.183281898498535e-06, 4.896484375) (-4.6346626281738275e-06, 4.8984375) (-6.067387580871582e-06, 4.900390625) (-7.491495132446289e-06, 4.90234375) (-8.91700553894043e-06, 4.904296875) (-1.0359042167663574e-05, 4.90625) (-1.1829866409301757e-05, 4.908203125) (-1.3336090087890624e-05, 4.91015625) (-1.4880525588989257e-05, 4.912109375) (-1.646029472351074e-05, 4.9140625) (-1.807110595703125e-05, 4.916015625) (-1.9711738586425782e-05, 4.91796875) (-2.1382423400878905e-05, 4.919921875) (-2.3084140777587888e-05, 4.921875) (-2.481905364990234e-05, 4.923828125) (-2.6589704513549803e-05, 4.92578125) (-2.8401273727416992e-05, 4.927734375) (-3.0262020111083984e-05, 4.9296875) (-3.217851257324219e-05, 4.931640625) (-3.415430450439453e-05, 4.93359375) (-3.618793106079102e-05, 4.935546875) (-3.827260589599609e-05, 4.9375) (-4.040385055541992e-05, 4.939453125) (-4.2579601287841796e-05, 4.94140625) (-4.479999542236328e-05, 4.943359375) (-4.706846618652344e-05, 4.9453125) (-4.938423919677734e-05, 4.947265625) (-5.174387741088867e-05, 4.94921875) (-5.4146835327148435e-05, 4.951171875) (-5.6593173980712885e-05, 4.953125) (-5.9077404022216795e-05, 4.955078125) (-6.158773803710938e-05, 4.95703125) (-6.410261535644531e-05, 4.958984375) (-6.659107971191406e-05, 4.9609375) (-6.903151702880858e-05, 4.962890625) (-7.14100112915039e-05, 4.96484375) (-7.371529388427734e-05, 4.966796875) (-7.594303131103516e-05, 4.96875) (-7.807878875732422e-05, 4.970703125) (-8.010166931152344e-05, 4.97265625) (-8.199771118164062e-05, 4.974609375) (-8.375417327880859e-05, 4.9765625) (-8.536409759521485e-05, 4.978515625) (-8.682341766357421e-05, 4.98046875) (-8.812066650390624e-05, 4.982421875) (-8.9244873046875e-05, 4.984375) (-9.021763610839844e-05, 4.986328125) (-9.108696746826171e-05, 4.98828125) (-9.19075927734375e-05, 4.990234375) (-9.275074768066406e-05, 4.9921875) (-9.365272521972656e-05, 4.994140625) (-9.461849975585937e-05, 4.99609375) (-9.568034362792968e-05, 4.998046875) (-9.687092590332031e-05, 5.0) (-9.82336196899414e-05, 5.001953125) (-9.984086608886719e-05, 5.00390625) (-0.00010173979187011718, 5.005859375) (-0.00010394158935546875, 5.0078125) (-0.00010650051116943359, 5.009765625) (-0.00010950356292724609, 5.01171875) (-0.00011293826293945312, 5.013671875) (-0.00011671754455566406, 5.015625) (-0.0001206000747680664, 5.017578125) (-0.0001241308364868164, 5.01953125) (-0.00012693290710449217, 5.021484375) (-0.00012872421264648436, 5.0234375) (-0.0001291621856689453, 5.025390625) (-0.000128013916015625, 5.02734375) (-0.00012536421966552735, 5.029296875) (-0.00012150869750976562, 5.03125) (-0.00011709498596191406, 5.033203125) (-0.00011321702575683594, 5.03515625) (-0.00011071411132812499, 5.037109375) (-0.0001102364044189453, 5.0390625) (-0.00011263175201416014, 5.041015625) (-0.00011818020629882811, 5.04296875) (-0.00012631947326660156, 5.044921875) (-0.000136077880859375, 5.046875) (-0.00014574191284179687, 5.048828125) (-0.00015282156372070313, 5.05078125) (-0.0001553396453857422, 5.052734375) (-0.0001514693603515625, 5.0546875) (-0.00013856651306152343, 5.056640625) (-0.0001150125732421875, 5.05859375) (-8.083152770996093e-05, 5.060546875) (-3.656457138061523e-05, 5.0625) (1.4930346488952636e-05, 5.064453125) (6.847467803955078e-05, 5.06640625) (0.00012098414611816406, 5.068359375) (0.00016966706848144531, 5.0703125) (0.00021162643432617187, 5.072265625) (0.0002473951110839844, 5.07421875) (0.0002741328430175781, 5.076171875) (0.00028597418212890623, 5.078125) (0.00027724258422851564, 5.080078125) (0.00024053520202636718, 5.08203125) (0.0001746705322265625, 5.083984375) (8.516815185546875e-05, 5.0859375) (-1.638932991027832e-05, 5.087890625) (-0.0001133079605102539, 5.08984375) (-0.00019357757568359374, 5.091796875) (-0.00024903408813476563, 5.09375) (-0.0002791783447265625, 5.095703125) (-0.00029211212158203125, 5.09765625) (-0.00029344052124023436, 5.099609375) (-0.0002880281982421875, 5.1015625) (-0.00027848956298828125, 5.103515625) (-0.0002622625732421875, 5.10546875) (-0.0002400521240234375, 5.107421875) (-0.00021509320068359373, 5.109375) (-0.00019005648803710937, 5.111328125) (-0.00016883346557617187, 5.11328125) (-0.00015382073974609374, 5.115234375) (-0.00014544157409667968, 5.1171875) (-0.00014374737548828123, 5.119140625) (-0.00014795445251464842, 5.12109375) (-0.00015604367065429688, 5.123046875) (-0.00016528570556640623, 5.125) (-0.00017387400817871093, 5.126953125) (-0.0001807786102294922, 5.12890625) (-0.0001853789825439453, 5.130859375) (-0.00018754049682617187, 5.1328125) (-0.0001868836669921875, 5.134765625) (-0.00018318670654296875, 5.13671875) (-0.00017720379638671874, 5.138671875) (-0.00017031021118164063, 5.140625) (-0.00016346510314941407, 5.142578125) (-0.0001571826171875, 5.14453125) (-0.00015162895202636717, 5.146484375) (-0.00014668367004394531, 5.1484375) (-0.0001425080108642578, 5.150390625) (-0.00013927828979492187, 5.15234375) (-0.00013677311706542967, 5.154296875) (-0.00013455178833007812, 5.15625) (-0.00013222178649902343, 5.158203125) (-0.00012953038024902342, 5.16015625) (-0.00012642748260498047, 5.162109375) (-0.00012298826599121095, 5.1640625) (-0.00011919236755371093, 5.166015625) (-0.00011498399353027343, 5.16796875) (-0.0001103659210205078, 5.169921875) (-0.00010537480926513671, 5.171875) (-0.00010008377838134766, 5.173828125) (-9.456047058105469e-05, 5.17578125) (-8.88277587890625e-05, 5.177734375) (-8.28892822265625e-05, 5.1796875) (-7.675468444824219e-05, 5.181640625) (-7.044992065429687e-05, 5.18359375) (-6.402278137207031e-05, 5.185546875) (-5.752656936645508e-05, 5.1875) (-5.1014118194580076e-05, 5.189453125) (-4.453942489624023e-05, 5.19140625) (-3.81427001953125e-05, 5.193359375) (-3.185352325439453e-05, 5.1953125) (-2.5699947357177734e-05, 5.197265625) (-1.9702777862548827e-05, 5.19921875) (-1.3880403518676758e-05, 5.201171875) (-8.253017425537108e-06, 5.203125) (-2.828120708465576e-06, 5.205078125) (2.39657187461853e-06, 5.20703125) (7.420702934265136e-06, 5.208984375) (1.224504280090332e-05, 5.2109375) (1.6868064880371094e-05, 5.212890625) (2.1287078857421875e-05, 5.21484375) (2.550897216796875e-05, 5.216796875) (2.9548213958740233e-05, 5.21875) (3.342034149169922e-05, 5.220703125) (3.714133071899414e-05, 5.22265625) (4.07242431640625e-05, 5.224609375) (4.417869567871094e-05, 5.2265625) (4.751674652099609e-05, 5.228515625) (5.0752357482910154e-05, 5.23046875) (5.3898590087890624e-05, 5.232421875) (5.696840286254882e-05, 5.234375) (5.997245788574219e-05, 5.236328125) (6.291962432861327e-05, 5.23828125) (6.582147979736328e-05, 5.240234375) (6.869189453125e-05, 5.2421875) (7.154498291015625e-05, 5.244140625) (7.439490509033203e-05, 5.24609375) (7.725425720214843e-05, 5.248046875) (8.013406372070313e-05, 5.25) (8.304576873779296e-05, 5.251953125) (8.600100708007812e-05, 5.25390625) (8.900994873046874e-05, 5.255859375) (9.208123016357421e-05, 5.2578125) (9.522171020507813e-05, 5.259765625) (9.843638610839843e-05, 5.26171875) (0.00010172937774658202, 5.263671875) (0.00010510382080078125, 5.265625) (0.00010856105041503905, 5.267578125) (0.000112100341796875, 5.26953125) (0.00011571900939941406, 5.271484375) (0.00011941230773925781, 5.2734375) (0.000123173828125, 5.275390625) (0.00012699554443359375, 5.27734375) (0.00013086756896972656, 5.279296875) (0.0001347778625488281, 5.28125) (0.00013871263122558594, 5.283203125) (0.00014265652465820312, 5.28515625) (0.00014659307861328123, 5.287109375) (0.00015050494384765624, 5.2890625) (0.000154373779296875, 5.291015625) (0.00015818017578125, 5.29296875) (0.00016190405273437499, 5.294921875) (0.00016552493286132812, 5.296875) (0.00016902218627929687, 5.298828125) (0.0001723751983642578, 5.30078125) (0.00017556323242187499, 5.302734375) (0.00017856549072265624, 5.3046875) (0.00018136145019531248, 5.306640625) (0.0001839310607910156, 5.30859375) (0.00018625498962402342, 5.310546875) (0.00018831460571289062, 5.3125) (0.00019009205627441405, 5.314453125) (0.00019157023620605467, 5.31640625) (0.0001927333526611328, 5.318359375) (0.00019356698608398437, 5.3203125) (0.00019405822753906248, 5.322265625) (0.00019419573974609373, 5.32421875) (0.00019396989440917967, 5.326171875) (0.00019337277221679686, 5.328125) (0.00019239845275878905, 5.330078125) (0.00019104309082031249, 5.33203125) (0.00018930499267578123, 5.333984375) (0.00018718467712402343, 5.3359375) (0.000184684814453125, 5.337890625) (0.0001818102569580078, 5.33984375) (0.00017856803894042967, 5.341796875) (0.00017496749877929686, 5.34375) (0.00017102015686035156, 5.345703125) (0.00016673950195312498, 5.34765625) (0.00016214089965820312, 5.349609375) (0.00015724148559570313, 5.3515625) (0.00015205993652343748, 5.353515625) (0.000146616455078125, 5.35546875) (0.0001409326171875, 5.357421875) (0.00013503105163574218, 5.359375) (0.000128935302734375, 5.361328125) (0.00012266967010498046, 5.36328125) (0.00011625906372070312, 5.365234375) (0.00010972891235351562, 5.3671875) (0.00010310502624511719, 5.369140625) (9.641333007812499e-05, 5.37109375) (8.967983245849609e-05, 5.373046875) (8.293040466308594e-05, 5.375) (7.619076538085937e-05, 5.376953125) (6.94863052368164e-05, 5.37890625) (6.284201049804687e-05, 5.380859375) (5.6282196044921874e-05, 5.3828125) (4.9830482482910154e-05, 5.384765625) (4.3509552001953125e-05, 5.38671875) (3.734107971191406e-05, 5.388671875) (3.134561538696289e-05, 5.390625) (2.554239273071289e-05, 5.392578125) (1.994913291931152e-05, 5.39453125) (1.4581981658935546e-05, 5.396484375) (9.455401420593262e-06, 5.3984375) (4.58204174041748e-06, 5.400390625) (-2.7267098426818847e-08, 5.40234375) (-4.363606452941894e-06, 5.404296875) (-8.420052528381348e-06, 5.40625) (-1.2191609382629394e-05, 5.408203125) (-1.5675176620483397e-05, 5.41015625) (-1.8869544982910154e-05, 5.412109375) (-2.177527618408203e-05, 5.4140625) (-2.439459991455078e-05, 5.416015625) (-2.673141098022461e-05, 5.41796875) (-2.8791170120239255e-05, 5.419921875) (-3.0580774307250975e-05, 5.421875) (-3.210842895507812e-05, 5.423828125) (-3.3383476257324216e-05, 5.42578125) (-3.441624450683594e-05, 5.427734375) (-3.5218017578125e-05, 5.4296875) (-3.5800968170166016e-05, 5.431640625) (-3.617796325683594e-05, 5.43359375) (-3.63624153137207e-05, 5.435546875) (-3.6368114471435547e-05, 5.4375) (-3.620914459228515e-05, 5.439453125) (-3.5899959564208985e-05, 5.44140625) (-3.545520782470703e-05, 5.443359375) (-3.488962936401367e-05, 5.4453125) (-3.4218048095703123e-05, 5.447265625) (-3.345514297485351e-05, 5.44921875) (-3.261537933349609e-05, 5.451171875) (-3.171300888061523e-05, 5.453125) (-3.0761837005615234e-05, 5.455078125) (-2.9774967193603514e-05, 5.45703125) (-2.876490020751953e-05, 5.458984375) (-2.7743310928344725e-05, 5.4609375) (-2.6720699310302735e-05, 5.462890625) (-2.5706546783447266e-05, 5.46484375) (-2.4709226608276367e-05, 5.466796875) (-2.3735836029052735e-05, 5.46875) (-2.2792457580566406e-05, 5.470703125) (-2.1884096145629882e-05, 5.47265625) (-2.1014429092407225e-05, 5.474609375) (-2.018609809875488e-05, 5.4765625) (-1.9400897979736326e-05, 5.478515625) (-1.865958023071289e-05, 5.48046875) (-1.79619026184082e-05, 5.482421875) (-1.730659294128418e-05, 5.484375) (-1.6691328048706055e-05, 5.486328125) (-1.611310577392578e-05, 5.48828125) (-1.556842041015625e-05, 5.490234375) (-1.5053129196166992e-05, 5.4921875) (-1.4562470436096191e-05, 5.494140625) (-1.4091218948364257e-05, 5.49609375) (-1.3633817672729492e-05, 5.498046875) (-1.3184844970703124e-05, 5.5) (-1.273912239074707e-05, 5.501953125) (-1.2291290283203124e-05, 5.50390625) (-1.1836114883422851e-05, 5.505859375) (-1.1368518829345702e-05, 5.5078125) (-1.0883207321166991e-05, 5.509765625) (-1.037513256072998e-05, 5.51171875) (-9.839634895324707e-06, 5.513671875) (-9.272103309631348e-06, 5.515625) (-8.668325424194335e-06, 5.517578125) (-8.024837493896485e-06, 5.51953125) (-7.338261604309082e-06, 5.521484375) (-6.605664730072021e-06, 5.5234375) (-5.825911521911621e-06, 5.525390625) (-4.999066352844238e-06, 5.52734375) (-4.1265211105346675e-06, 5.529296875) (-3.211436033248901e-06, 5.53125) (-2.257385492324829e-06, 5.533203125) (-1.2682751417160034e-06, 5.53515625) (-2.492600381374359e-07, 5.537109375) (7.939409613609314e-07, 5.5390625) (1.8563145399093627e-06, 5.541015625) (2.9326753616333005e-06, 5.54296875) (4.018351554870606e-06, 5.544921875) (5.109739303588867e-06, 5.546875) (6.201885223388671e-06, 5.548828125) (7.289164066314697e-06, 5.55078125) (8.365457534790039e-06, 5.552734375) (9.422797203063964e-06, 5.5546875) (1.045273208618164e-05, 5.556640625) (1.1447484016418456e-05, 5.55859375) (1.2400028228759765e-05, 5.560546875) (1.3305047988891602e-05, 5.5625) (1.4159596443176269e-05, 5.564453125) (1.496039581298828e-05, 5.56640625) (1.5705095291137695e-05, 5.568359375) (1.6394474029541015e-05, 5.5703125) (1.702773094177246e-05, 5.572265625) (1.760388946533203e-05, 5.57421875) (1.811933898925781e-05, 5.576171875) (1.8562387466430664e-05, 5.578125) (1.8922866821289063e-05, 5.580078125) (1.9196300506591796e-05, 5.58203125) (1.938278007507324e-05, 5.583984375) (1.9489572525024415e-05, 5.5859375) (1.952991485595703e-05, 5.587890625) (1.9517839431762693e-05, 5.58984375) (1.9469558715820313e-05, 5.591796875) (1.940934371948242e-05, 5.59375) (1.9361454010009766e-05, 5.595703125) (1.9350191116333008e-05, 5.59765625) (1.9402679443359375e-05, 5.599609375) (1.9536725997924803e-05, 5.6015625) (1.976477241516113e-05, 5.603515625) (2.009872817993164e-05, 5.60546875) (2.0556665420532224e-05, 5.607421875) (2.117300224304199e-05, 5.609375) (2.198055076599121e-05, 5.611328125) (2.2998561859130858e-05, 5.61328125) (2.4222949981689453e-05, 5.615234375) (2.5629596710205076e-05, 5.6171875) (2.719526672363281e-05, 5.619140625) (2.8896158218383788e-05, 5.62109375) (3.071205902099609e-05, 5.623046875) (3.2610801696777345e-05, 5.625) (3.4534820556640625e-05, 5.626953125) (3.641522216796875e-05, 5.62890625) (3.8170867919921874e-05, 5.630859375) (3.9723976135253905e-05, 5.6328125) (4.100972747802734e-05, 5.634765625) (4.199424743652344e-05, 5.63671875) (4.2627120971679685e-05, 5.638671875) (4.2807929992675777e-05, 5.640625) (4.253248596191406e-05, 5.642578125) (4.18902359008789e-05, 5.64453125) (4.108294677734375e-05, 5.646484375) (4.047165298461914e-05, 5.6484375) (4.039308166503906e-05, 5.650390625) (4.1068504333496095e-05, 5.65234375) (4.2665378570556636e-05, 5.654296875) (4.534281921386719e-05, 5.65625) (4.8977802276611324e-05, 5.658203125) (5.324085998535156e-05, 5.66015625) (5.772265243530273e-05, 5.662109375) (6.168576049804688e-05, 5.6640625) (6.44068603515625e-05, 5.666015625) (6.53809814453125e-05, 5.66796875) (6.427174377441406e-05, 5.669921875) (6.109701919555664e-05, 5.671875) (5.6653430938720704e-05, 5.673828125) (5.219267272949219e-05, 5.67578125) (4.886614990234375e-05, 5.677734375) (4.821712493896484e-05, 5.6796875) (5.189990234375e-05, 5.681640625) (6.14042739868164e-05, 5.68359375) (7.821249389648437e-05, 5.685546875) (0.0001031373062133789, 5.6875) (0.0001355376281738281, 5.689453125) (0.00017390545654296874, 5.69140625) (0.0002168103332519531, 5.693359375) (0.0002622198791503906, 5.6953125) (0.0003075188598632812, 5.697265625) (0.0003497310180664062, 5.69921875) (0.0003851451416015625, 5.701171875) (0.00041034332275390625, 5.703125) (0.0004233939819335937, 5.705078125) (0.0004232413330078125, 5.70703125) (0.0004088110656738281, 5.708984375) (0.00037983184814453124, 5.7109375) (0.00033720999145507813, 5.712890625) (0.00028297900390625, 5.71484375) (0.000220733154296875, 5.716796875) (0.0001546853790283203, 5.71875) (8.843038177490235e-05, 5.720703125) (2.534842491149902e-05, 5.72265625) (-3.078885269165039e-05, 5.724609375) (-7.669575500488281e-05, 5.7265625) (-0.00011036566162109375, 5.728515625) (-0.00013111968994140624, 5.73046875) (-0.00013983876037597655, 5.732421875) (-0.00013843560791015625, 5.734375) (-0.00012892697143554688, 5.736328125) (-0.00011361367797851563, 5.73828125) (-9.555188751220703e-05, 5.740234375) (-7.780357360839844e-05, 5.7421875) (-6.249017715454102e-05, 5.744140625) (-5.084447479248047e-05, 5.74609375) (-4.32033576965332e-05, 5.748046875) (-3.919561386108398e-05, 5.75) (-3.835780334472656e-05, 5.751953125) (-4.0050537109375e-05, 5.75390625) (-4.305155563354492e-05, 5.755859375) (-4.6024406433105465e-05, 5.7578125) (-4.8202350616455076e-05, 5.759765625) (-4.924625396728515e-05, 5.76171875) (-4.919892120361328e-05, 5.763671875) (-4.84063720703125e-05, 5.765625) (-4.711994934082031e-05, 5.767578125) (-4.5574195861816404e-05, 5.76953125) (-4.421755218505859e-05, 5.771484375) (-4.352711868286133e-05, 5.7734375) (-4.374448776245117e-05, 5.775390625) (-4.49244384765625e-05, 5.77734375) (-4.694108200073242e-05, 5.779296875) (-4.9552650451660154e-05, 5.78125) (-5.2591918945312496e-05, 5.783203125) (-5.592051696777343e-05, 5.78515625) (-5.937140655517578e-05, 5.787109375) (-6.276673126220703e-05, 5.7890625) (-6.593848419189452e-05, 5.791015625) (-6.878090667724609e-05, 5.79296875) (-7.126013946533203e-05, 5.794921875) (-7.338238525390625e-05, 5.796875) (-7.515660858154297e-05, 5.798828125) (-7.658306121826171e-05, 5.80078125) (-7.765504455566406e-05, 5.802734375) (-7.838075256347656e-05, 5.8046875) (-7.879946899414062e-05, 5.806640625) (-7.895481872558593e-05, 5.80859375) (-7.889176177978515e-05, 5.810546875) (-7.865184020996094e-05, 5.8125) (-7.826593017578125e-05, 5.814453125) (-7.7774658203125e-05, 5.81640625) (-7.722297668457031e-05, 5.818359375) (-7.66561508178711e-05, 5.8203125) (-7.612220764160156e-05, 5.822265625) (-7.565254974365233e-05, 5.82421875) (-7.526226806640624e-05, 5.826171875) (-7.496163940429687e-05, 5.828125) (-7.475531005859375e-05, 5.830078125) (-7.46434326171875e-05, 5.83203125) (-7.462722778320312e-05, 5.833984375) (-7.470059204101562e-05, 5.8359375) (-7.484597015380859e-05, 5.837890625) (-7.504867553710937e-05, 5.83984375) (-7.529608154296875e-05, 5.841796875) (-7.557518005371093e-05, 5.84375) (-7.587681579589843e-05, 5.845703125) (-7.618875122070313e-05, 5.84765625) (-7.649455261230469e-05, 5.849609375) (-7.677864074707031e-05, 5.8515625) (-7.702664184570312e-05, 5.853515625) (-7.722612762451172e-05, 5.85546875) (-7.73671646118164e-05, 5.857421875) (-7.744038391113281e-05, 5.859375) (-7.743608093261718e-05, 5.861328125) (-7.734617614746093e-05, 5.86328125) (-7.716392517089843e-05, 5.865234375) (-7.688404083251953e-05, 5.8671875) (-7.650283813476562e-05, 5.869140625) (-7.601549530029296e-05, 5.87109375) (-7.541641998291015e-05, 5.873046875) (-7.47005615234375e-05, 5.875) (-7.386346435546874e-05, 5.876953125) (-7.290174865722656e-05, 5.87890625) (-7.181299591064453e-05, 5.880859375) (-7.059513092041016e-05, 5.8828125) (-6.924710083007812e-05, 5.884765625) (-6.776941680908203e-05, 5.88671875) (-6.616383361816406e-05, 5.888671875) (-6.443370056152344e-05, 5.890625) (-6.258238983154296e-05, 5.892578125) (-6.061379241943359e-05, 5.89453125) (-5.8535629272460936e-05, 5.896484375) (-5.6356689453125e-05, 5.8984375) (-5.4085563659667967e-05, 5.900390625) (-5.173276901245117e-05, 5.90234375) (-4.930752944946289e-05, 5.904296875) (-4.681760025024414e-05, 5.90625) (-4.427951431274414e-05, 5.908203125) (-4.171136093139648e-05, 5.91015625) (-3.9116996765136714e-05, 5.912109375) (-3.650337982177734e-05, 5.9140625) (-3.387949371337891e-05, 5.916015625) (-3.125034713745117e-05, 5.91796875) (-2.864068031311035e-05, 5.919921875) (-2.608355140686035e-05, 5.921875) (-2.3581178665161133e-05, 5.923828125) (-2.1134857177734376e-05, 5.92578125) (-1.8794486999511718e-05, 5.927734375) (-1.6601158142089843e-05, 5.9296875) (-1.4590044021606445e-05, 5.931640625) (-1.2807318687438965e-05, 5.93359375) (-1.1240962028503418e-05, 5.935546875) (-9.851993560791015e-06, 5.9375) (-8.68196201324463e-06, 5.939453125) (-7.79500150680542e-06, 5.94140625) (-7.064477920532227e-06, 5.943359375) (-6.338141918182373e-06, 5.9453125) (-5.722125053405762e-06, 5.947265625) (-5.214750289916992e-06, 5.94921875) (-4.791878700256348e-06, 5.951171875) (-4.807938575744628e-06, 5.953125) (-4.3253927230834955e-06, 5.955078125) (-2.4310111999511716e-06, 5.95703125) (-4.3473839759826657e-07, 5.958984375) (1.2666286230087279e-06, 5.9609375) (2.705535888671875e-07, 5.962890625) (-6.297844886779785e-06, 5.96484375) (-1.5249860763549804e-05, 5.966796875) (-2.4457759857177735e-05, 5.96875) (-3.0754613876342775e-05, 5.970703125) (-2.97911376953125e-05, 5.97265625) (-2.5399345397949217e-05, 5.974609375) (-2.082508087158203e-05, 5.9765625) (-1.828842544555664e-05, 5.978515625) (-2.1464202880859373e-05, 5.98046875) (-2.7704216003417966e-05, 5.982421875) (-3.43238410949707e-05, 5.984375) (-4.071529769897461e-05, 5.986328125) (-4.523588943481445e-05, 5.98828125) (-4.8816017150878904e-05, 5.990234375) (-5.2656089782714844e-05, 5.9921875) (-5.6509422302246094e-05, 5.994140625) (-6.0515899658203125e-05, 5.99609375) (-6.457894134521484e-05, 5.998046875) (-6.843716430664062e-05, 6.0) (-7.223677825927734e-05, 6.001953125) (-7.609215545654296e-05, 6.00390625) (-7.994616699218749e-05, 6.005859375) (-8.377531433105468e-05, 6.0078125) (-8.758113098144531e-05, 6.009765625) (-9.13467788696289e-05, 6.01171875) (-9.505015563964843e-05, 6.013671875) (-9.867430877685547e-05, 6.015625) (-0.000102184326171875, 6.017578125) (-0.00010554171752929687, 6.01953125) (-0.00010874783325195312, 6.021484375) (-0.00011180465698242186, 6.0234375) (-0.00011469956970214843, 6.025390625) (-0.00011742622375488281, 6.02734375) (-0.00011997789001464843, 6.029296875) (-0.00012234692382812499, 6.03125) (-0.00012453221130371094, 6.033203125) (-0.00012653378295898437, 6.03515625) (-0.0001283474426269531, 6.037109375) (-0.00012997059631347655, 6.0390625) (-0.00013140313720703123, 6.041015625) (-0.0001326453857421875, 6.04296875) (-0.00013369961547851563, 6.044921875) (-0.0001345691680908203, 6.046875) (-0.00013525765991210937, 6.048828125) (-0.00013576968383789063, 6.05078125) (-0.00013611067199707032, 6.052734375) (-0.00013628660583496092, 6.0546875) (-0.00013630410766601563, 6.056640625) (-0.0001361702117919922, 6.05859375) (-0.00013589242553710938, 6.060546875) (-0.00013547865295410156, 6.0625) (-0.0001349371337890625, 6.064453125) (-0.0001342764892578125, 6.06640625) (-0.00013350555419921873, 6.068359375) (-0.00013263336181640624, 6.0703125) (-0.00013166912841796875, 6.072265625) (-0.00013062216186523438, 6.07421875) (-0.00012950169372558592, 6.076171875) (-0.0001283169708251953, 6.078125) (-0.00012707696533203124, 6.080078125) (-0.00012579049682617186, 6.08203125) (-0.00012446610260009766, 6.083984375) (-0.00012311212158203124, 6.0859375) (-0.00012173662567138672, 6.087890625) (-0.00012034738159179688, 6.08984375) (-0.00011895180511474609, 6.091796875) (-0.0001175569610595703, 6.09375) (-0.00011616954040527343, 6.095703125) (-0.00011479576110839843, 6.09765625) (-0.00011344145965576171, 6.099609375) (-0.00011211186218261718, 6.1015625) (-0.0001108116226196289, 6.103515625) (-0.00010954483795166015, 6.10546875) (-0.00010831505584716796, 6.107421875) (-0.0001071253433227539, 6.109375) (-0.00010597838592529296, 6.111328125) (-0.00010487641906738281, 6.11328125) (-0.00010382123565673827, 6.115234375) (-0.00010281431579589843, 6.1171875) (-0.00010185688781738281, 6.119140625) (-0.00010094987487792968, 6.12109375) (-0.000100093994140625, 6.123046875) (-9.928961181640624e-05, 6.125) (-9.853675842285156e-05, 6.126953125) (-9.783521270751953e-05, 6.12890625) (-9.718452453613281e-05, 6.130859375) (-9.658401489257812e-05, 6.1328125) (-9.60328369140625e-05, 6.134765625) (-9.552986907958984e-05, 6.13671875) (-9.507383728027344e-05, 6.138671875) (-9.466331481933594e-05, 6.140625) (-9.429679107666016e-05, 6.142578125) (-9.397262573242186e-05, 6.14453125) (-9.368901824951171e-05, 6.146484375) (-9.344397735595702e-05, 6.1484375) (-9.323526763916015e-05, 6.150390625) (-9.306063079833984e-05, 6.15234375) (-9.291770935058594e-05, 6.154296875) (-9.280419158935547e-05, 6.15625) (-9.271773529052734e-05, 6.158203125) (-9.265592193603515e-05, 6.16015625) (-9.261621856689453e-05, 6.162109375) (-9.259619903564453e-05, 6.1640625) (-9.25936050415039e-05, 6.166015625) (-9.26060333251953e-05, 6.16796875) (-9.263103485107422e-05, 6.169921875) (-9.26658477783203e-05, 6.171875) (-9.270729064941406e-05, 6.173828125) (-9.27522964477539e-05, 6.17578125) (-9.279783630371093e-05, 6.177734375) (-9.284062194824219e-05, 6.1796875) (-9.28771743774414e-05, 6.181640625) (-9.290379333496093e-05, 6.18359375) (-9.291666412353515e-05, 6.185546875) (-9.291205596923827e-05, 6.1875) (-9.288636016845702e-05, 6.189453125) (-9.283575439453125e-05, 6.19140625) (-9.275614929199218e-05, 6.193359375) (-9.264343261718749e-05, 6.1953125) (-9.249348449707031e-05, 6.197265625) (-9.23024444580078e-05, 6.19921875) (-9.206671142578125e-05, 6.201171875) (-9.178260803222656e-05, 6.203125) (-9.144668579101561e-05, 6.205078125) (-9.105574035644531e-05, 6.20703125) (-9.060697937011718e-05, 6.208984375) (-9.009825897216796e-05, 6.2109375) (-8.952801513671874e-05, 6.212890625) (-8.889478302001953e-05, 6.21484375) (-8.819716644287109e-05, 6.216796875) (-8.743402099609374e-05, 6.21875) (-8.660439300537108e-05, 6.220703125) (-8.570802307128906e-05, 6.22265625) (-8.474537658691405e-05, 6.224609375) (-8.371673583984375e-05, 6.2265625) (-8.262226867675781e-05, 6.228515625) (-8.146295166015625e-05, 6.23046875) (-8.024091339111328e-05, 6.232421875) (-7.895989227294921e-05, 6.234375) (-7.762541961669922e-05, 6.236328125) (-7.624331665039062e-05, 6.23828125) (-7.481919860839843e-05, 6.240234375) (-7.33599853515625e-05, 6.2421875) (-7.187373352050781e-05, 6.244140625) (-7.036864471435547e-05, 6.24609375) (-6.885282897949219e-05, 6.248046875) (-6.733314514160156e-05, 6.25) (-6.581427001953125e-05, 6.251953125) (-6.43013916015625e-05, 6.25390625) (-6.280148315429687e-05, 6.255859375) (-6.132176971435546e-05, 6.2578125) (-5.987078094482422e-05, 6.259765625) (-5.8457885742187494e-05, 6.26171875) (-5.7091190338134766e-05, 6.263671875) (-5.577967834472656e-05, 6.265625) (-5.4533126831054686e-05, 6.267578125) (-5.335909271240234e-05, 6.26953125) (-5.226393127441406e-05, 6.271484375) (-5.125115966796875e-05, 6.2734375) (-5.031953430175781e-05, 6.275390625) (-4.946993255615234e-05, 6.27734375) (-4.870569610595703e-05, 6.279296875) (-4.803243637084961e-05, 6.28125) (-4.746331787109375e-05, 6.283203125) (-4.701173400878906e-05, 6.28515625) (-4.668583297729492e-05, 6.287109375) (-4.649440002441406e-05, 6.2890625) (-4.6442626953124995e-05, 6.291015625) (-4.652377700805664e-05, 6.29296875) (-4.6727836608886715e-05, 6.294921875) (-4.703607559204101e-05, 6.296875) (-4.741479110717773e-05, 6.298828125) (-4.783589172363281e-05, 6.30078125) (-4.827404403686523e-05, 6.302734375) (-4.870294952392578e-05, 6.3046875) (-4.910631561279297e-05, 6.306640625) (-4.946577453613281e-05, 6.30859375) (-4.976079177856445e-05, 6.310546875) (-4.997351837158203e-05, 6.3125) (-5.0077117919921876e-05, 6.314453125) (-5.003775787353515e-05, 6.31640625) (-4.9827972412109374e-05, 6.318359375) (-4.942651748657226e-05, 6.3203125) (-4.883090209960937e-05, 6.322265625) (-4.807896041870117e-05, 6.32421875) (-4.72138557434082e-05, 6.326171875) (-4.6291076660156245e-05, 6.328125) (-4.538599395751953e-05, 6.330078125) (-4.455069351196289e-05, 6.33203125) (-4.3858730316162104e-05, 6.333984375) (-4.3394344329833985e-05, 6.3359375) (-4.3208641052246094e-05, 6.337890625) (-4.3357894897460936e-05, 6.33984375) (-4.388990402221679e-05, 6.341796875) (-4.4821247100830076e-05, 6.34375) (-4.6235908508300776e-05, 6.345703125) (-4.828018188476562e-05, 6.34765625) (-5.097003173828125e-05, 6.349609375) (-5.424085998535156e-05, 6.3515625) (-5.7920928955078125e-05, 6.353515625) (-6.159643936157227e-05, 