(2.1982112884521484e-05, 0.0) (2.7659616470336913e-05, 0.001953125) (3.2508693695068355e-05, 0.00390625) (3.636723327636718e-05, 0.005859375) (3.909450912475586e-05, 0.0078125) (4.058950042724609e-05, 0.009765625) (4.077149200439453e-05, 0.01171875) (3.9548736572265625e-05, 0.013671875) (3.684287643432617e-05, 0.015625) (3.2618358612060544e-05, 0.017578125) (2.6873346328735352e-05, 0.01953125) (1.9686664581298827e-05, 0.021484375) (1.1201569557189941e-05, 0.0234375) (1.5829675197601318e-06, 0.025390625) (-8.95201301574707e-06, 0.02734375) (-2.0178829193115235e-05, 0.029296875) (-3.1868331909179686e-05, 0.03125) (-4.373603057861328e-05, 0.033203125) (-5.549640655517578e-05, 0.03515625) (-6.691545104980469e-05, 0.037109375) (-7.779302978515624e-05, 0.0390625) (-8.795988464355469e-05, 0.041015625) (-9.727763366699218e-05, 0.04296875) (-0.00010557720947265624, 0.044921875) (-0.00011267623901367187, 0.046875) (-0.00011844776916503906, 0.048828125) (-0.00012280015563964844, 0.05078125) (-0.00012570697021484375, 0.052734375) (-0.0001272102279663086, 0.0546875) (-0.0001273685073852539, 0.056640625) (-0.00012627474975585937, 0.05859375) (-0.0001240533981323242, 0.060546875) (-0.00012084539794921874, 0.0625) (-0.00011683557891845702, 0.064453125) (-0.00011223162841796875, 0.06640625) (-0.00010718932342529297, 0.068359375) (-0.00010182283020019531, 0.0703125) (-9.623260498046874e-05, 0.072265625) (-9.049324035644531e-05, 0.07421875) (-8.471139526367187e-05, 0.076171875) (-7.902354431152343e-05, 0.078125) (-7.35230712890625e-05, 0.080078125) (-6.82753677368164e-05, 0.08203125) (-6.332101440429687e-05, 0.083984375) (-5.866326904296875e-05, 0.0859375) (-5.430273056030273e-05, 0.087890625) (-5.023464202880859e-05, 0.08984375) (-4.641910934448242e-05, 0.091796875) (-4.279424667358398e-05, 0.09375) (-3.92790412902832e-05, 0.095703125) (-3.5772777557373044e-05, 0.09765625) (-3.221308898925781e-05, 0.099609375) (-2.8575214385986326e-05, 0.1015625) (-2.483983039855957e-05, 0.103515625) (-2.100357437133789e-05, 0.10546875) (-1.705152130126953e-05, 0.107421875) (-1.295117950439453e-05, 0.109375) (-8.69513988494873e-06, 0.111328125) (-4.296011924743652e-06, 0.11328125) (2.344493865966797e-07, 0.115234375) (4.876916885375977e-06, 0.1171875) (9.614335060119628e-06, 0.119140625) (1.4435823440551758e-05, 0.12109375) (1.9308418273925782e-05, 0.123046875) (2.4181930541992187e-05, 0.125) (2.900286293029785e-05, 0.126953125) (3.3710594177246095e-05, 0.12890625) (3.826109313964844e-05, 0.130859375) (4.262972259521484e-05, 0.1328125) (4.679372406005859e-05, 0.134765625) (5.0735988616943356e-05, 0.13671875) (5.44423828125e-05, 0.138671875) (5.789740753173828e-05, 0.140625) (6.109596633911132e-05, 0.142578125) (6.404338836669922e-05, 0.14453125) (6.674029541015624e-05, 0.146484375) (6.918466186523437e-05, 0.1484375) (7.13741455078125e-05, 0.150390625) (7.330348205566406e-05, 0.15234375) (7.497522735595702e-05, 0.154296875) (7.639990234375e-05, 0.15625) (7.75880889892578e-05, 0.158203125) (7.855141448974609e-05, 0.16015625) (7.930026245117187e-05, 0.162109375) (7.984228515625e-05, 0.1640625) (8.018615722656249e-05, 0.166015625) (8.03413848876953e-05, 0.16796875) (8.031518554687499e-05, 0.169921875) (8.011319732666015e-05, 0.171875) (7.973992919921875e-05, 0.173828125) (7.919818878173827e-05, 0.17578125) (7.849312591552734e-05, 0.177734375) (7.763233947753906e-05, 0.1796875) (7.662364196777343e-05, 0.181640625) (7.547541809082031e-05, 0.18359375) (7.419601440429687e-05, 0.185546875) (7.279309844970702e-05, 0.1875) (7.127477264404297e-05, 0.189453125) (6.964972686767577e-05, 0.19140625) (6.792567443847655e-05, 0.193359375) (6.610943603515625e-05, 0.1953125) (6.420750427246094e-05, 0.197265625) (6.222572708129882e-05, 0.19921875) (6.01701774597168e-05, 0.201171875) (5.80473518371582e-05, 0.203125) (5.586354827880859e-05, 0.205078125) (5.362484741210937e-05, 0.20703125) (5.133748245239258e-05, 0.208984375) (4.900775146484375e-05, 0.2109375) (4.664198684692383e-05, 0.212890625) (4.424674224853515e-05, 0.21484375) (4.1828285217285154e-05, 0.216796875) (3.939260101318359e-05, 0.21875) (3.694586181640625e-05, 0.220703125) (3.4494384765625e-05, 0.22265625) (3.204458618164062e-05, 0.224609375) (2.9603141784667968e-05, 0.2265625) (2.7176803588867187e-05, 0.228515625) (2.4772377014160155e-05, 0.23046875) (2.2397079467773436e-05, 0.232421875) (2.00584716796875e-05, 0.234375) (1.776408576965332e-05, 0.236328125) (1.5521488189697265e-05, 0.23828125) (1.333808135986328e-05, 0.240234375) (1.1221021652221679e-05, 0.2421875) (9.17749786376953e-06, 0.244140625) (7.214690685272217e-06, 0.24609375) (5.339528560638427e-06, 0.248046875) (3.5587053298950196e-06, 0.25) (1.8786221742630004e-06, 0.251953125) (3.052607774734497e-07, 0.25390625) (-1.155552864074707e-06, 0.255859375) (-2.4982566833496094e-06, 0.2578125) (-3.717886924743652e-06, 0.259765625) (-4.810112953186035e-06, 0.26171875) (-5.771414756774902e-06, 0.263671875) (-6.5991868972778315e-06, 0.265625) (-7.29161262512207e-06, 0.267578125) (-7.847744464874267e-06, 0.26953125) (-8.267730712890624e-06, 0.271484375) (-8.552810668945311e-06, 0.2734375) (-8.705330848693847e-06, 0.275390625) (-8.72879409790039e-06, 0.27734375) (-8.627721786499022e-06, 0.279296875) (-8.407674789428711e-06, 0.28125) (-8.075427055358886e-06, 0.283203125) (-7.638915061950684e-06, 0.28515625) (-7.107237815856933e-06, 0.287109375) (-6.4906396865844726e-06, 0.2890625) (-5.8003320693969725e-06, 0.291015625) (-5.048430919647217e-06, 0.29296875) (-4.247989177703857e-06, 0.294921875) (-3.412893295288086e-06, 0.296875) (-2.5576956272125244e-06, 0.298828125) (-1.6975185871124267e-06, 0.30078125) (-8.478623628616333e-07, 0.302734375) (-2.448722720146179e-08, 0.3046875) (7.56503939628601e-07, 0.306640625) (1.4788024425506592e-06, 0.30859375) (2.1260643005371095e-06, 0.310546875) (2.682032585144043e-06, 0.3125) (3.130740165710449e-06, 0.314453125) (3.4566032886505126e-06, 0.31640625) (3.644513607025146e-06, 0.318359375) (3.6800603866577145e-06, 0.3203125) (3.549760580062866e-06, 0.322265625) (3.241189956665039e-06, 0.32421875) (2.74314546585083e-06, 0.326171875) (2.045743703842163e-06, 0.328125) (1.140434145927429e-06, 0.330078125) (2.022874355316162e-08, 0.33203125) (-1.320242166519165e-06, 0.333984375) (-2.8847460746765135e-06, 0.3359375) (-4.675306320190429e-06, 0.337890625) (-6.6921777725219725e-06, 0.33984375) (-8.933856010437012e-06, 0.341796875) (-1.1396997451782225e-05, 0.34375) (-1.4076251983642577e-05, 0.345703125) (-1.6964313507080077e-05, 0.34765625) (-2.005190658569336e-05, 0.349609375) (-2.33277530670166e-05, 0.3515625) (-2.6778957366943358e-05, 0.353515625) (-3.0391105651855467e-05, 0.35546875) (-3.414813232421875e-05, 0.357421875) (-3.803252410888672e-05, 0.359375) (-4.202574920654297e-05, 0.361328125) (-4.610831451416015e-05, 0.36328125) (-5.0260219573974606e-05, 0.365234375) (-5.4461143493652344e-05, 0.3671875) (-5.868988037109375e-05, 0.369140625) (-6.292472076416016e-05, 0.37109375) (-6.714383697509766e-05, 0.373046875) (-7.132522583007812e-05, 0.375) (-7.544721221923827e-05, 0.376953125) (-7.948833465576172e-05, 0.37890625) (-8.34271240234375e-05, 0.380859375) (-8.724266815185546e-05, 0.3828125) (-9.09149932861328e-05, 0.384765625) (-9.44248046875e-05, 0.38671875) (-9.775430297851562e-05, 0.388671875) (-0.00010088700866699218, 0.390625) (-0.000103806884765625, 0.392578125) (-0.00010649977111816406, 0.39453125) (-0.0001089530029296875, 0.396484375) (-0.00011115489959716796, 0.3984375) (-0.00011309664916992187, 0.400390625) (-0.00011477117919921874, 0.40234375) (-0.00011617206573486327, 0.404296875) (-0.00011729478454589843, 0.40625) (-0.00011813661193847656, 0.408203125) (-0.00011869586181640624, 0.41015625) (-0.00011897390747070312, 0.412109375) (-0.0001189744644165039, 0.4140625) (-0.00011870148468017577, 0.416015625) (-0.00011816119384765624, 0.41796875) (-0.00011736027526855468, 0.419921875) (-0.00011630569458007812, 0.421875) (-0.00011500728607177734, 0.423828125) (-0.00011347398376464843, 0.42578125) (-0.00011171340942382813, 0.427734375) (-0.00010973251342773437, 0.4296875) (-0.00010753425598144531, 0.431640625) (-0.00010512096405029296, 0.43359375) (-0.00010249832153320312, 0.435546875) (-9.96722183227539e-05, 0.4375) (-9.66500015258789e-05, 0.439453125) (-9.344378662109375e-05, 0.44140625) (-9.006591796874999e-05, 0.443359375) (-8.653099822998046e-05, 0.4453125) (-8.285740661621094e-05, 0.447265625) (-7.906057739257812e-05, 0.44921875) (-7.515850067138672e-05, 0.451171875) (-7.11714859008789e-05, 0.453125) (-6.711483764648437e-05, 0.455078125) (-6.300552368164062e-05, 0.45703125) (-5.885737609863281e-05, 0.458984375) (-5.468227005004883e-05, 0.4609375) (-5.050693893432617e-05, 0.462890625) (-4.635648345947265e-05, 0.46484375) (-4.22525749206543e-05, 0.466796875) (-3.8218101501464845e-05, 0.46875) (-3.424573135375976e-05, 0.470703125) (-3.0315509796142577e-05, 0.47265625) (-2.641347312927246e-05, 0.474609375) (-2.2504329681396485e-05, 0.4765625) (-1.8558465957641602e-05, 0.478515625) (-1.4572393417358397e-05, 0.48046875) (-1.0480859756469726e-05, 0.482421875) (-6.212146759033203e-06, 0.484375) (-1.7998243570327758e-06, 0.486328125) (2.760506153106689e-06, 0.48828125) (7.445123672485351e-06, 0.490234375) (1.2168307304382324e-05, 0.4921875) (1.702033233642578e-05, 0.494140625) (2.2109889984130857e-05, 0.49609375) (2.7359066009521484e-05, 0.498046875) (3.274671173095703e-05, 0.5) (3.837744903564453e-05, 0.501953125) (4.42007942199707e-05, 0.50390625) (5.0349941253662105e-05, 0.505859375) (5.704445266723633e-05, 0.5078125) (6.409036254882812e-05, 0.509765625) (7.144474029541015e-05, 0.51171875) (7.9255126953125e-05, 0.513671875) (8.740380859375e-05, 0.515625) (9.579402923583983e-05, 0.517578125) (0.00010451376342773437, 0.51953125) (0.00011311953735351562, 0.521484375) (0.00012102162933349609, 0.5234375) (0.00012799967193603514, 0.525390625) (0.00013324981689453124, 0.52734375) (0.00013610218811035155, 0.529296875) (0.0001365653076171875, 0.53125) (0.00013412094116210937, 0.533203125) (0.00012809840393066406, 0.53515625) (0.00011900173187255859, 0.537109375) (0.00010752035522460937, 0.5390625) (9.525829315185547e-05, 0.541015625) (8.587544250488281e-05, 0.54296875) (8.09535675048828e-05, 0.544921875) (8.053349304199219e-05, 0.546875) (8.440571594238281e-05, 0.548828125) (9.040923309326171e-05, 0.55078125) (9.920631408691405e-05, 0.552734375) (0.00011370265197753906, 0.5546875) (0.00013671493530273437, 0.556640625) (0.00017194689941406248, 0.55859375) (0.00021930270385742186, 0.560546875) (0.0002764465942382812, 0.5625) (0.00033887741088867184, 0.564453125) (0.0003970151672363281, 0.56640625) (0.00044229180908203123, 0.568359375) (0.00046542965698242187, 0.5703125) (0.0004575512084960937, 0.572265625) (0.00041866064453125, 0.57421875) (0.0003513983764648437, 0.576171875) (0.0002610281066894531, 0.578125) (0.00016015409851074218, 0.580078125) (5.888167572021484e-05, 0.58203125) (-3.1686826705932614e-05, 0.583984375) (-9.747003173828125e-05, 0.5859375) (-0.0001342003173828125, 0.587890625) (-0.0001430121612548828, 0.58984375) (-0.00013032067871093748, 0.591796875) (-0.00010982079315185546, 0.59375) (-8.915575408935546e-05, 0.595703125) (-7.038917541503905e-05, 0.59765625) (-5.271614074707031e-05, 0.599609375) (-3.191745376586914e-05, 0.6015625) (-7.5860166549682615e-06, 0.603515625) (1.7658973693847656e-05, 0.60546875) (4.091300582885742e-05, 0.607421875) (5.897132873535156e-05, 0.609375) (7.069479370117187e-05, 0.611328125) (7.627677917480469e-05, 0.61328125) (7.615624237060546e-05, 0.615234375) (7.174982452392577e-05, 0.6171875) (6.458609771728516e-05, 0.619140625) (5.588094711303711e-05, 0.62109375) (4.703013610839843e-05, 0.623046875) (3.88067626953125e-05, 0.625) (3.1569122314453124e-05, 0.626953125) (2.5960088729858397e-05, 0.62890625) (2.226975631713867e-05, 0.630859375) (2.0286396026611327e-05, 0.6328125) (1.9641273498535157e-05, 0.634765625) (1.9699310302734373e-05, 0.63671875) (1.966856575012207e-05, 0.638671875) (1.9230377197265624e-05, 0.640625) (1.8289447784423826e-05, 0.642578125) (1.66168098449707e-05, 0.64453125) (1.4206865310668944e-05, 0.646484375) (1.1124324798583984e-05, 0.6484375) (7.420234203338623e-06, 0.650390625) (3.384543418884277e-06, 0.65234375) (-6.324498653411865e-07, 0.654296875) (-4.485831260681152e-06, 0.65625) (-8.114215850830078e-06, 0.658203125) (-1.1485641479492186e-05, 0.66015625) (-1.4665160179138184e-05, 0.662109375) (-1.7670869827270505e-05, 0.6640625) (-2.049068260192871e-05, 0.666015625) (-2.319247817993164e-05, 0.66796875) (-2.5846923828124998e-05, 0.669921875) (-2.850454330444336e-05, 0.671875) (-3.121185302734375e-05, 0.673828125) (-3.3980533599853515e-05, 0.67578125) (-3.6807540893554686e-05, 0.677734375) (-3.969477081298828e-05, 0.6796875) (-4.2640228271484375e-05, 0.681640625) (-4.564209747314453e-05, 0.68359375) (-4.8697029113769526e-05, 0.685546875) (-5.1788490295410153e-05, 0.6875) (-5.489374542236328e-05, 0.689453125) (-5.798735046386718e-05, 0.69140625) (-6.103804016113281e-05, 0.693359375) (-6.402500152587891e-05, 0.6953125) (-6.693256378173828e-05, 0.697265625) (-6.973943328857421e-05, 0.69921875) (-7.242655181884766e-05, 0.701171875) (-7.497052001953124e-05, 0.703125) (-7.734407806396483e-05, 0.705078125) (-7.952375793457031e-05, 0.70703125) (-8.148568725585937e-05, 0.708984375) (-8.320555114746094e-05, 0.7109375) (-8.466136932373046e-05, 0.712890625) (-8.583132934570312e-05, 0.71484375) (-8.669461822509765e-05, 0.716796875) (-8.72363052368164e-05, 0.71875) (-8.744562530517578e-05, 0.720703125) (-8.731411743164062e-05, 0.72265625) (-8.68349609375e-05, 0.724609375) (-8.599826049804687e-05, 0.7265625) (-8.479196166992187e-05, 0.728515625) (-8.320429992675781e-05, 0.73046875) (-8.122443389892578e-05, 0.732421875) (-7.884274291992187e-05, 0.734375) (-7.605119323730468e-05, 0.736328125) (-7.284432220458984e-05, 0.73828125) (-6.921971893310546e-05, 0.740234375) (-6.517906188964843e-05, 0.7421875) (-6.0730739593505853e-05, 0.744140625) (-5.5887969970703125e-05, 0.74609375) (-5.0663169860839843e-05, 0.748046875) (-4.506937408447265e-05, 0.75) (-3.9116111755371094e-05, 0.751953125) (-3.280781555175781e-05, 0.75390625) (-2.6157058715820313e-05, 0.755859375) (-1.9182403564453123e-05, 0.7578125) (-1.1903044700622558e-05, 0.759765625) (-4.347258567810058e-06, 0.76171875) (3.4496607780456542e-06, 0.763671875) (1.1447243690490722e-05, 0.765625) (1.9588020324707032e-05, 0.767578125) (2.7808917999267577e-05, 0.76953125) (3.60600357055664e-05, 0.771484375) (4.429582214355469e-05, 0.7734375) (5.2484008789062496e-05, 0.775390625) (6.061174392700195e-05, 0.77734375) (6.866060638427734e-05, 0.779296875) (7.661640930175781e-05, 0.78125) (8.447039794921874e-05, 0.783203125) (9.219547271728515e-05, 0.78515625) (9.97728042602539e-05, 0.787109375) (0.00010719467163085937, 0.7890625) (0.00011443758392333985, 0.791015625) (0.00012148662567138671, 0.79296875) (0.00012834260559082031, 0.794921875) (0.00013500839233398436, 0.796875) (0.0001415270538330078, 0.798828125) (0.00014796731567382813, 0.80078125) (0.00015436499023437498, 0.802734375) (0.0001607444152832031, 0.8046875) (0.00016711009216308594, 0.806640625) (0.0001734190216064453, 0.80859375) (0.00017963508605957032, 0.810546875) (0.00018571511840820312, 0.8125) (0.00019157473754882813, 0.814453125) (0.00019714857482910154, 0.81640625) (0.00020236677551269531, 0.818359375) (0.0002071366271972656, 0.8203125) (0.00021141081237792967, 0.822265625) (0.00021515353393554686, 0.82421875) (0.0002183109130859375, 0.826171875) (0.00022084324645996092, 0.828125) (0.0002226651916503906, 0.830078125) (0.00022364596557617185, 0.83203125) (0.0002237038116455078, 0.833984375) (0.00022278033447265623, 0.8359375) (0.0002208328399658203, 0.837890625) (0.000217886474609375, 0.83984375) (0.00021396182250976563, 0.841796875) (0.0002090821533203125, 0.84375) (0.00020336061096191404, 0.845703125) (0.00019691995239257812, 0.84765625) (0.00018989474487304686, 0.849609375) (0.00018246563720703124, 0.8515625) (0.00017475311279296874, 0.853515625) (0.00016684271240234374, 0.85546875) (0.00015884049987792968, 0.857421875) (0.000150830078125, 0.859375) (0.00014292489624023437, 0.861328125) (0.00013529086303710938, 0.86328125) (0.0001280509338378906, 0.865234375) (0.00012130145263671874, 0.8671875) (0.00011514683532714843, 0.869140625) (0.0001096423110961914, 0.87109375) (0.0001048537139892578, 0.873046875) (0.00010086329650878905, 0.875) (9.765285491943359e-05, 0.876953125) (9.51664810180664e-05, 0.87890625) (9.332964324951172e-05, 0.880859375) (9.201164245605469e-05, 0.8828125) (9.113318634033202e-05, 0.884765625) (9.065983581542969e-05, 0.88671875) (9.053834533691406e-05, 0.888671875) (9.073199462890625e-05, 0.890625) (9.120057678222656e-05, 0.892578125) (9.186775970458984e-05, 0.89453125) (9.268434143066406e-05, 0.896484375) (9.362533569335937e-05, 0.8984375) (9.4637451171875e-05, 0.900390625) (9.567822265624999e-05, 0.90234375) (9.6688720703125e-05, 0.904296875) (9.757971954345703e-05, 0.90625) (9.83267822265625e-05, 0.908203125) (9.894223022460937e-05, 0.91015625) (9.9451171875e-05, 0.912109375) (9.991807556152343e-05, 0.9140625) (0.00010037794494628905, 0.916015625) (0.00010082998657226562, 0.91796875) (0.00010128462219238281, 0.919921875) (0.00010174503326416015, 0.921875) (0.00010219988250732422, 0.923828125) (0.00010264786529541015, 0.92578125) (0.00010307057189941406, 0.927734375) (0.00010342772674560546, 0.9296875) (0.00010370289611816405, 0.931640625) (0.00010388587951660156, 0.93359375) (0.00010397427368164061, 0.935546875) (0.00010398750305175781, 0.9375) (0.00010391996765136719, 0.939453125) (0.00010374847412109374, 0.94140625) (0.00010344926452636718, 0.943359375) (0.00010298219299316406, 0.9453125) (0.0001023148193359375, 0.947265625) (0.00010143067932128906, 0.94921875) (0.00010030752563476563, 0.951171875) (9.892417907714843e-05, 0.953125) (9.727423858642578e-05, 0.955078125) (9.535142517089844e-05, 0.95703125) (9.31568603515625e-05, 0.958984375) (9.070629119873046e-05, 0.9609375) (8.800550842285156e-05, 0.962890625) (8.506153869628906e-05, 0.96484375) (8.188740539550781e-05, 0.966796875) (7.849254608154296e-05, 0.96875) (7.48973388671875e-05, 0.970703125) (7.111681365966796e-05, 0.97265625) (6.71540069580078e-05, 0.974609375) (6.301396942138671e-05, 0.9765625) (5.869584274291992e-05, 0.978515625) (5.421485137939453e-05, 0.98046875) (4.9612396240234375e-05, 0.982421875) (4.491966247558593e-05, 0.984375) (4.015682983398437e-05, 0.986328125) (3.5345191955566406e-05, 0.98828125) (3.0482927322387695e-05, 0.990234375) (2.5607387542724607e-05, 0.9921875) (2.0826101303100586e-05, 0.994140625) (1.61396369934082e-05, 0.99609375) (1.1456048011779785e-05, 0.998046875) (6.69889211654663e-06, 1.0) (1.7466322183609007e-06, 1.001953125) (-3.371332168579101e-06, 1.00390625) (-8.400211334228515e-06, 1.005859375) (-1.3231520652770996e-05, 1.0078125) (-1.7922691345214843e-05, 1.009765625) (-2.2318704605102538e-05, 1.01171875) (-2.615056037902832e-05, 1.013671875) (-2.9118072509765622e-05, 1.015625) (-3.075101852416992e-05, 1.017578125) (-3.103215217590332e-05, 1.01953125) (-3.0501504898071287e-05, 1.021484375) (-2.94539737701416e-05, 1.0234375) (-2.7971235275268554e-05, 1.025390625) (-2.6332368850708008e-05, 1.02734375) (-2.482885932922363e-05, 1.029296875) (-2.388840675354004e-05, 1.03125) (-2.4241682052612302e-05, 1.033203125) (-2.597786521911621e-05, 1.03515625) (-2.8453956604003906e-05, 1.037109375) (-3.12731876373291e-05, 1.0390625) (-3.421773910522461e-05, 1.041015625) (-3.704301071166992e-05, 1.04296875) (-3.968216323852539e-05, 1.044921875) (-4.1875732421874995e-05, 1.046875) (-4.3007999420166014e-05, 1.048828125) (-4.2951099395751953e-05, 1.05078125) (-4.213418579101562e-05, 1.052734375) (-4.0836112976074215e-05, 1.0546875) (-3.928444671630859e-05, 1.056640625) (-3.7643547058105466e-05, 1.05859375) (-3.5774967193603514e-05, 1.060546875) (-3.362335586547852e-05, 1.0625) (-3.1453535079956057e-05, 1.064453125) (-2.939211654663086e-05, 1.06640625) (-2.7373985290527342e-05, 1.068359375) (-2.544689178466797e-05, 1.0703125) (-2.3482961654663087e-05, 1.072265625) (-2.12068977355957e-05, 1.07421875) (-1.8651884078979493e-05, 1.076171875) (-1.59911470413208e-05, 1.078125) (-1.3164124488830566e-05, 1.080078125) (-1.007753276824951e-05, 1.08203125) (-6.603607654571533e-06, 1.083984375) (-2.4154109954833983e-06, 1.0859375) (2.3351311683654785e-06, 1.087890625) (6.959877967834473e-06, 1.08984375) (1.104417610168457e-05, 1.091796875) (1.43880615234375e-05, 1.09375) (1.6613155364990233e-05, 1.095703125) (1.7365703582763672e-05, 1.09765625) (1.617827033996582e-05, 1.099609375) (1.2295513153076172e-05, 1.1015625) (5.647158622741699e-06, 1.103515625) (-3.100664138793945e-06, 1.10546875) (-1.3528096199035644e-05, 1.107421875) (-2.5317880630493164e-05, 1.109375) (-3.804359436035156e-05, 1.111328125) (-5.139701080322265e-05, 1.11328125) (-6.486013793945313e-05, 1.115234375) (-7.762126159667968e-05, 1.1171875) (-8.944069671630859e-05, 1.119140625) (-0.00010064401245117187, 1.12109375) (-0.00011137765502929686, 1.123046875) (-0.00012173553466796874, 1.125) (-0.00013174147033691405, 1.126953125) (-0.00014120086669921873, 1.12890625) (-0.0001501120910644531, 1.130859375) (-0.00015868527221679686, 1.1328125) (-0.0001668760070800781, 1.134765625) (-0.00017440863037109373, 1.13671875) (-0.00018105889892578125, 1.138671875) (-0.00018664321899414062, 1.140625) (-0.00019113348388671874, 1.142578125) (-0.00019472811889648437, 1.14453125) (-0.00019758868408203123, 1.146484375) (-0.00019978286743164061, 1.1484375) (-0.00020141215515136717, 1.150390625) (-0.00020257812499999999, 1.15234375) (-0.0002033877258300781, 1.154296875) (-0.00020398854064941404, 1.15625) (-0.00020449438476562498, 1.158203125) (-0.00020493484497070312, 1.16015625) (-0.0002053197021484375, 1.162109375) (-0.00020572354125976563, 1.1640625) (-0.00020624942016601562, 1.166015625) (-0.00020698800659179687, 1.16796875) (-0.00020805256652832032, 1.169921875) (-0.00020942094421386718, 1.171875) (-0.00021091879272460936, 1.173828125) (-0.00021250914001464842, 1.17578125) (-0.00021415701293945311, 1.177734375) (-0.0002154209289550781, 1.1796875) (-0.00021595449829101563, 1.181640625) (-0.00021580538940429688, 1.18359375) (-0.0002147122802734375, 1.185546875) (-0.00021367489624023436, 1.1875) (-0.00021416207885742187, 1.189453125) (-0.00021567327880859375, 1.19140625) (-0.00021856793212890623, 1.193359375) (-0.00022188696289062498, 1.1953125) (-0.00022303271484375, 1.197265625) (-0.0002230928497314453, 1.19921875) (-0.0002230065155029297, 1.201171875) (-0.000225109619140625, 1.203125) (-0.00023469177246093748, 1.205078125) (-0.00025178131103515626, 1.20703125) (-0.0002729577026367187, 1.208984375) (-0.0002907742309570312, 1.2109375) (-0.0002934076232910156, 1.212890625) (-0.0002753074035644531, 1.21484375) (-0.00023666361999511717, 1.216796875) (-0.00018337396240234374, 1.21875) (-0.00012544649505615233, 1.220703125) (-6.673117065429687e-05, 1.22265625) (-9.788875579833984e-06, 1.224609375) (4.231272506713867e-05, 1.2265625) (8.499940490722655e-05, 1.228515625) (0.00010621794128417969, 1.23046875) (9.676000213623046e-05, 1.232421875) (5.4606315612792966e-05, 1.234375) (-1.6370662689208983e-05, 1.236328125) (-0.0001049397964477539, 1.23828125) (-0.00019991455078125, 1.240234375) (-0.0002937878723144531, 1.2421875) (-0.00037942431640625, 1.244140625) (-0.00044964666748046873, 1.24609375) (-0.0004995581359863281, 1.248046875) (-0.0005264205932617187, 1.25) (-0.0005330286865234374, 1.251953125) (-0.0005281995849609375, 1.25390625) (-0.0005185549926757813, 1.255859375) (-0.0005075785522460938, 1.2578125) (-0.0004953009643554687, 1.259765625) (-0.00047835644531249997, 1.26171875) (-0.0004565946350097656, 1.263671875) (-0.0004325671997070312, 1.265625) (-0.0004089989013671875, 1.267578125) (-0.0003889681701660156, 1.26953125) (-0.0003734354248046875, 1.271484375) (-0.00036192852783203125, 1.2734375) (-0.00035441030883789064, 1.275390625) (-0.00035018914794921873, 1.27734375) (-0.0003481109924316406, 1.279296875) (-0.00034699859619140625, 1.28125) (-0.00034551525878906246, 1.283203125) (-0.0003428822326660156, 1.28515625) (-0.0003389788818359375, 1.287109375) (-0.0003336360473632812, 1.2890625) (-0.0003264826354980469, 1.291015625) (-0.000317460693359375, 1.29296875) (-0.0003068433837890625, 1.294921875) (-0.00029525900268554685, 1.296875) (-0.00028358953857421875, 1.298828125) (-0.0002722930603027344, 1.30078125) (-0.0002614205932617187, 1.302734375) (-0.0002510139465332031, 1.3046875) (-0.00024114869689941405, 1.306640625) (-0.00023185923767089843, 1.30859375) (-0.0002231094970703125, 1.310546875) (-0.00021462066650390624, 1.3125) (-0.0002059324951171875, 1.314453125) (-0.00019679924011230468, 1.31640625) (-0.00018719674682617186, 1.318359375) (-0.00017720462036132812, 1.3203125) (-0.00016694900512695312, 1.322265625) (-0.00015648849487304688, 1.32421875) (-0.00014582644653320312, 1.326171875) (-0.00013501457214355468, 1.328125) (-0.00012419015502929687, 1.330078125) (-0.00011349219512939453, 1.33203125) (-0.00010302776336669921, 1.333984375) (-9.286756896972656e-05, 1.3359375) (-8.305110168457031e-05, 1.337890625) (-7.364118957519531e-05, 1.33984375) (-6.475939178466796e-05, 1.341796875) (-5.657090377807617e-05, 1.34375) (-4.919716644287109e-05, 1.345703125) (-4.2690101623535155e-05, 1.34765625) (-3.703196334838867e-05, 1.349609375) (-3.213850402832031e-05, 1.3515625) (-2.7948913574218748e-05, 1.353515625) (-2.443476104736328e-05, 1.35546875) (-2.156515121459961e-05, 1.357421875) (-1.9308025360107422e-05, 1.359375) (-1.7611474990844726e-05, 1.361328125) (-1.6411701202392577e-05, 1.36328125) (-1.566793727874756e-05, 1.365234375) (-1.5362265586853026e-05, 1.3671875) (-1.5462847709655762e-05, 1.369140625) (-1.592079925537109e-05, 1.37109375) (-1.664972686767578e-05, 1.373046875) (-1.7523204803466796e-05, 1.375) (-1.8454795837402343e-05, 1.376953125) (-1.9399871826171875e-05, 1.37890625) (-2.034729766845703e-05, 1.380859375) (-2.132784652709961e-05, 1.3828125) (-2.2349781036376953e-05, 1.384765625) (-2.3395839691162107e-05, 1.38671875) (-2.4455766677856443e-05, 1.388671875) (-2.552177810668945e-05, 1.390625) (-2.6587047576904294e-05, 1.392578125) (-2.764239501953125e-05, 1.39453125) (-2.865556716918945e-05, 1.396484375) (-2.9569145202636716e-05, 1.3984375) (-3.0336421966552732e-05, 1.400390625) (-3.092950057983398e-05, 1.40234375) (-3.13450927734375e-05, 1.404296875) (-3.160324668884277e-05, 1.40625) (-3.1706764221191407e-05, 1.408203125) (-3.164622116088867e-05, 1.41015625) (-3.1404485702514645e-05, 1.412109375) (-3.095854568481445e-05, 1.4140625) (-3.0310733795166014e-05, 1.416015625) (-2.9470741271972655e-05, 1.41796875) (-2.844076919555664e-05, 1.419921875) (-2.7217021942138672e-05, 1.421875) (-2.5783643722534177e-05, 1.423828125) (-2.412886619567871e-05, 1.42578125) (-2.2257902145385743e-05, 1.427734375) (-2.0190475463867186e-05, 1.4296875) (-1.794330024719238e-05, 1.431640625) (-1.5515348434448242e-05, 1.43359375) (-1.2879936218261719e-05, 1.435546875) (-9.999555587768554e-06, 1.4375) (-6.852443218231201e-06, 1.439453125) (-3.4154005050659178e-06, 1.44140625) (3.326731026172638e-07, 1.443359375) (4.424000740051269e-06, 1.4453125) (8.927848815917969e-06, 1.447265625) (1.3897384643554688e-05, 1.44921875) (1.936195182800293e-05, 1.451171875) (2.5334747314453123e-05, 1.453125) (3.178746795654297e-05, 1.455078125) (3.867802047729492e-05, 1.45703125) (4.5970104217529296e-05, 1.458984375) (5.361711883544922e-05, 1.4609375) (6.155029678344726e-05, 1.462890625) (6.967786407470703e-05, 1.46484375) (7.786677551269531e-05, 1.466796875) (8.596548461914061e-05, 1.46875) (9.385523223876953e-05, 1.470703125) (0.00010141704559326172, 1.47265625) (0.00010853294372558593, 1.474609375) (0.00011507611083984374, 1.4765625) (0.00012087346649169921, 1.478515625) (0.00012577693176269532, 1.48046875) (0.000129681396484375, 1.482421875) (0.0001325061340332031, 1.484375) (0.00013421969604492188, 1.486328125) (0.00013481732177734375, 1.48828125) (0.00013429508972167967, 1.490234375) (0.00013267434692382812, 1.4921875) (0.000130025634765625, 1.494140625) (0.00012644618225097655, 1.49609375) (0.0001220785217285156, 1.498046875) (0.00011709526062011718, 1.5) (0.00011162572479248046, 1.501953125) (0.00010579213714599609, 1.50390625) (9.971993255615233e-05, 1.505859375) (9.353492736816406e-05, 1.5078125) (8.739994812011719e-05, 1.509765625) (8.146244812011719e-05, 1.51171875) (7.58275375366211e-05, 1.513671875) (7.05784454345703e-05, 1.515625) (6.577433776855469e-05, 1.517578125) (6.14573516845703e-05, 1.51953125) (5.767210006713867e-05, 1.521484375) (5.4446937561035156e-05, 1.5234375) (5.176248931884765e-05, 1.525390625) (4.958131027221679e-05, 1.52734375) (4.7840404510498044e-05, 1.529296875) (4.645349884033203e-05, 1.53125) (4.537021255493164e-05, 1.533203125) (4.455287170410156e-05, 1.53515625) (4.396022033691406e-05, 1.537109375) (4.3557128906249996e-05, 1.5390625) (4.3294662475585934e-05, 1.541015625) (4.3128585815429685e-05, 1.54296875) (4.3040477752685545e-05, 1.544921875) (4.3025543212890626e-05, 1.546875) (4.307723617553711e-05, 1.548828125) (4.318991088867187e-05, 1.55078125) (4.335234069824219e-05, 1.552734375) (4.355389785766601e-05, 1.5546875) (4.380735778808594e-05, 1.556640625) (4.4131027221679685e-05, 1.55859375) (4.4546386718749996e-05, 1.560546875) (4.5081573486328126e-05, 1.5625) (4.574588775634765e-05, 1.564453125) (4.6537677764892575e-05, 1.56640625) (4.745485687255859e-05, 1.568359375) (4.8488151550292966e-05, 1.5703125) (4.962524795532226e-05, 1.572265625) (5.0851470947265626e-05, 1.57421875) (5.214115142822266e-05, 1.576171875) (5.3461078643798825e-05, 1.578125) (5.478385543823242e-05, 1.580078125) (5.608467483520508e-05, 1.58203125) (5.734072113037109e-05, 1.583984375) (5.8532035827636716e-05, 1.5859375) (5.9632820129394526e-05, 1.587890625) (6.061598205566406e-05, 1.58984375) (6.145676040649414e-05, 1.591796875) (6.213064575195312e-05, 1.59375) (6.261745071411132e-05, 1.595703125) (6.290093612670898e-05, 1.59765625) (6.296653747558594e-05, 1.599609375) (6.28034210205078e-05, 1.6015625) (6.240429306030273e-05, 1.603515625) (6.176319885253906e-05, 1.60546875) (6.087703323364258e-05, 1.607421875) (5.974562835693359e-05, 1.609375) (5.836893081665039e-05, 1.611328125) (5.674824523925781e-05, 1.61328125) (5.488616561889648e-05, 1.615234375) (5.278571319580078e-05, 1.6171875) (5.045282363891601e-05, 1.619140625) (4.789638137817382e-05, 1.62109375) (4.512845611572266e-05, 1.623046875) (4.216471099853515e-05, 1.625) (3.902154159545898e-05, 1.626953125) (3.571610641479492e-05, 1.62890625) (3.2264904022216794e-05, 1.630859375) (2.868317413330078e-05, 1.6328125) (2.4990665435791013e-05, 1.634765625) (2.121148681640625e-05, 1.63671875) (1.7372711181640626e-05, 1.638671875) (1.3504652023315429e-05, 1.640625) (9.636185646057128e-06, 1.642578125) (5.793787002563476e-06, 1.64453125) (2.0055925846099854e-06, 1.646484375) (-1.6993458271026611e-06, 1.6484375) (-5.295161247253418e-06, 1.650390625) (-8.758336067199707e-06, 1.65234375) (-1.207273769378662e-05, 1.654296875) (-1.5230003356933594e-05, 1.65625) (-1.8218456268310545e-05, 1.658203125) (-2.1025718688964843e-05, 1.66015625) (-2.363245964050293e-05, 1.662109375) (-2.601087188720703e-05, 1.6640625) (-2.8147186279296875e-05, 1.666015625) (-3.0038375854492186e-05, 1.66796875) (-3.169842910766601e-05, 1.669921875) (-3.316280364990234e-05, 1.671875) (-3.444962692260742e-05, 1.673828125) (-3.555877685546875e-05, 1.67578125) (-3.648590850830078e-05, 1.677734375) (-3.7214847564697266e-05, 1.6796875) (-3.774501037597656e-05, 1.681640625) (-3.811021041870117e-05, 1.68359375) (-3.830216979980468e-05, 1.685546875) (-3.826509475708008e-05, 1.6875) (-3.800905990600586e-05, 1.689453125) (-3.75829963684082e-05, 1.69140625) (-3.7144248962402345e-05, 1.693359375) (-3.698616790771484e-05, 1.6953125) (-3.723258590698242e-05, 1.697265625) (-3.7804954528808594e-05, 1.69921875) (-3.859591674804687e-05, 1.701171875) (-3.945453643798828e-05, 1.703125) (-4.018467712402344e-05, 1.705078125) (-4.0625858306884765e-05, 1.70703125) (-4.0355533599853514e-05, 1.708984375) (-3.8659034729003904e-05, 1.7109375) (-3.522456359863281e-05, 1.712890625) (-3.0164581298828125e-05, 1.71484375) (-2.3844387054443357e-05, 1.716796875) (-1.693182945251465e-05, 1.71875) (-1.0003532409667969e-05, 1.720703125) (-3.428604125976562e-06, 1.72265625) (2.1008095741271973e-06, 1.724609375) (5.57876968383789e-06, 1.7265625) (6.4839086532592774e-06, 1.728515625) (4.7678394317626955e-06, 1.73046875) (8.370898962020873e-07, 1.732421875) (-4.383431434631348e-06, 1.734375) (-1.020573043823242e-05, 1.736328125) (-1.6271862030029295e-05, 1.73828125) (-2.2006582260131836e-05, 1.740234375) (-2.6675350189208982e-05, 1.7421875) (-2.9854076385498044e-05, 1.744140625) (-3.139491271972656e-05, 1.74609375) (-3.157363128662109e-05, 1.748046875) (-3.112660217285156e-05, 1.75) (-3.054073715209961e-05, 1.751953125) (-3.0017065048217773e-05, 1.75390625) (-2.9804388046264647e-05, 1.755859375) (-3.0133096694946288e-05, 1.7578125) (-3.115670776367187e-05, 1.759765625) (-3.297986602783203e-05, 1.76171875) (-3.5484230041503907e-05, 1.763671875) (-3.832759094238281e-05, 1.765625) (-4.129790496826172e-05, 1.767578125) (-4.431179809570312e-05, 1.76953125) (-4.731575012207031e-05, 1.771484375) (-5.0321517944335934e-05, 1.7734375) (-5.331025695800781e-05, 1.775390625) (-5.622303009033203e-05, 1.77734375) (-5.905142593383789e-05, 1.779296875) (-6.182617568969726e-05, 1.78125) (-6.455228424072265e-05, 1.783203125) (-6.721649932861328e-05, 1.78515625) (-6.978388977050781e-05, 1.787109375) (-7.219178771972657e-05, 1.7890625) (-7.439874267578124e-05, 1.791015625) (-7.638443756103515e-05, 1.79296875) (-7.81330337524414e-05, 1.794921875) (-7.963869476318359e-05, 1.796875) (-8.089305877685547e-05, 1.798828125) (-8.188381958007812e-05, 1.80078125) (-8.260169982910156e-05, 1.802734375) (-8.30386962890625e-05, 1.8046875) (-8.318962097167968e-05, 1.806640625) (-8.305331420898437e-05, 1.80859375) (-8.263066864013672e-05, 1.810546875) (-8.192491149902343e-05, 1.8125) (-8.094156646728516e-05, 1.814453125) (-7.96869888305664e-05, 1.81640625) (-7.817005157470702e-05, 1.818359375) (-7.64022216796875e-05, 1.8203125) (-7.439573669433593e-05, 1.822265625) (-7.216334533691406e-05, 1.82421875) (-6.971752166748046e-05, 1.826171875) (-6.70703353881836e-05, 1.828125) (-6.423275756835937e-05, 1.830078125) (-6.121546936035156e-05, 1.83203125) (-5.803252792358398e-05, 1.833984375) (-5.470187377929687e-05, 1.8359375) (-5.124405670166015e-05, 1.837890625) (-4.7680805206298824e-05, 1.83984375) (-4.4032272338867184e-05, 1.841796875) (-4.0315658569335936e-05, 1.84375) (-3.654953002929687e-05, 1.845703125) (-3.275651550292969e-05, 1.84765625) (-2.896442413330078e-05, 1.849609375) (-2.5205772399902342e-05, 1.8515625) (-2.1509452819824216e-05, 1.853515625) (-1.7901615142822266e-05, 1.85546875) (-1.4402792930603027e-05, 1.857421875) (-1.1026391983032226e-05, 1.859375) (-7.80090856552124e-06, 1.861328125) (-4.764196872711181e-06, 1.86328125) (-1.9508864879608153e-06, 1.865234375) (6.03036105632782e-07, 1.8671875) (2.8899526596069336e-06, 1.869140625) (4.928753852844238e-06, 1.87109375) (6.720285892486572e-06, 1.873046875) (8.249298095703124e-06, 1.875) (9.493863105773925e-06, 1.876953125) (1.0415793418884276e-05, 1.87890625) (1.1035337448120116e-05, 1.880859375) (1.1457275390625e-05, 1.8828125) (1.1694154739379882e-05, 1.884765625) (1.1661695480346679e-05, 1.88671875) (1.1270574569702148e-05, 1.888671875) (1.0383968353271484e-05, 1.890625) (9.015558242797851e-06, 1.892578125) (7.406842708587646e-06, 1.89453125) (5.6793694496154785e-06, 1.896484375) (3.7542548179626463e-06, 1.8984375) (1.7128477096557616e-06, 1.900390625) (-1.8239757418632507e-07, 1.90234375) (-1.5748164653778075e-06, 1.904296875) (-1.8675789833068847e-06, 1.90625) (-7.832913398742675e-07, 1.908203125) (1.3332159519195556e-06, 1.91015625) (4.166483402252197e-06, 1.912109375) (7.594066619873046e-06, 1.9140625) (1.1261748313903807e-05, 1.916015625) (1.4592954635620117e-05, 1.91796875) (1.6877254486083985e-05, 1.919921875) (1.698508071899414e-05, 1.921875) (1.4110295295715332e-05, 1.923828125) (8.393522262573241e-06, 1.92578125) (2.1921634674072264e-07, 1.927734375) (-1.001054573059082e-05, 1.9296875) (-2.153519058227539e-05, 1.931640625) (-3.3367778778076174e-05, 1.93359375) (-4.451014328002929e-05, 1.935546875) (-5.357912826538086e-05, 1.9375) (-5.932735443115234e-05, 1.939453125) (-6.142414093017577e-05, 1.94140625) (-5.998246002197265e-05, 1.943359375) (-5.5346595764160154e-05, 1.9453125) (-4.833129501342773e-05, 1.947265625) (-3.995309829711914e-05, 1.94921875) (-3.101961326599121e-05, 1.951171875) (-2.2482152938842772e-05, 1.953125) (-1.533653163909912e-05, 1.955078125) (-1.0002257347106932e-05, 1.95703125) (-6.565186023712158e-06, 1.958984375) (-4.899129867553711e-06, 1.9609375) (-4.433645248413086e-06, 1.962890625) (-4.4689111709594725e-06, 1.96484375) (-4.635221004486084e-06, 1.966796875) (-4.647844314575195e-06, 1.96875) (-4.2079772949218744e-06, 1.970703125) (-3.2673959732055664e-06, 1.97265625) (-1.8068084716796873e-06, 1.974609375) (1.3721555471420288e-07, 1.9765625) (2.209489345550537e-06, 1.978515625) (4.033149719238281e-06, 1.98046875) (5.469221115112304e-06, 1.982421875) (6.539595603942871e-06, 1.984375) (7.489667415618896e-06, 1.986328125) (8.654888153076172e-06, 1.98828125) (1.0162423133850097e-05, 1.990234375) (1.212516689300537e-05, 1.9921875) (1.4810504913330078e-05, 1.994140625) (1.835782241821289e-05, 1.99609375) (2.276230430603027e-05, 1.998046875) (2.775399398803711e-05, 2.0) (3.253467559814453e-05, 2.001953125) (3.628184127807617e-05, 2.00390625) (3.847649383544922e-05, 2.005859375) (3.863752746582031e-05, 2.0078125) (3.6339984893798826e-05, 2.009765625) (3.149788665771484e-05, 2.01171875) (2.44291877746582e-05, 2.013671875) (1.611654281616211e-05, 2.015625) (8.393157005310058e-06, 2.017578125) (3.209193229675293e-06, 2.01953125) (2.426050662994385e-06, 2.021484375) (7.988264560699462e-06, 2.0234375) (2.1799907684326172e-05, 2.025390625) (4.563391876220703e-05, 2.02734375) (7.935758209228516e-05, 2.029296875) (0.00012046530151367186, 2.03125) (0.00016593865966796874, 2.033203125) (0.00021249618530273437, 2.03515625) (0.0002604892578125, 2.037109375) (0.00031408862304687496, 2.0390625) (0.00037310577392578125, 2.041015625) (0.0004330526123046875, 2.04296875) (0.0004821071166992187, 2.044921875) (0.0005023156433105469, 2.046875) (0.00048518212890625, 2.048828125) (0.00043140182495117187, 2.05078125) (0.00035134164428710936, 2.052734375) (0.00026219332885742185, 2.0546875) (0.00017215609741210935, 2.056640625) (8.493802642822265e-05, 2.05859375) (1.5233573913574219e-06, 2.060546875) (-7.699516296386719e-05, 2.0625) (-0.00014025483703613282, 2.064453125) (-0.0001801303253173828, 2.06640625) (-0.00019351803588867186, 2.068359375) (-0.00018289418029785156, 2.0703125) (-0.00016016799926757812, 2.072265625) (-0.00013410116577148437, 2.07421875) (-0.00010873782348632812, 2.076171875) (-8.56004638671875e-05, 2.078125) (-6.137663269042969e-05, 2.080078125) (-3.523980712890625e-05, 2.08203125) (-9.143435478210448e-06, 2.083984375) (1.5081669807434081e-05, 2.0859375) (3.436102676391601e-05, 2.087890625) (4.6961227416992186e-05, 2.08984375) (5.3262817382812496e-05, 2.091796875) (5.402253341674805e-05, 2.09375) (5.044824981689453e-05, 2.095703125) (4.399457168579101e-05, 2.09765625) (3.564464569091797e-05, 2.099609375) (2.6382858276367186e-05, 2.1015625) (1.7632904052734373e-05, 2.103515625) (1.0577177047729491e-05, 2.10546875) (5.8154315948486325e-06, 2.107421875) (3.617324590682983e-06, 2.109375) (3.860079765319824e-06, 2.111328125) (6.0877628326416014e-06, 2.11328125) (9.944551467895507e-06, 2.115234375) (1.4949724197387695e-05, 2.1171875) (2.028388977050781e-05, 2.119140625) (2.533551788330078e-05, 2.12109375) (2.9816844940185544e-05, 2.123046875) (3.359245300292969e-05, 2.125) (3.67491455078125e-05, 2.126953125) (3.946778106689453e-05, 2.12890625) (4.185054016113281e-05, 2.130859375) (4.4080772399902344e-05, 2.1328125) (4.646867752075195e-05, 2.134765625) (4.919842529296875e-05, 2.13671875) (5.233460235595703e-05, 2.138671875) (5.587848663330078e-05, 2.140625) (5.973382568359375e-05, 2.142578125) (6.381576538085937e-05, 2.14453125) (6.808534240722656e-05, 2.146484375) (7.248036193847656e-05, 2.1484375) (7.691577148437499e-05, 2.150390625) (8.133096313476562e-05, 2.15234375) (8.567353820800782e-05, 2.154296875) (8.990337371826171e-05, 2.15625) (9.401895904541015e-05, 2.158203125) (9.801368713378906e-05, 2.16015625) (0.00010186892700195313, 2.162109375) (0.00010557302093505859, 2.1640625) (0.00010911299133300781, 2.166015625) (0.00011248305511474609, 2.16796875) (0.00011569096374511718, 2.169921875) (0.00011874744415283202, 2.171875) (0.00012165563964843749, 2.173828125) (0.00012441654205322264, 2.17578125) (0.00012703258514404296, 2.177734375) (0.0001295047607421875, 2.1796875) (0.00013183834838867187, 2.181640625) (0.00013404104614257812, 2.18359375) (0.00013612153625488282, 2.185546875) (0.00013809194946289062, 2.1875) (0.00013996511840820312, 2.189453125) (0.00014175453186035156, 2.19140625) (0.00014347412109375, 2.193359375) (0.00014513897705078124, 2.1953125) (0.00014676473999023436, 2.197265625) (0.00014836544799804686, 2.19921875) (0.00014995292663574217, 2.201171875) (0.00015153704833984375, 2.203125) (0.00015312863159179686, 2.205078125) (0.00015474076843261718, 2.20703125) (0.00015638763427734375, 2.208984375) (0.00015808377075195312, 2.2109375) (0.00015984295654296874, 2.212890625) (0.0001616779327392578, 2.21484375) (0.00016360069274902342, 2.216796875) (0.0001656226348876953, 2.21875) (0.00016775331115722656, 2.220703125) (0.00016999981689453124, 2.22265625) (0.00017236730957031248, 2.224609375) (0.00017485870361328123, 2.2265625) (0.00017747547912597654, 2.228515625) (0.0001802181854248047, 2.23046875) (0.000183086181640625, 2.232421875) (0.00018607743835449218, 2.234375) (0.00018918873596191404, 2.236328125) (0.0001924151916503906, 2.23828125) (0.00019575030517578125, 2.240234375) (0.00019918626403808592, 2.2421875) (0.00020271383666992186, 2.244140625) (0.00020632225036621094, 2.24609375) (0.000209999267578125, 2.248046875) (0.00021373117065429686, 2.25) (0.00021750292968749998, 2.251953125) (0.00022129888916015624, 2.25390625) (0.00022510281372070312, 2.255859375) (0.00022889781188964843, 2.2578125) (0.00023266661071777342, 2.259765625) (0.00023639157104492187, 2.26171875) (0.00024005484008789063, 2.263671875) (0.00024363867187499999, 2.265625) (0.0002471255340576172, 2.267578125) (0.0002504979248046875, 2.26953125) (0.00025373857116699216, 2.271484375) (0.00025683074951171874, 2.2734375) (0.0002597582092285156, 2.275390625) (0.00026250579833984373, 2.27734375) (0.0002650591430664062, 2.279296875) (0.00026740515136718747, 2.28125) (0.0002695320739746094, 2.283203125) (0.00027142974853515623, 2.28515625) (0.0002730896301269531, 2.287109375) (0.00027450469970703126, 2.2890625) (0.00027566961669921874, 2.291015625) (0.0002765805969238281, 2.29296875) (0.00027723529052734374, 2.294921875) (0.000277633056640625, 2.296875) (0.0002777745971679687, 2.298828125) (0.00027766210937499997, 2.30078125) (0.00027729925537109374, 2.302734375) (0.00027669122314453125, 2.3046875) (0.000275844482421875, 2.306640625) (0.00027476702880859373, 2.30859375) (0.0002734680786132812, 2.310546875) (0.0002719580078125, 2.3125) (0.0002702483215332031, 2.314453125) (0.00026835125732421874, 2.31640625) (0.0002662795715332031, 2.318359375) (0.0002640465698242187, 2.3203125) (0.00026166586303710934, 2.322265625) (0.00025915118408203125, 2.32421875) (0.00025651629638671875, 2.326171875) (0.00025377487182617187, 2.328125) (0.0002509403076171875, 2.330078125) (0.00024802577209472656, 2.33203125) (0.000245044189453125, 2.333984375) (0.0002420081329345703, 2.3359375) (0.00023892961120605468, 2.337890625) (0.00023581999206542968, 2.33984375) (0.00023268975830078125, 2.341796875) (0.00022954852294921875, 2.34375) (0.00022640484619140623, 2.345703125) (0.0002232663116455078, 2.34765625) (0.0002201392822265625, 2.349609375) (0.00021702902221679686, 2.3515625) (0.00021393957519531248, 2.353515625) (0.00021087393188476563, 2.35546875) (0.00020783428955078125, 2.357421875) (0.00020482189941406248, 2.359375) (0.00020183737182617186, 2.361328125) (0.0001988803253173828, 2.36328125) (0.000195949462890625, 2.365234375) (0.00019304266357421875, 2.3671875) (0.00019015695190429687, 2.369140625) (0.00018728872680664061, 2.37109375) (0.00018443356323242187, 2.373046875) (0.00018158636474609375, 2.375) (0.00017874136352539062, 2.376953125) (0.000175892578125, 2.37890625) (0.00017303417968749998, 2.380859375) (0.00017016043090820312, 2.3828125) (0.0001672659454345703, 2.384765625) (0.00016434562683105469, 2.38671875) (0.00016139474487304688, 2.388671875) (0.00015840914916992186, 2.390625) (0.00015538552856445313, 2.392578125) (0.00015232106018066405, 2.39453125) (0.00014921327209472656, 2.396484375) (0.0001460600128173828, 2.3984375) (0.0001428596496582031, 2.400390625) (0.00013961129760742188, 2.40234375) (0.0001363150634765625, 2.404296875) (0.00013297201538085937, 2.40625) (0.0001295841827392578, 2.408203125) (0.0001261544418334961, 2.41015625) (0.00012268654632568358, 2.412109375) (0.0001191854248046875, 2.4140625) (0.00011565696716308594, 2.416015625) (0.00011210760498046875, 2.41796875) (0.00010854400634765624, 2.419921875) (0.00010497283935546874, 2.421875) (0.00010140036010742187, 2.423828125) (9.783303070068358e-05, 2.42578125) (9.427775573730468e-05, 2.427734375) (9.074144744873047e-05, 2.4296875) (8.723097229003905e-05, 2.431640625) (8.375320434570311e-05, 2.43359375) (8.031498718261719e-05, 2.435546875) (7.692320251464844e-05, 2.4375) (7.358525085449219e-05, 2.439453125) (7.030795288085937e-05, 2.44140625) (6.709693908691406e-05, 2.443359375) (6.395694351196289e-05, 2.4453125) (6.089170837402344e-05, 2.447265625) (5.790359497070312e-05, 2.44921875) (5.499379730224609e-05, 2.451171875) (5.2161754608154294e-05, 2.453125) (4.940460968017578e-05, 2.455078125) (4.67188720703125e-05, 2.45703125) (4.4101016998291016e-05, 2.458984375) (4.154703521728516e-05, 2.4609375) (3.9052650451660156e-05, 2.462890625) (3.661293029785156e-05, 2.46484375) (3.422265625e-05, 2.466796875) (3.1877397537231446e-05, 2.46875) (2.9573106765747067e-05, 2.470703125) (2.7304420471191405e-05, 2.47265625) (2.5063373565673828e-05, 2.474609375) (2.2838775634765624e-05, 2.4765625) (2.0617536544799803e-05, 2.478515625) (1.8387535095214844e-05, 2.48046875) (1.613705253601074e-05, 2.482421875) (1.3854952812194823e-05, 2.484375) (1.1531582832336425e-05, 2.486328125) (9.157080650329589e-06, 2.48828125) (6.723432540893554e-06, 2.490234375) (4.228383064270019e-06, 2.4921875) (1.6732704639434815e-06, 2.494140625) (-9.427535533905029e-07, 2.49609375) (-3.6241891384124756e-06, 2.498046875) (-6.384348392486572e-06, 2.5) (-9.244545936584473e-06, 2.501953125) (-1.2219741821289063e-05, 2.50390625) (-1.5316414833068846e-05, 2.505859375) (-1.853592300415039e-05, 2.5078125) (-2.1877399444580078e-05, 2.509765625) (-2.5339725494384765e-05, 2.51171875) (-2.8915733337402342e-05, 2.513671875) (-3.25842056274414e-05, 2.515625) (-3.63082160949707e-05, 2.517578125) (-4.0050415039062496e-05, 2.51953125) (-4.378731536865234e-05, 2.521484375) (-4.751657104492187e-05, 2.5234375) (-5.124916839599609e-05, 2.525390625) (-5.4987815856933593e-05, 2.52734375) (-5.872506713867187e-05, 2.529296875) (-6.243497085571289e-05, 2.53125) (-6.608087158203124e-05, 2.533203125) (-6.964543914794922e-05, 2.53515625) (-7.312255859375e-05, 2.537109375) (-7.65051040649414e-05, 2.5390625) (-7.977693176269531e-05, 2.541015625) (-8.291900634765624e-05, 2.54296875) (-8.592266845703125e-05, 2.544921875) (-8.881344604492187e-05, 2.546875) (-9.167053985595702e-05, 2.548828125) (-9.457150268554687e-05, 2.55078125) (-9.755169677734375e-05, 2.552734375) (-0.00010060524749755858, 2.5546875) (-0.00010369911956787109, 2.556640625) (-0.00010680892181396484, 2.55859375) (-0.00010997330474853515, 2.560546875) (-0.00011328211975097655, 2.5625) (-0.0001167434844970703, 2.564453125) (-0.00012028846740722655, 2.56640625) (-0.00012378950500488282, 2.568359375) (-0.00012704065704345703, 2.5703125) (-0.00012989456176757812, 2.572265625) (-0.00013223239135742187, 2.57421875) (-0.00013377276611328123, 2.576171875) (-0.00013417974853515625, 2.578125) (-0.00013334190368652344, 2.580078125) (-0.000131254150390625, 2.58203125) (-0.000128189453125, 2.583984375) (-0.0001249312286376953, 2.5859375) (-0.00012223483276367186, 2.587890625) (-0.0001209066162109375, 2.58984375) (-0.0001221322021484375, 2.591796875) (-0.00012587583923339844, 2.59375) (-0.0001306089324951172, 2.595703125) (-0.0001352515411376953, 2.59765625) (-0.00013816311645507812, 2.599609375) (-0.00013988591003417968, 2.6015625) (-0.00014451319885253907, 2.603515625) (-0.00015270425415039063, 2.60546875) (-0.0001631910705566406, 2.607421875) (-0.00017073504638671875, 2.609375) (-0.000163238525390625, 2.611328125) (-0.0001340303192138672, 2.61328125) (-8.014823913574218e-05, 2.615234375) (-2.8451347351074215e-06, 2.6171875) (8.417263793945313e-05, 2.619140625) (0.00016777789306640623, 2.62109375) (0.00023422723388671874, 2.623046875) (0.00026760211181640626, 2.625) (0.00026606643676757813, 2.626953125) (0.00023314517211914061, 2.62890625) (0.00017595361328125, 2.630859375) (0.00011076538085937499, 2.6328125) (4.463542175292969e-05, 2.634765625) (-2.0771047592163085e-05, 2.63671875) (-8.125885009765625e-05, 2.638671875) (-0.00013912329101562499, 2.640625) (-0.00019173553466796873, 2.642578125) (-0.0002319005126953125, 2.64453125) (-0.00025995172119140626, 2.646484375) (-0.00027533135986328123, 2.6484375) (-0.0002789647216796875, 2.650390625) (-0.0002756778564453125, 2.65234375) (-0.00026521139526367184, 2.654296875) (-0.0002474896545410156, 2.65625) (-0.00022470529174804687, 2.658203125) (-0.00019821354675292967, 2.66015625) (-0.00017133374023437498, 2.662109375) (-0.00014726242065429688, 2.6640625) (-0.00012733818054199217, 2.666015625) (-0.0001125350341796875, 2.66796875) (-0.00010339233398437499, 2.669921875) (-9.99459991455078e-05, 2.671875) (-0.00010183628845214843, 2.673828125) (-0.00010805091857910156, 2.67578125) (-0.00011710632324218749, 2.677734375) (-0.00012745646667480467, 2.6796875) (-0.00013772906494140624, 2.681640625) (-0.00014693743896484376, 2.68359375) (-0.00015425384521484375, 2.685546875) (-0.00015909527587890625, 2.6875) (-0.0001612898712158203, 2.689453125) (-0.00016103250122070312, 2.69140625) (-0.00015884788513183593, 2.693359375) (-0.00015547409057617187, 2.6953125) (-0.00015170275878906249, 2.697265625) (-0.00014805328369140624, 2.69921875) (-0.00014486532592773436, 2.701171875) (-0.00014233514404296874, 2.703125) (-0.0001404575958251953, 2.705078125) (-0.00013917596435546875, 2.70703125) (-0.00013836468505859373, 2.708984375) (-0.000137769775390625, 2.7109375) (-0.00013707476806640623, 2.712890625) (-0.00013608947753906248, 2.71484375) (-0.00013472918701171874, 2.716796875) (-0.00013298275756835936, 2.71875) (-0.00013092715454101562, 2.720703125) (-0.000128602294921875, 2.72265625) (-0.00012602212524414063, 2.724609375) (-0.00012323487091064452, 2.7265625) (-0.0001203031768798828, 2.728515625) (-0.00011727961730957031, 2.73046875) (-0.00011420445251464843, 2.732421875) (-0.00011110227966308594, 2.734375) (-0.00010797837066650391, 2.736328125) (-0.00010484327697753906, 2.73828125) (-0.0001017152099609375, 2.740234375) (-9.861203002929688e-05, 2.7421875) (-9.555353546142578e-05, 2.744140625) (-9.25497817993164e-05, 2.74609375) (-8.960131072998047e-05, 2.748046875) (-8.670402526855468e-05, 2.75) (-8.385173797607422e-05, 2.751953125) (-8.104623413085938e-05, 2.75390625) (-7.829386901855468e-05, 2.755859375) (-7.55995635986328e-05, 2.7578125) (-7.296646881103515e-05, 2.759765625) (-7.039373779296874e-05, 2.76171875) (-6.787883758544922e-05, 2.763671875) (-6.54184341430664e-05, 2.765625) (-6.300641632080078e-05, 2.767578125) (-6.063404083251953e-05, 2.76953125) (-5.829053497314453e-05, 2.771484375) (-5.596318054199218e-05, 2.7734375) (-5.363893890380859e-05, 2.775390625) (-5.13074951171875e-05, 2.77734375) (-4.89599609375e-05, 2.779296875) (-4.658888244628906e-05, 2.78125) (-4.418862152099609e-05, 2.783203125) (-4.1751529693603514e-05, 2.78515625) (-3.926846313476562e-05, 2.787109375) (-3.673051071166992e-05, 2.7890625) (-3.412837219238281e-05, 2.791015625) (-3.1453304290771486e-05, 2.79296875) (-2.8697597503662107e-05, 2.794921875) (-2.5853818893432615e-05, 2.796875) (-2.2915246963500977e-05, 2.798828125) (-1.9877262115478515e-05, 2.80078125) (-1.6737129211425782e-05, 2.802734375) (-1.3493730545043944e-05, 2.8046875) (-1.0147768020629883e-05, 2.806640625) (-6.700793266296386e-06, 2.80859375) (-3.1552541255950928e-06, 2.810546875) (4.850136041641236e-07, 2.8125) (4.215052604675293e-06, 2.814453125) (8.028558731079102e-06, 2.81640625) (1.1917608261108398e-05, 2.818359375) (1.5872779846191404e-05, 2.8203125) (1.9883117675781248e-05, 2.822265625) (2.3935998916625974e-05, 2.82421875) (2.8017292022705076e-05, 2.826171875) (3.2111331939697264e-05, 2.828125) (3.6200695037841793e-05, 2.830078125) (4.026650238037109e-05, 2.83203125) (4.428869247436523e-05, 2.833984375) (4.824618911743164e-05, 2.8359375) (5.211726760864258e-05, 2.837890625) (5.587955474853515e-05, 2.83984375) (5.9510105133056636e-05, 2.841796875) (6.298576354980469e-05, 2.84375) (6.628346252441406e-05, 2.845703125) (6.938043212890624e-05, 2.84765625) (7.225433349609374e-05, 2.849609375) (7.488354492187499e-05, 2.8515625) (7.724718475341797e-05, 2.853515625) (7.932534027099609e-05, 2.85546875) (8.109933471679687e-05, 2.857421875) (8.255178833007813e-05, 2.859375) (8.366676330566406e-05, 2.861328125) (8.443007659912109e-05, 2.86328125) (8.482929992675781e-05, 2.865234375) (8.485384368896484e-05, 2.8671875) (8.449505615234374e-05, 2.869140625) (8.37462158203125e-05, 2.87109375) (8.26026153564453e-05, 2.873046875) (8.106167602539062e-05, 2.875) (7.912295532226562e-05, 2.876953125) (7.678800964355468e-05, 2.87890625) (7.406050109863281e-05, 2.880859375) (7.094621276855468e-05, 2.8828125) (6.745304107666016e-05, 2.884765625) (6.359099960327149e-05, 2.88671875) (5.93721923828125e-05, 2.888671875) (5.481075286865234e-05, 2.890625) (4.992282485961914e-05, 2.892578125) (4.472645568847656e-05, 2.89453125) (3.924149322509765e-05, 2.896484375) (3.348942947387695e-05, 2.8984375) (2.749323272705078e-05, 2.900390625) (2.127713394165039e-05, 2.90234375) (1.4866443634033202e-05, 2.904296875) (8.28728199005127e-06, 2.90625) (1.5663418769836424e-06, 2.908203125) (-5.269312858581543e-06, 2.91015625) (-1.2192474365234374e-05, 2.912109375) (-1.917599868774414e-05, 2.9140625) (-2.6192977905273437e-05, 2.916015625) (-3.321691513061523e-05, 2.91796875) (-4.022187805175781e-05, 2.919921875) (-4.718264389038086e-05, 2.921875) (-5.4074806213378905e-05, 2.923828125) (-6.0874946594238276e-05, 2.92578125) (-6.756076049804687e-05, 2.927734375) (-7.41111068725586e-05, 2.9296875) (-8.050617218017577e-05, 2.931640625) (-8.672746276855469e-05, 2.93359375) (-9.275787353515624e-05, 2.935546875) (-9.858175659179687e-05, 2.9375) (-0.0001041849365234375, 2.939453125) (-0.00010955467224121093, 2.94140625) (-0.00011467967224121093, 2.943359375) (-0.00011955013275146484, 2.9453125) (-0.00012415771484375, 2.947265625) (-0.00012849554443359376, 2.94921875) (-0.00013255831909179686, 2.951171875) (-0.0001363422088623047, 2.953125) (-0.00013984490966796874, 2.955078125) (-0.00014306564331054687, 2.95703125) (-0.00014600502014160154, 2.958984375) (-0.00014866505432128906, 2.9609375) (-0.00015104904174804686, 2.962890625) (-0.0001531614227294922, 2.96484375) (-0.0001550076904296875, 2.966796875) (-0.00015659414672851562, 2.96875) (-0.0001579278564453125, 2.970703125) (-0.00015901651000976562, 2.97265625) (-0.00015986828613281248, 2.974609375) (-0.0001604917297363281, 2.9765625) (-0.000160895751953125, 2.978515625) (-0.00016108941650390624, 2.98046875) (-0.00016108186340332031, 2.982421875) (-0.00016088238525390625, 2.984375) (-0.00016050018310546875, 2.986328125) (-0.0001599443817138672, 2.98828125) (-0.00015922398376464844, 2.990234375) (-0.0001583477325439453, 2.9921875) (-0.00015732421875, 2.994140625) (-0.00015616180419921873, 2.99609375) (-0.00015486866760253907, 2.998046875) (-0.00015345280456542968, 3.0) (-0.000151922119140625, 3.001953125) (-0.00015028442382812498, 3.00390625) (-0.0001485474853515625, 3.005859375) (-0.00014671902465820312, 3.0078125) (-0.00014480667114257813, 3.009765625) (-0.0001428179931640625, 3.01171875) (-0.00014076046752929688, 3.013671875) (-0.0001386413879394531, 3.015625) (-0.00013646788024902344, 3.017578125) (-0.0001342469024658203, 3.01953125) (-0.00013198519897460938, 3.021484375) (-0.00012968934631347656, 3.0234375) (-0.00012736576843261718, 3.025390625) (-0.0001250208282470703, 3.02734375) (-0.00012266080474853514, 3.029296875) (-0.00012029196166992187, 3.03125) (-0.00011792058563232422, 3.033203125) (-0.00011555290222167968, 3.03515625) (-0.00011319519805908202, 3.037109375) (-0.0001108537139892578, 3.0390625) (-0.00010853469848632812, 3.041015625) (-0.0001062443389892578, 3.04296875) (-0.00010398880767822265, 3.044921875) (-0.00010177420043945313, 3.046875) (-9.960659027099608e-05, 3.048828125) (-9.749200439453124e-05, 3.05078125) (-9.543636322021484e-05, 3.052734375) (-9.34454345703125e-05, 3.0546875) (-9.152482604980469e-05, 3.056640625) (-8.967982482910157e-05, 3.05859375) (-8.791535949707031e-05, 3.060546875) (-8.623588562011719e-05, 3.0625) (-8.464527893066406e-05, 3.064453125) (-8.3146728515625e-05, 3.06640625) (-8.174275207519531e-05, 3.068359375) (-8.043510437011719e-05, 3.0703125) (-7.922481536865234e-05, 3.072265625) (-7.81121826171875e-05, 3.07421875) (-7.709678649902343e-05, 3.076171875) (-7.617754364013672e-05, 3.078125) (-7.535270690917968e-05, 3.080078125) (-7.461985778808593e-05, 3.08203125) (-7.397596740722656e-05, 3.083984375) (-7.341732788085938e-05, 3.0859375) (-7.293960571289063e-05, 3.087890625) (-7.253776550292968e-05, 3.08984375) (-7.22061538696289e-05, 3.091796875) (-7.193849945068358e-05, 3.09375) (-7.172798919677735e-05, 3.095703125) (-7.156728363037109e-05, 3.09765625) (-7.14486083984375e-05, 3.099609375) (-7.136383056640625e-05, 3.1015625) (-7.130451965332031e-05, 3.103515625) (-7.126197052001953e-05, 3.10546875) (-7.122730255126953e-05, 3.107421875) (-7.119143676757812e-05, 3.109375) (-7.114520263671875e-05, 3.111328125) (-7.107935333251952e-05, 3.11328125) (-7.098462677001952e-05, 3.115234375) (-7.085186004638672e-05, 3.1171875) (-7.067204284667969e-05, 3.119140625) (-7.043649291992187e-05, 3.12109375) (-7.013691711425781e-05, 3.123046875) (-6.976552581787109e-05, 3.125) (-6.931517028808593e-05, 3.126953125) (-6.877935028076171e-05, 3.12890625) (-6.815232849121094e-05, 3.130859375) (-6.742909240722656e-05, 3.1328125) (-6.66053466796875e-05, 3.134765625) (-6.567756652832031e-05, 3.13671875) (-6.464286041259765e-05, 3.138671875) (-6.349906921386718e-05, 3.140625) (-6.224472045898438e-05, 3.142578125) (-6.0879024505615234e-05, 3.14453125) (-5.9401840209960935e-05, 3.146484375) (-5.781375122070312e-05, 3.1484375) (-5.611604690551757e-05, 3.150390625) (-5.431071472167969e-05, 3.15234375) (-5.240041732788086e-05, 3.154296875) (-5.0388450622558595e-05, 3.15625) (-4.827868270874023e-05, 3.158203125) (-4.607548904418945e-05, 3.16015625) (-4.378372192382812e-05, 3.162109375) (-4.1408615112304686e-05, 3.1640625) (-3.895578002929687e-05, 3.166015625) (-3.6431137084960934e-05, 3.16796875) (-3.384088134765625e-05, 3.169921875) (-3.1191503524780275e-05, 3.171875) (-2.8489730834960937e-05, 3.173828125) (-2.5742511749267577e-05, 3.17578125) (-2.295695877075195e-05, 3.177734375) (-2.014028549194336e-05, 3.1796875) (-1.729973030090332e-05, 3.181640625) (-1.444249153137207e-05, 3.18359375) (-1.1575649261474609e-05, 3.185546875) (-8.706118583679198e-06, 3.1875) (-5.840595722198486e-06, 3.189453125) (-2.9855411052703856e-06, 3.19140625) (-1.4718079566955567e-07, 3.193359375) (2.6684613227844237e-06, 3.1953125) (5.455527305603027e-06, 3.197265625) (8.208287239074707e-06, 3.19921875) (1.0921102523803711e-05, 3.201171875) (1.3588412284851074e-05, 3.203125) (1.620473289489746e-05, 3.205078125) (1.8764642715454102e-05, 3.20703125) (2.12628116607666e-05, 3.208984375) (2.3693990707397458e-05, 3.2109375) (2.6053049087524413e-05, 3.212890625) (2.8334972381591794e-05, 3.21484375) (3.053487586975098e-05, 3.216796875) (3.2647979736328125e-05, 3.21875) (3.4669586181640624e-05, 3.220703125) (3.659507751464844e-05, 3.22265625) (3.8419898986816405e-05, 3.224609375) (4.0139572143554684e-05, 3.2265625) (4.174971008300781e-05, 3.228515625) (4.3246032714843745e-05, 3.23046875) (4.462439727783203e-05, 3.232421875) (4.588084030151367e-05, 3.234375) (4.70115966796875e-05, 3.236328125) (4.801315307617187e-05, 3.23828125) (4.888222503662109e-05, 3.240234375) (4.9615772247314454e-05, 3.2421875) (5.021101379394531e-05, 3.244140625) (5.0665363311767576e-05, 3.24609375) (5.0976512908935547e-05, 3.248046875) (5.114240264892578e-05, 3.25) (5.116124725341797e-05, 3.251953125) (5.1031597137451167e-05, 3.25390625) (5.0752391815185546e-05, 3.255859375) (5.0322998046875e-05, 3.2578125) (4.974333572387695e-05, 3.259765625) (4.9013961791992186e-05, 3.26171875) (4.813608169555664e-05, 3.263671875) (4.7111663818359375e-05, 3.265625) (4.594341278076172e-05, 3.267578125) (4.463480758666992e-05, 3.26953125) (4.3190135955810545e-05, 3.271484375) (4.1614463806152344e-05, 3.2734375) (3.9913673400878905e-05, 3.275390625) (3.809437179565429e-05, 3.27734375) (3.616388702392578e-05, 3.279296875) (3.413026046752929e-05, 3.28125) (3.200224685668945e-05, 3.283203125) (2.978927993774414e-05, 3.28515625) (2.750144577026367e-05, 3.287109375) (2.5149417877197264e-05, 3.2890625) (2.2744382858276367e-05, 3.291015625) (2.0297988891601563e-05, 3.29296875) (1.7822282791137695e-05, 3.294921875) (1.5329611778259276e-05, 3.296875) (1.283254337310791e-05, 3.298828125) (1.0343764305114746e-05, 3.30078125) (7.875985145568847e-06, 3.302734375) (5.441893577575684e-06, 3.3046875) (3.0541136264801023e-06, 3.306640625) (7.251648902893066e-07, 3.30859375) (-1.5325863361358642e-06, 3.310546875) (-3.707008361816406e-06, 3.3125) (-5.786289691925049e-06, 3.314453125) (-7.758969783782959e-06, 3.31640625) (-9.614014625549317e-06, 3.318359375) (-1.1340906143188477e-05, 3.3203125) (-1.2929750442504881e-05, 3.322265625) (-1.4371460914611816e-05, 3.32421875) (-1.565788459777832e-05, 3.326171875) (-1.678181457519531e-05, 3.328125) (-1.7737030029296876e-05, 3.330078125) (-1.851841926574707e-05, 3.33203125) (-1.9122007369995118e-05, 3.333984375) (-1.954502296447754e-05, 3.3359375) (-1.9785953521728515e-05, 3.337890625) (-1.98443603515625e-05, 3.33984375) (-1.972082710266113e-05, 3.341796875) (-1.941705322265625e-05, 3.34375) (-1.8935844421386717e-05, 3.345703125) (-1.8281129837036132e-05, 3.34765625) (-1.74580020904541e-05, 3.349609375) (-1.647259521484375e-05, 3.3515625) (-1.5331953048706054e-05, 3.353515625) (-1.4044097900390624e-05, 3.35546875) (-1.2617942810058594e-05, 3.357421875) (-1.1063201904296874e-05, 3.359375) (-9.390296936035156e-06, 3.361328125) (-7.610084533691406e-06, 3.36328125) (-5.733695983886718e-06, 3.365234375) (-3.77246880531311e-06, 3.3671875) (-1.7379487752914428e-06, 3.369140625) (3.580150008201599e-07, 3.37109375) (2.503291130065918e-06, 3.373046875) (4.685643196105957e-06, 3.375) (6.892841339111328e-06, 3.376953125) (9.112521171569824e-06, 3.37890625) (1.13322114944458e-05, 3.380859375) (1.3539360046386718e-05, 3.3828125) (1.5721410751342774e-05, 3.384765625) (1.7866329193115233e-05, 3.38671875) (1.9962799072265624e-05, 3.388671875) (2.2000011444091795e-05, 3.390625) (2.3967655181884765e-05, 3.392578125) (2.5856172561645506e-05, 3.39453125) (2.765677261352539e-05, 3.396484375) (2.9361595153808593e-05, 3.3984375) (3.096393013000488e-05, 3.400390625) (3.2457550048828125e-05, 3.40234375) (3.3836547851562496e-05, 3.404296875) (3.509575653076172e-05, 3.40625) (3.6230777740478516e-05, 3.408203125) (3.723812484741211e-05, 3.41015625) (3.8115531921386715e-05, 3.412109375) (3.886163330078125e-05, 3.4140625) (3.9475753784179684e-05, 3.416015625) (3.9958278656005855e-05, 3.41796875) (4.031061935424804e-05, 3.419921875) (4.053514099121094e-05, 3.421875) (4.0635070800781246e-05, 3.423828125) (4.061389541625977e-05, 3.42578125) (4.0474929809570313e-05, 3.427734375) (4.022135543823242e-05, 3.4296875) (3.985634994506836e-05, 3.431640625) (3.9383575439453126e-05, 3.43359375) (3.8807209014892575e-05, 3.435546875) (3.813154602050781e-05, 3.4375) (3.736084747314453e-05, 3.439453125) (3.6499847412109374e-05, 3.44140625) (3.555392074584961e-05, 3.443359375) (3.4529232025146486e-05, 3.4453125) (3.34326057434082e-05, 3.447265625) (3.227040100097656e-05, 3.44921875) (3.1048179626464844e-05, 3.451171875) (2.9771455764770508e-05, 3.453125) (2.8445838928222656e-05, 3.455078125) (2.7076168060302734e-05, 3.45703125) (2.5666414260864257e-05, 3.458984375) (2.4219432830810547e-05, 3.4609375) (2.2736694335937498e-05, 3.462890625) (2.1220342636108397e-05, 3.46484375) (1.9673973083496094e-05, 3.466796875) (1.8101024627685547e-05, 3.46875) (1.650440979003906e-05, 3.470703125) (1.4887895584106444e-05, 3.47265625) (1.3255477905273438e-05, 3.474609375) (1.1611867904663085e-05, 3.4765625) (9.96352195739746e-06, 3.478515625) (8.314477920532226e-06, 3.48046875) (6.665249824523925e-06, 3.482421875) (5.0154643058776855e-06, 3.484375) (3.364121675491333e-06, 3.486328125) (1.7104934453964233e-06, 3.48828125) (5.637770891189575e-08, 3.490234375) (-1.5958575010299682e-06, 3.4921875) (-3.2453083992004395e-06, 3.494140625) (-4.88858413696289e-06, 3.49609375) (-6.5205259323120115e-06, 3.498046875) (-8.133449554443359e-06, 3.5) (-9.715524673461913e-06, 3.501953125) (-1.1261260986328124e-05, 3.50390625) (-1.2774084091186524e-05, 3.505859375) (-1.4263906478881836e-05, 3.5078125) (-1.5746946334838866e-05, 3.509765625) (-1.723361396789551e-05, 3.51171875) (-1.8723472595214844e-05, 3.513671875) (-2.0217741012573242e-05, 3.515625) (-2.1721536636352537e-05, 3.517578125) (-2.3230966567993164e-05, 3.51953125) (-2.473602485656738e-05, 3.521484375) (-2.6213296890258788e-05, 3.5234375) (-2.7621200561523436e-05, 3.525390625) (-2.8934879302978514e-05, 3.52734375) (-3.014917755126953e-05, 3.529296875) (-3.126754188537598e-05, 3.53125) (-3.230521011352539e-05, 3.533203125) (-3.326792526245117e-05, 3.53515625) (-3.414305877685547e-05, 3.537109375) (-3.491365432739258e-05, 3.5390625) (-3.5562599182128904e-05, 3.541015625) (-3.6076522827148435e-05, 3.54296875) (-3.6457435607910156e-05, 3.544921875) (-3.669839477539062e-05, 3.546875) (-3.677764892578125e-05, 3.548828125) (-3.669524002075195e-05, 3.55078125) (-3.646784591674805e-05, 3.552734375) (-3.6157936096191406e-05, 3.5546875) (-3.588481140136719e-05, 3.556640625) (-3.574248886108398e-05, 3.55859375) (-3.578627777099609e-05, 3.560546875) (-3.604670715332031e-05, 3.5625) (-3.651872634887695e-05, 3.564453125) (-3.723331451416015e-05, 3.56640625) (-3.8280475616455074e-05, 3.568359375) (-3.969080352783203e-05, 3.5703125) (-4.1406200408935544e-05, 3.572265625) (-4.3261573791503905e-05, 3.57421875) (-4.4986602783203125e-05, 3.576171875) (-4.638933563232422e-05, 3.578125) (-4.736781692504882e-05, 3.580078125) (-4.772445297241211e-05, 3.58203125) (-4.722867202758789e-05, 3.583984375) (-4.576466751098633e-05, 3.5859375) (-4.3332275390624995e-05, 3.587890625) (-4.0440948486328126e-05, 3.58984375) (-3.797464752197265e-05, 3.591796875) (-3.655169296264648e-05, 3.59375) (-3.6923042297363276e-05, 3.595703125) (-3.9959465026855464e-05, 3.59765625) (-4.592340087890625e-05, 3.599609375) (-5.487153625488281e-05, 3.6015625) (-6.597886657714843e-05, 3.603515625) (-7.623792266845703e-05, 3.60546875) (-8.341917419433594e-05, 3.607421875) (-8.655516052246094e-05, 3.609375) (-8.491197967529297e-05, 3.611328125) (-8.09151840209961e-05, 3.61328125) (-7.509620666503906e-05, 3.615234375) (-6.378427124023437e-05, 3.6171875) (-4.330778503417969e-05, 3.619140625) (-6.735942840576172e-06, 3.62109375) (5.0708324432373046e-05, 3.623046875) (0.00012501441192626952, 3.625) (0.00020742764282226562, 3.626953125) (0.00028228070068359376, 3.62890625) (0.0003304874572753906, 3.630859375) (0.00034072311401367185, 3.6328125) (0.00031052133178710936, 3.634765625) (0.00024719012451171875, 3.63671875) (0.00016728298950195313, 3.638671875) (8.607360076904297e-05, 3.640625) (1.2305683135986327e-05, 3.642578125) (-5.081447982788086e-05, 3.64453125) (-0.0001056810073852539, 3.646484375) (-0.00015508438110351563, 3.6484375) (-0.00019775323486328125, 3.650390625) (-0.00023093527221679686, 3.65234375) (-0.00025184811401367187, 3.654296875) (-0.00025849139404296873, 3.65625) (-0.0002516578369140625, 3.658203125) (-0.00023355577087402342, 3.66015625) (-0.00020668841552734375, 3.662109375) (-0.00017430015563964842, 3.6640625) (-0.00013948410034179688, 3.666015625) (-0.00010490068054199219, 3.66796875) (-7.275438690185547e-05, 3.669921875) (-4.456978988647461e-05, 3.671875) (-2.1622917175292966e-05, 3.673828125) (-4.8968925476074216e-06, 3.67578125) (5.446507930755615e-06, 3.677734375) (9.952283859252929e-06, 3.6796875) (9.679067611694336e-06, 3.681640625) (6.095335006713867e-06, 3.68359375) (4.266095161437988e-07, 3.685546875) (-6.2381634712219235e-06, 3.6875) (-1.2469367980957031e-05, 3.689453125) (-1.703595733642578e-05, 3.69140625) (-1.927292251586914e-05, 3.693359375) (-1.8891857147216796e-05, 3.6953125) (-1.6088619232177734e-05, 3.697265625) (-1.1418981552124024e-05, 3.69921875) (-5.296162605285644e-06, 3.701171875) (1.7887029647827149e-06, 3.703125) (9.062172889709472e-06, 3.705078125) (1.5964061737060547e-05, 3.70703125) (2.2211782455444334e-05, 3.708984375) (2.7684297561645508e-05, 3.7109375) (3.252239990234375e-05, 3.712890625) (3.695295715332031e-05, 3.71484375) (4.110552215576172e-05, 3.716796875) (4.5146896362304684e-05, 3.71875) (4.9309562683105464e-05, 3.720703125) (5.368734359741211e-05, 3.72265625) (5.826686096191406e-05, 3.724609375) (6.299666213989258e-05, 3.7265625) (6.775224304199218e-05, 3.728515625) (7.242446899414063e-05, 3.73046875) (7.694474029541015e-05, 3.732421875) (8.12232208251953e-05, 3.734375) (8.515594482421875e-05, 3.736328125) (8.864844512939452e-05, 3.73828125) (9.160587310791015e-05, 3.740234375) (9.392912292480468e-05, 3.7421875) (9.553195190429687e-05, 3.744140625) (9.634900665283202e-05, 3.74609375) (9.633573913574219e-05, 3.748046875) (9.54964599609375e-05, 3.75) (9.387997436523437e-05, 3.751953125) (9.157357788085937e-05, 3.75390625) (8.870294189453125e-05, 3.755859375) (8.537983703613281e-05, 3.7578125) (8.169279479980468e-05, 3.759765625) (7.771769714355468e-05, 3.76171875) (7.351742553710937e-05, 3.763671875) (6.915112304687499e-05, 3.765625) (6.467643737792968e-05, 3.767578125) (6.015913391113281e-05, 3.76953125) (5.567083358764648e-05, 3.771484375) (5.1306110382080076e-05, 3.7734375) (4.718192672729492e-05, 3.775390625) (4.3399391174316404e-05, 3.77734375) (4.0040798187255856e-05, 3.779296875) (3.715481185913086e-05, 3.78125) (3.475522232055664e-05, 3.783203125) (3.2826354980468747e-05, 3.78515625) (3.1323444366455075e-05, 3.787109375) (3.020721435546875e-05, 3.7890625) (2.9446931838989257e-05, 3.791015625) (2.902341270446777e-05, 3.79296875) (2.8933631896972656e-05, 3.794921875) (2.9179998397827146e-05, 3.796875) (2.976941680908203e-05, 3.798828125) (3.070986938476562e-05, 3.80078125) (3.20104866027832e-05, 3.802734375) (3.366373062133789e-05, 3.8046875) (3.5644203186035156e-05, 3.806640625) (3.792635726928711e-05, 3.80859375) (4.0483985900878906e-05, 3.810546875) (4.3302963256835935e-05, 3.8125) (4.6382213592529294e-05, 3.814453125) (4.973014450073242e-05, 3.81640625) (5.336491775512695e-05, 3.818359375) (5.730047988891601e-05, 3.8203125) (6.154617309570312e-05, 3.822265625) (6.610296630859374e-05, 3.82421875) (7.096055603027343e-05, 3.826171875) (7.610088348388671e-05, 3.828125) (8.149834442138671e-05, 3.830078125) (8.71197509765625e-05, 3.83203125) (9.292478942871094e-05, 3.833984375) (9.887654876708984e-05, 3.8359375) (0.0001049417495727539, 3.837890625) (0.00011108740234375, 3.83984375) (0.00011728250122070312, 3.841796875) (0.0001234920425415039, 3.84375) (0.00012967709350585936, 3.845703125) (0.0001357969512939453, 3.84765625) (0.0001418089904785156, 3.849609375) (0.00014767028808593748, 3.8515625) (0.00015333795166015625, 3.853515625) (0.0001587708282470703, 3.85546875) (0.00016393005371093748, 3.857421875) (0.00016878021240234375, 3.859375) (0.00017328945922851562, 3.861328125) (0.00017742990112304687, 3.86328125) (0.00018117768859863282, 3.865234375) (0.00018451048278808594, 3.8671875) (0.00018740789794921875, 3.869140625) (0.00018985145568847656, 3.87109375) (0.00019182408142089842, 3.873046875) (0.00019331149291992186, 3.875) (0.00019430206298828124, 3.876953125) (0.00019478654479980468, 3.87890625) (0.00019475799560546875, 3.880859375) (0.00019421298217773436, 3.8828125) (0.0001931512756347656, 3.884765625) (0.0001915760498046875, 3.88671875) (0.00018949383544921875, 3.888671875) (0.00018691395568847655, 3.890625) (0.00018384823608398436, 3.892578125) (0.00018031130981445312, 3.89453125) (0.00017632044982910156, 3.896484375) (0.00017189543151855467, 3.8984375) (0.00016705819702148437, 3.900390625) (0.00016183271789550782, 3.90234375) (0.00015624484252929686, 3.904296875) (0.00015032212829589844, 3.90625) (0.00014409378051757812, 3.908203125) (0.00013759037780761718, 3.91015625) (0.00013084356689453124, 3.912109375) (0.00012388584899902344, 3.9140625) (0.00011675022888183593, 3.916015625) (0.00010947007751464843, 3.91796875) (0.0001020787353515625, 3.919921875) (9.460929107666015e-05, 3.921875) (8.709431457519531e-05, 3.923828125) (7.956550598144532e-05, 3.92578125) (7.205355834960937e-05, 3.927734375) (6.458805084228515e-05, 3.9296875) (5.719719314575195e-05, 3.931640625) (4.9907920837402344e-05, 3.93359375) (4.2745758056640624e-05, 3.935546875) (3.5734527587890626e-05, 3.9375) (2.889630889892578e-05, 3.939453125) (2.2251380920410155e-05, 3.94140625) (1.5818078994750977e-05, 3.943359375) (9.612642288208007e-06, 3.9453125) (3.649181365966797e-06, 3.947265625) (-2.0605642795562744e-06, 3.94921875) (-7.507159233093261e-06, 3.951171875) (-1.2683287620544434e-05, 3.953125) (-1.75837345123291e-05, 3.955078125) (-2.220523643493652e-05, 3.95703125) (-2.654651069641113e-05, 3.958984375) (-3.060829925537109e-05, 3.9609375) (-3.4393184661865234e-05, 3.962890625) (-3.790553283691406e-05, 3.96484375) (-4.115149307250976e-05, 3.966796875) (-4.413882827758789e-05, 3.96875) (-4.6876842498779295e-05, 3.970703125) (-4.937643432617187e-05, 3.97265625) (-5.164971160888672e-05, 3.974609375) (-5.370969009399414e-05, 3.9765625) (-5.5570289611816406e-05, 3.978515625) (-5.724591064453125e-05, 3.98046875) (-5.87512092590332e-05, 3.982421875) (-6.010121154785156e-05, 3.984375) (-6.131102752685547e-05, 3.986328125) (-6.239551544189453e-05, 3.98828125) (-6.336955261230468e-05, 3.990234375) (-6.424778747558593e-05, 3.9921875) (-6.504439544677734e-05, 3.994140625) (-6.577348327636719e-05, 3.99609375) (-6.644879913330078e-05, 3.998046875) (-6.708318328857421e-05, 4.0) (-6.768860626220703e-05, 4.001953125) (-6.827604675292969e-05, 4.00390625) (-6.885517883300781e-05, 4.005859375) (-6.943479919433594e-05, 4.0078125) (-7.002276611328124e-05, 4.009765625) (-7.062541198730469e-05, 4.01171875) (-7.124789428710938e-05, 4.013671875) (-7.189443969726562e-05, 4.015625) (-7.256832885742187e-05, 4.017578125) (-7.327249145507812e-05, 4.01953125) (-7.400943756103515e-05, 4.021484375) (-7.478068542480468e-05, 4.0234375) (-7.558700561523437e-05, 4.025390625) (-7.642846679687499e-05, 4.02734375) (-7.730410766601562e-05, 4.029296875) (-7.821243286132812e-05, 4.03125) (-7.91514892578125e-05, 4.033203125) (-8.011825561523438e-05, 4.03515625) (-8.110930633544922e-05, 4.037109375) (-8.21212387084961e-05, 4.0390625) (-8.315019226074219e-05, 4.041015625) (-8.419257354736327e-05, 4.04296875) (-8.524597167968749e-05, 4.044921875) (-8.630824279785155e-05, 4.046875) (-8.737785339355469e-05, 4.048828125) (-8.84546890258789e-05, 4.05078125) (-8.953846740722655e-05, 4.052734375) (-9.062869262695312e-05, 4.0546875) (-9.172581481933594e-05, 4.056640625) (-9.28298110961914e-05, 4.05859375) (-9.393939971923828e-05, 4.060546875) (-9.505387878417969e-05, 4.0625) (-9.6171875e-05, 4.064453125) (-9.729035186767578e-05, 4.06640625) (-9.840845489501953e-05, 4.068359375) (-9.952622985839844e-05, 4.0703125) (-0.00010064418029785155, 4.072265625) (-0.00010176644897460938, 4.07421875) (-0.00010289820861816406, 4.076171875) (-0.00010404322814941405, 4.078125) (-0.00010520619201660156, 4.080078125) (-0.00010639114379882812, 4.08203125) (-0.00010759929656982421, 4.083984375) (-0.00010883345794677733, 4.0859375) (-0.00011009381103515625, 4.087890625) (-0.00011137422943115233, 4.08984375) (-0.00011267180633544921, 4.091796875) (-0.00011398512268066406, 4.09375) (-0.00011531680297851562, 4.095703125) (-0.00011668077087402343, 4.09765625) (-0.00011808892059326171, 4.099609375) (-0.00011954522705078125, 4.1015625) (-0.0001210521240234375, 4.103515625) (-0.0001226063537597656, 4.10546875) (-0.00012419723510742186, 4.107421875) (-0.0001258167724609375, 4.109375) (-0.00012744859313964843, 4.111328125) (-0.00012905877685546874, 4.11328125) (-0.00013061773681640626, 4.115234375) (-0.000132095947265625, 4.1171875) (-0.0001334698791503906, 4.119140625) (-0.00013474327087402343, 4.12109375) (-0.00013592242431640625, 4.123046875) (-0.00013700537109375, 4.125) (-0.00013798284912109373, 4.126953125) (-0.0001388275146484375, 4.12890625) (-0.0001395131378173828, 4.130859375) (-0.00014003668212890624, 4.1328125) (-0.00014040774536132813, 4.134765625) (-0.0001406346740722656, 4.13671875) (-0.00014073289489746092, 4.138671875) (-0.00014071623229980468, 4.140625) (-0.0001406109924316406, 4.142578125) (-0.00014048419189453124, 4.14453125) (-0.00014041641235351562, 4.146484375) (-0.0001404922637939453, 4.1484375) (-0.00014077206420898438, 4.150390625) (-0.00014126062011718748, 4.15234375) (-0.00014194224548339844, 4.154296875) (-0.00014279649353027342, 4.15625) (-0.00014386178588867186, 4.158203125) (-0.00014524285888671873, 4.16015625) (-0.00014695492553710936, 4.162109375) (-0.00014889923095703125, 4.1640625) (-0.00015090371704101562, 4.166015625) (-0.00015274021911621094, 4.16796875) (-0.0001542508087158203, 4.169921875) (-0.00015534616088867188, 4.171875) (-0.00015574832153320313, 4.173828125) (-0.0001550205078125, 4.17578125) (-0.00015298068237304686, 4.177734375) (-0.00014968359375, 4.1796875) (-0.00014546147155761717, 4.181640625) (-0.00014093624877929687, 4.18359375) (-0.00013664572143554687, 4.185546875) (-0.000133169921875, 4.1875) (-0.00013138209533691405, 4.189453125) (-0.0001321499328613281, 4.19140625) (-0.0001348121337890625, 4.193359375) (-0.00013742660522460937, 4.1953125) (-0.00013832470703125, 4.197265625) (-0.00013635354614257813, 4.19921875) (-0.0001337073974609375, 4.201171875) (-0.00013432447814941406, 4.203125) (-0.0001378948516845703, 4.205078125) (-0.0001403578643798828, 4.20703125) (-0.0001337462921142578, 4.208984375) (-0.00010858843231201171, 4.2109375) (-6.240767669677734e-05, 4.212890625) (7.773590087890625e-07, 4.21484375) (7.406438446044921e-05, 4.216796875) (0.0001479303283691406, 4.21875) (0.00021403640747070312, 4.220703125) (0.0002662337951660156, 4.22265625) (0.0002968438720703125, 4.224609375) (0.00029851770019531247, 4.2265625) (0.00026929437255859373, 4.228515625) (0.00021001611328124998, 4.23046875) (0.00012575560760498045, 4.232421875) (2.8287609100341794e-05, 4.234375) (-7.265640258789063e-05, 4.236328125) (-0.00016623225402832031, 4.23828125) (-0.000239701904296875, 4.240234375) (-0.00028901876831054685, 4.2421875) (-0.00031341500854492187, 4.244140625) (-0.0003168732299804687, 4.24609375) (-0.0003106039123535156, 4.248046875) (-0.00030031671142578126, 4.25) (-0.0002878160095214844, 4.251953125) (-0.00027336749267578125, 4.25390625) (-0.0002532162170410156, 4.255859375) (-0.00022705802917480467, 4.2578125) (-0.0001980670166015625, 4.259765625) (-0.00016916224670410156, 4.26171875) (-0.00014397795104980469, 4.263671875) (-0.00012499062347412108, 4.265625) (-0.00011283695983886719, 4.267578125) (-0.00010743416595458983, 4.26953125) (-0.00010810766601562499, 4.271484375) (-0.00011371587371826171, 4.2734375) (-0.00012278614044189452, 4.275390625) (-0.00013404476928710938, 4.27734375) (-0.0001462822723388672, 4.279296875) (-0.0001579576721191406, 4.28125) (-0.00016783253479003905, 4.283203125) (-0.00017523410034179688, 4.28515625) (-0.00017977651977539062, 4.287109375) (-0.00018158151245117188, 4.2890625) (-0.00018119387817382813, 4.291015625) (-0.00017904383850097656, 4.29296875) (-0.00017568417358398438, 4.294921875) (-0.00017195785522460937, 4.296875) (-0.00016845309448242188, 4.298828125) (-0.00016547555541992186, 4.30078125) (-0.0001632105712890625, 4.302734375) (-0.00016159207153320312, 4.3046875) (-0.00016045262145996094, 4.306640625) (-0.00015969854736328125, 4.30859375) (-0.0001591239013671875, 4.310546875) (-0.00015841122436523436, 4.3125) (-0.0001573872833251953, 4.314453125) (-0.00015598284912109374, 4.31640625) (-0.00015419097900390625, 4.318359375) (-0.0001521025390625, 4.3203125) (-0.00014978295898437498, 4.322265625) (-0.00014725465393066405, 4.32421875) (-0.00014457861328125, 4.326171875) (-0.00014183384704589844, 4.328125) (-0.000139072998046875, 4.330078125) (-0.0001363406066894531, 4.33203125) (-0.00013365829467773438, 4.333984375) (-0.0001310126190185547, 4.3359375) (-0.0001284014434814453, 4.337890625) (-0.0001258343505859375, 4.33984375) (-0.0001233186264038086, 4.341796875) (-0.00012086447143554686, 4.34375) (-0.000118472412109375, 4.345703125) (-0.00011613208770751953, 4.34765625) (-0.00011383399200439453, 4.349609375) (-0.00011157533264160156, 4.3515625) (-0.00010935732269287108, 4.353515625) (-0.00010718038940429687, 4.35546875) (-0.00010504146575927734, 4.357421875) (-0.00010293392944335937, 4.359375) (-0.0001008507308959961, 4.361328125) (-9.878378295898437e-05, 4.36328125) (-9.672360229492187e-05, 4.365234375) (-9.466019439697265e-05, 4.3671875) (-9.258110046386718e-05, 4.369140625) (-9.047337341308593e-05, 4.37109375) (-8.832463836669921e-05, 4.373046875) (-8.612211608886718e-05, 4.375) (-8.385491943359374e-05, 4.376953125) (-8.151461791992187e-05, 4.37890625) (-7.909378051757812e-05, 4.380859375) (-7.65845947265625e-05, 4.3828125) (-7.397842407226563e-05, 4.384765625) (-7.12662124633789e-05, 4.38671875) (-6.843909454345703e-05, 4.388671875) (-6.548951721191405e-05, 4.390625) (-6.241113662719726e-05, 4.392578125) (-5.9198581695556637e-05, 4.39453125) (-5.584789657592773e-05, 4.396484375) (-5.235711669921875e-05, 4.3984375) (-4.872657012939453e-05, 4.400390625) (-4.495866012573242e-05, 4.40234375) (-4.10578498840332e-05, 4.404296875) (-3.7030200958251954e-05, 4.40625) (-3.2883007049560544e-05, 4.408203125) (-2.8624959945678708e-05, 4.41015625) (-2.4266117095947265e-05, 4.412109375) (-1.9817956924438476e-05, 4.4140625) (-1.5293636322021483e-05, 4.416015625) (-1.0707956314086914e-05, 4.41796875) (-6.07724142074585e-06, 4.419921875) (-1.4192030429840087e-06, 4.421875) (3.2471919059753417e-06, 4.423828125) (7.901753425598144e-06, 4.42578125) (1.2523032188415526e-05, 4.427734375) (1.708865165710449e-05, 4.4296875) (2.157564926147461e-05, 4.431640625) (2.59608039855957e-05, 4.43359375) (3.022097015380859e-05, 4.435546875) (3.4332992553710936e-05, 4.4375) (3.827379989624023e-05, 4.439453125) (4.2020744323730466e-05, 4.44140625) (4.555184936523437e-05, 4.443359375) (4.8845985412597655e-05, 4.4453125) (5.188307952880859e-05, 4.447265625) (5.464421081542968e-05, 4.44921875) (5.7111724853515626e-05, 4.451171875) (5.9269500732421874e-05, 4.453125) (6.110319519042968e-05, 4.455078125) (6.260027694702149e-05, 4.45703125) (6.375020980834961e-05, 4.458984375) (6.454463958740234e-05, 4.4609375) (6.49774932861328e-05, 4.462890625) (6.504495239257813e-05, 4.46484375) (6.474557495117187e-05, 4.466796875) (6.408023834228515e-05, 4.46875) (6.30521583557129e-05, 4.470703125) (6.166695785522461e-05, 4.47265625) (5.993268966674804e-05, 4.474609375) (5.7859676361083984e-05, 4.4765625) (5.546052551269531e-05, 4.478515625) (5.275004959106445e-05, 4.48046875) (4.9745162963867185e-05, 4.482421875) (4.646474456787109e-05, 4.484375) (4.292957305908203e-05, 4.486328125) (3.9162147521972654e-05, 4.48828125) (3.518651580810547e-05, 4.490234375) (3.10280876159668e-05, 4.4921875) (2.6713329315185547e-05, 4.494140625) (2.2269596099853516e-05, 4.49609375) (1.7724946975708005e-05, 4.498046875) (1.3107949256896973e-05, 4.5) (8.447416305541993e-06, 4.501953125) (3.7721223831176756e-06, 4.50390625) (-8.894786834716796e-07, 4.505859375) (-5.509442329406738e-06, 4.5078125) (-1.0060403823852538e-05, 4.509765625) (-1.4515800476074218e-05, 4.51171875) (-1.88500919342041e-05, 4.513671875) (-2.3038955688476563e-05, 4.515625) (-2.7059526443481445e-05, 4.517578125) (-3.089042472839355e-05, 4.51953125) (-3.45118179321289e-05, 4.521484375) (-3.790559387207031e-05, 4.5234375) (-4.105555725097656e-05, 4.525390625) (-4.394750213623047e-05, 4.52734375) (-4.656937789916992e-05, 4.529296875) (-4.891129684448242e-05, 4.53125) (-5.096545028686523e-05, 4.533203125) (-5.272618865966797e-05, 4.53515625) (-5.419013214111328e-05, 4.537109375) (-5.5356044769287104e-05, 4.5390625) (-5.622490692138671e-05, 4.541015625) (-5.67997817993164e-05, 4.54296875) (-5.70855484008789e-05, 4.544921875) (-5.708877182006836e-05, 4.546875) (-5.681788253784179e-05, 4.548828125) (-5.628303909301758e-05, 4.55078125) (-5.5496036529541014e-05, 4.552734375) (-5.447021484375e-05, 4.5546875) (-5.321995162963867e-05, 4.556640625) (-5.1760536193847656e-05, 4.55859375) (-5.010825729370117e-05, 4.560546875) (-4.8280239105224605e-05, 4.5625) (-4.6294158935546874e-05, 4.564453125) (-4.4167911529541015e-05, 4.56640625) (-4.191919708251953e-05, 4.568359375) (-3.956536102294922e-05, 4.5703125) (-3.712382888793945e-05, 4.572265625) (-3.461185836791992e-05, 4.57421875) (-3.204639434814453e-05, 4.576171875) (-2.944386291503906e-05, 4.578125) (-2.6819759368896484e-05, 4.580078125) (-2.4188751220703125e-05, 4.58203125) (-2.156488227844238e-05, 4.583984375) (-1.896137428283691e-05, 4.5859375) (-1.6390228271484374e-05, 4.587890625) (-1.3862188339233398e-05, 4.58984375) (-1.1386348724365234e-05, 4.591796875) (-8.97005558013916e-06, 4.59375) (-6.619523048400878e-06, 4.595703125) (-4.3395628929138185e-06, 4.59765625) (-2.1334335803985595e-06, 4.599609375) (-3.040671348571777e-09, 4.6015625) (2.0512804985046384e-06, 4.603515625) (4.03062629699707e-06, 4.60546875) (5.93676233291626e-06, 4.607421875) (7.771818161010741e-06, 4.609375) (9.539014816284179e-06, 4.611328125) (1.1242606163024902e-05, 4.61328125) (1.288797378540039e-05, 4.615234375) (1.4481716156005858e-05, 4.6171875) (1.603044891357422e-05, 4.619140625) (1.7540651321411133e-05, 4.62109375) (1.9019485473632813e-05, 4.623046875) (2.0474763870239256e-05, 4.625) (2.1914283752441405e-05, 4.626953125) (2.3345489501953122e-05, 4.62890625) (2.477436065673828e-05, 4.630859375) (2.6205169677734374e-05, 4.6328125) (2.764250564575195e-05, 4.634765625) (2.9091178894042968e-05, 4.63671875) (3.055542755126953e-05, 4.638671875) (3.2039142608642576e-05, 4.640625) (3.354555511474609e-05, 4.642578125) (3.507744598388672e-05, 4.64453125) (3.663901901245117e-05, 4.646484375) (3.823556900024414e-05, 4.6484375) (3.9870819091796874e-05, 4.650390625) (4.1547607421875e-05, 4.65234375) (4.3266761779785156e-05, 4.654296875) (4.502632141113281e-05, 4.65625) (4.682397842407226e-05, 4.658203125) (4.8655876159667964e-05, 4.66015625) (5.051573944091797e-05, 4.662109375) (5.2396545410156245e-05, 4.6640625) (5.429104614257812e-05, 4.666015625) (5.619074630737305e-05, 4.66796875) (5.809085845947265e-05, 4.669921875) (5.999073028564453e-05, 4.671875) (6.188661193847656e-05, 4.673828125) (6.377470016479492e-05, 4.67578125) (6.564762115478515e-05, 4.677734375) (6.749209594726562e-05, 4.6796875) (6.929936218261718e-05, 4.681640625) (7.106423187255858e-05, 4.68359375) (7.277974700927734e-05, 4.685546875) (7.443946075439453e-05, 4.6875) (7.604270935058593e-05, 4.689453125) (7.759369659423828e-05, 4.69140625) (7.910765838623046e-05, 4.693359375) (8.060884094238281e-05, 4.6953125) (8.211260986328124e-05, 4.697265625) (8.363197326660156e-05, 4.69921875) (8.51743392944336e-05, 4.701171875) (8.67401123046875e-05, 4.703125) (8.833768463134766e-05, 4.705078125) (8.997093963623047e-05, 4.70703125) (9.163861083984375e-05, 4.708984375) (9.334242248535156e-05, 4.7109375) (9.508039855957031e-05, 4.712890625) (9.684442901611328e-05, 4.71484375) (9.863428497314453e-05, 4.716796875) (0.00010045308685302734, 4.71875) (0.0001022759017944336, 4.720703125) (0.0001040659942626953, 4.72265625) (0.0001057769546508789, 4.724609375) (0.00010734820556640624, 4.7265625) (0.00010875175476074218, 4.728515625) (0.00010998106384277344, 4.73046875) (0.00011101705932617188, 4.732421875) (0.0001118275146484375, 4.734375) (0.00011237469482421874, 4.736328125) (0.00011262908935546874, 4.73828125) (0.00011258424377441406, 4.740234375) (0.00011227017211914062, 4.7421875) (0.00011167769622802733, 4.744140625) (0.00011075263977050781, 4.74609375) (0.00010951006317138671, 4.748046875) (0.00010804339599609374, 4.75) (0.0001065953598022461, 4.751953125) (0.00010556122589111327, 4.75390625) (0.00010528547668457031, 4.755859375) (0.00010597937774658203, 4.7578125) (0.00010786847686767578, 4.759765625) (0.00011120430755615234, 4.76171875) (0.00011601942443847655, 4.763671875) (0.00012216981506347655, 4.765625) (0.00012912738037109374, 4.767578125) (0.00013585882568359375, 4.76953125) (0.00014147189331054687, 4.771484375) (0.00014539559936523438, 4.7734375) (0.00014710952758789062, 4.775390625) (0.0001462982177734375, 4.77734375) (0.0001431531524658203, 4.779296875) (0.0001382180938720703, 4.78125) (0.00013281774902343748, 4.783203125) (0.00012916583251953125, 4.78515625) (0.0001292293243408203, 4.787109375) (0.00013474087524414062, 4.7890625) (0.0001474651336669922, 4.791015625) (0.00016869491577148436, 4.79296875) (0.00019922589111328123, 4.794921875) (0.00023827694702148436, 4.796875) (0.0002827978515625, 4.798828125) (0.0003292974853515625, 4.80078125) (0.0003742259826660156, 4.802734375) (0.0004169919738769531, 4.8046875) (0.00046018237304687497, 4.806640625) (0.0005027880554199219, 4.80859375) (0.000542444091796875, 4.810546875) (0.0005724544067382812, 4.8125) (0.0005798292236328125, 4.814453125) (0.0005590361938476562, 4.81640625) (0.0005078160705566406, 4.818359375) (0.0004272978820800781, 4.8203125) (0.0003314028930664062, 4.822265625) (0.000232405029296875, 4.82421875) (0.00014349362182617187, 4.826171875) (8.177246093749999e-05, 4.828125) (5.1147342681884764e-05, 4.830078125) (4.968576431274414e-05, 4.83203125) (7.05447998046875e-05, 4.833984375) (9.798112487792969e-05, 4.8359375) (0.00012343367004394532, 4.837890625) (0.00014419122314453126, 4.83984375) (0.00015992387390136717, 4.841796875) (0.00017543997192382812, 4.84375) (0.00019231503295898437, 4.845703125) (0.00020890148925781248, 4.84765625) (0.00022353164672851561, 4.849609375) (0.00023367388916015623, 4.8515625) (0.0002385167541503906, 4.853515625) (0.00023903997802734374, 4.85546875) (0.00023675213623046873, 4.857421875) (0.0002335301055908203, 4.859375) (0.00023070416259765624, 4.861328125) (0.00022887599182128905, 4.86328125) (0.00022833978271484374, 4.865234375) (0.00022899664306640625, 4.8671875) (0.000230744384765625, 4.869140625) (0.0002335356750488281, 4.87109375) (0.0002368241271972656, 4.873046875) (0.00024003323364257811, 4.875) (0.00024278263854980467, 4.876953125) (0.0002447770080566406, 4.87890625) (0.00024601275634765626, 4.880859375) (0.000246677734375, 4.8828125) (0.0002468513793945312, 4.884765625) (0.00024660400390625, 4.88671875) (0.0002462182922363281, 4.888671875) (0.00024589096069335936, 4.890625) (0.0002457391052246094, 4.892578125) (0.0002458889617919922, 4.89453125) (0.00024631336975097654, 4.896484375) (0.0002469738311767578, 4.8984375) (0.00024789732360839845, 4.900390625) (0.00024907876586914064, 4.90234375) (0.00025047470092773435, 4.904296875) (0.00025206072998046873, 4.90625) (0.00025380522155761716, 4.908203125) (0.0002556725769042969, 4.91015625) (0.00025766082763671876, 4.912109375) (0.0002597362365722656, 4.9140625) (0.00026184490966796873, 4.916015625) (0.00026393820190429685, 4.91796875) (0.00026595257568359375, 4.919921875) (0.00026785125732421873, 4.921875) (0.00026961923217773436, 4.923828125) (0.000271238525390625, 4.92578125) (0.000272698974609375, 4.927734375) (0.0002739934387207031, 4.9296875) (0.00027511505126953125, 4.931640625) (0.00027606881713867186, 4.93359375) (0.00027686676025390623, 4.935546875) (0.00027751016235351563, 4.9375) (0.0002779972839355469, 4.939453125) (0.000278327880859375, 4.94140625) (0.000278500732421875, 4.943359375) (0.0002785252685546875, 4.9453125) (0.00027841476440429685, 4.947265625) (0.0002781800537109375, 4.94921875) (0.00027783575439453126, 4.951171875) (0.00027739541625976564, 4.953125) (0.00027687069702148434, 4.955078125) (0.00027627523803710937, 4.95703125) (0.00027562033081054684, 4.958984375) (0.0002749140625, 4.9609375) (0.0002741649169921875, 4.962890625) (0.00027338049316406247, 4.96484375) (0.00027256713867187496, 4.966796875) (0.0002717333984375, 4.96875) (0.00027088812255859375, 4.970703125) (0.00027003930664062497, 4.97265625) (0.00026919586181640623, 4.974609375) (0.00026836492919921876, 4.9765625) (0.0002675518493652344, 4.978515625) (0.0002667607116699219, 4.98046875) (0.0002659931335449219, 4.982421875) (0.0002652490539550781, 4.984375) (0.00026452816772460936, 4.986328125) (0.00026382843017578125, 4.98828125) (0.00026314633178710936, 4.990234375) (0.0002624783935546875, 4.9921875) (0.00026182028198242185, 4.994140625) (0.00026116793823242185, 4.99609375) (0.00026051821899414064, 4.998046875) (0.00025986532592773437, 5.0) (0.00025920053100585936, 5.001953125) (0.00025851318359375, 5.00390625) (0.0002577900695800781, 5.005859375) (0.00025701654052734374, 5.0078125) (0.000256177734375, 5.009765625) (0.00025525651550292966, 5.01171875) (0.0002542337188720703, 5.013671875) (0.00025309091186523434, 5.015625) (0.0002518093719482422, 5.017578125) (0.00025037335205078124, 5.01953125) (0.00024877134704589843, 5.021484375) (0.00024698846435546875, 5.0234375) (0.0002450073547363281, 5.025390625) (0.00024280795288085936, 5.02734375) (0.000240365478515625, 5.029296875) (0.00023766172790527342, 5.03125) (0.00023468791198730468, 5.033203125) (0.00023143505859375, 5.03515625) (0.0002278958282470703, 5.037109375) (0.00022407260131835936, 5.0390625) (0.00021997271728515624, 5.041015625) (0.00021561810302734373, 5.04296875) (0.0002110474395751953, 5.044921875) (0.00020628662109375, 5.046875) (0.0002013494415283203, 5.048828125) (0.00019624194335937498, 5.05078125) (0.00019095614624023438, 5.052734375) (0.00018548764038085936, 5.0546875) (0.0001798376007080078, 5.056640625) (0.00017400256347656248, 5.05859375) (0.000167978759765625, 5.060546875) (0.00016176225280761718, 5.0625) (0.00015534164428710937, 5.064453125) (0.00014871669006347657, 5.06640625) (0.0001418992919921875, 5.068359375) (0.0001348798828125, 5.0703125) (0.0001276376495361328, 5.072265625) (0.00012012806701660156, 5.07421875) (0.00011227493286132812, 5.076171875) (0.00010403764343261718, 5.078125) (9.541381072998047e-05, 5.080078125) (8.641674804687499e-05, 5.08203125) (7.70882797241211e-05, 5.083984375) (6.748262023925781e-05, 5.0859375) (5.765591430664062e-05, 5.087890625) (4.769414138793945e-05, 5.08984375) (3.770845794677734e-05, 5.091796875) (2.779525375366211e-05, 5.09375) (1.8045829772949218e-05, 5.095703125) (8.53156852722168e-06, 5.09765625) (-7.045854926109314e-07, 5.099609375) (-9.589994430541992e-06, 5.1015625) (-1.8032415390014648e-05, 5.103515625) (-2.5918842315673826e-05, 5.10546875) (-3.31028938293457e-05, 5.107421875) (-3.9480731964111326e-05, 5.109375) (-4.4999114990234376e-05, 5.111328125) (-4.961980056762695e-05, 5.11328125) (-5.333378982543945e-05, 5.115234375) (-5.6162670135498046e-05, 5.1171875) (-5.8142478942871094e-05, 5.119140625) (-5.935872650146484e-05, 5.12109375) (-5.9945964813232416e-05, 5.123046875) (-6.001176834106445e-05, 5.125) (-5.964440155029297e-05, 5.126953125) (-5.891425323486328e-05, 5.12890625) (-5.785928344726562e-05, 5.130859375) (-5.654396057128906e-05, 5.1328125) (-5.505559539794922e-05, 5.134765625) (-5.348941040039062e-05, 5.13671875) (-5.196018600463867e-05, 5.138671875) (-5.055984115600586e-05, 5.140625) (-4.9347610473632813e-05, 5.142578125) (-4.837968444824219e-05, 5.14453125) (-4.770111465454101e-05, 5.146484375) (-4.732734298706054e-05, 5.1484375) (-4.7257511138916015e-05, 5.150390625) (-4.745121765136719e-05, 5.15234375) (-4.782501983642578e-05, 5.154296875) (-4.8323287963867186e-05, 5.15625) (-4.891541290283203e-05, 5.158203125) (-4.958266448974609e-05, 5.16015625) (-5.033063507080078e-05, 5.162109375) (-5.1154254913330074e-05, 5.1640625) (-5.203519439697265e-05, 5.166015625) (-5.2961078643798827e-05, 5.16796875) (-5.391921615600586e-05, 5.169921875) (-5.489872360229492e-05, 5.171875) (-5.5896633148193354e-05, 5.173828125) (-5.6905807495117184e-05, 5.17578125) (-5.791567993164062e-05, 5.177734375) (-5.8931850433349605e-05, 5.1796875) (-5.9970394134521485e-05, 5.181640625) (-6.106348419189453e-05, 5.18359375) (-6.226260757446289e-05, 5.185546875) (-6.360373306274414e-05, 5.1875) (-6.510671997070313e-05, 5.189453125) (-6.678590393066406e-05, 5.19140625) (-6.864447021484375e-05, 5.193359375) (-7.06843032836914e-05, 5.1953125) (-7.290875244140625e-05, 5.197265625) (-7.531163787841797e-05, 5.19921875) (-7.787891387939452e-05, 5.201171875) (-8.060015869140624e-05, 5.203125) (-8.346717834472655e-05, 5.205078125) (-8.647451019287109e-05, 5.20703125) (-8.96206817626953e-05, 5.208984375) (-9.289859771728515e-05, 5.2109375) (-9.629630279541015e-05, 5.212890625) (-9.979925537109375e-05, 5.21484375) (-0.00010338917541503906, 5.216796875) (-0.00010704994201660156, 5.21875) (-0.00011076770019531249, 5.220703125) (-0.00011452827453613281, 5.22265625) (-0.0001183185577392578, 5.224609375) (-0.00012212712097167967, 5.2265625) (-0.00012594366455078124, 5.228515625) (-0.00012976202392578123, 5.23046875) (-0.00013357974243164062, 5.232421875) (-0.00013739324951171874, 5.234375) (-0.0001411985626220703, 5.236328125) (-0.00014499096679687499, 5.23828125) (-0.00014876434326171873, 5.240234375) (-0.00015251332092285156, 5.2421875) (-0.00015623287963867187, 5.244140625) (-0.0001599157257080078, 5.24609375) (-0.0001635532989501953, 5.248046875) (-0.00016713714599609375, 5.25) (-0.00017065904235839843, 5.251953125) (-0.00017411312866210936, 5.25390625) (-0.0001774957580566406, 5.255859375) (-0.00018080299377441406, 5.2578125) (-0.0001840321044921875, 5.259765625) (-0.000187181884765625, 5.26171875) (-0.00019025157165527342, 5.263671875) (-0.0001932409210205078, 5.265625) (-0.00019614851379394532, 5.267578125) (-0.00019897097778320312, 5.26953125) (-0.0002017052001953125, 5.271484375) (-0.000204347900390625, 5.2734375) (-0.00020689442443847655, 5.275390625) (-0.00020934326171875, 5.27734375) (-0.00021169664001464842, 5.279296875) (-0.00021396157836914062, 5.28125) (-0.00021615415954589842, 5.283203125) (-0.0002182890930175781, 5.28515625) (-0.00022037355041503904, 5.287109375) (-0.00022241407775878906, 5.2890625) (-0.0002244151611328125, 5.291015625) (-0.00022637550354003905, 5.29296875) (-0.0002282918243408203, 5.294921875) (-0.00023015252685546875, 5.296875) (-0.00023193212890625, 5.298828125) (-0.00023360543823242185, 5.30078125) (-0.00023515185546875, 5.302734375) (-0.00023655313110351563, 5.3046875) (-0.00023780226135253904, 5.306640625) (-0.0002388968048095703, 5.30859375) (-0.00023982835388183593, 5.310546875) (-0.00024058261108398437, 5.3125) (-0.00024113395690917967, 5.314453125) (-0.00024146444702148435, 5.31640625) (-0.00024158168029785154, 5.318359375) (-0.00024150027465820312, 5.3203125) (-0.00024123622131347656, 5.322265625) (-0.00024080487060546875, 5.32421875) (-0.00024021490478515624, 5.326171875) (-0.000239505615234375, 5.328125) (-0.00023877261352539062, 5.330078125) (-0.00023812913513183593, 5.33203125) (-0.00023768356323242186, 5.333984375) (-0.00023754095458984373, 5.3359375) (-0.0002377579650878906, 5.337890625) (-0.0002383833770751953, 5.33984375) (-0.00023952755737304687, 5.341796875) (-0.00024124865722656248, 5.34375) (-0.00024352496337890623, 5.345703125) (-0.00024625067138671873, 5.34765625) (-0.00024914202880859374, 5.349609375) (-0.0002518826141357422, 5.3515625) (-0.0002543174438476562, 5.353515625) (-0.00025631710815429687, 5.35546875) (-0.0002576450805664062, 5.357421875) (-0.00025819015502929685, 5.359375) (-0.00025796975708007814, 5.361328125) (-0.000257189453125, 5.36328125) (-0.00025655639648437497, 5.365234375) (-0.00025687066650390624, 5.3671875) (-0.00025849072265625, 5.369140625) (-0.00026157049560546875, 5.37109375) (-0.0002664571533203125, 5.373046875) (-0.00027330999755859373, 5.375) (-0.0002817624816894531, 5.376953125) (-0.00029110885620117186, 5.37890625) (-0.00029907940673828124, 5.380859375) (-0.0003021938781738281, 5.3828125) (-0.00029897534179687497, 5.384765625) (-0.00028904522705078126, 5.38671875) (-0.00027296075439453126, 5.388671875) (-0.0002535492858886719, 5.390625) (-0.00023087396240234373, 5.392578125) (-0.00020280697631835937, 5.39453125) (-0.0001673413848876953, 5.396484375) (-0.00012095724487304688, 5.3984375) (-6.282121276855469e-05, 5.400390625) (4.721723556518555e-06, 5.40234375) (7.569351196289061e-05, 5.404296875) (0.00013968374633789062, 5.40625) (0.00018503044128417967, 5.408203125) (0.00020037374877929687, 5.41015625) (0.00018106802368164063, 5.412109375) (0.00013037301635742188, 5.4140625) (5.652893829345703e-05, 5.416015625) (-2.9670324325561523e-05, 5.41796875) (-0.0001208749542236328, 5.419921875) (-0.00021203546142578125, 5.421875) (-0.0002981214599609375, 5.423828125) (-0.0003717137145996094, 5.42578125) (-0.00042295199584960934, 5.427734375) (-0.0004463983154296875, 5.4296875) (-0.0004424165344238281, 5.431640625) (-0.00041797027587890624, 5.43359375) (-0.00038438992309570313, 5.435546875) (-0.0003492229614257812, 5.4375) (-0.000315631103515625, 5.439453125) (-0.0002835816040039062, 5.44140625) (-0.00025110763549804685, 5.443359375) (-0.00021861853027343748, 5.4453125) (-0.00018869203186035156, 5.447265625) (-0.0001645594482421875, 5.44921875) (-0.0001489949035644531, 5.451171875) (-0.00014248736572265624, 5.453125) (-0.00014403524780273437, 5.455078125) (-0.00015187606811523438, 5.45703125) (-0.00016364671325683593, 5.458984375) (-0.00017757972717285156, 5.4609375) (-0.0001920144805908203, 5.462890625) (-0.00020495187377929687, 5.46484375) (-0.0002152005920410156, 5.466796875) (-0.0002222333068847656, 5.46875) (-0.00022582313537597657, 5.470703125) (-0.00022640068054199217, 5.47265625) (-0.0002246984100341797, 5.474609375) (-0.00022127655029296873, 5.4765625) (-0.00021691622924804686, 5.478515625) (-0.000212628173828125, 5.48046875) (-0.00020893142700195312, 5.482421875) (-0.0002060278625488281, 5.484375) (-0.00020401950073242186, 5.486328125) (-0.00020270309448242187, 5.48828125) (-0.00020186486816406248, 5.490234375) (-0.00020139785766601562, 5.4921875) (-0.00020102328491210936, 5.494140625) (-0.00020038185119628906, 5.49609375) (-0.00019928558349609373, 5.498046875) (-0.00019762129211425782, 5.5) (-0.00019534307861328125, 5.501953125) (-0.00019250936889648437, 5.50390625) (-0.00018912750244140625, 5.505859375) (-0.00018517630004882813, 5.5078125) (-0.00018069580078125, 5.509765625) (-0.00017572723388671876, 5.51171875) (-0.00017036750793457032, 5.513671875) (-0.00016478904724121093, 5.515625) (-0.00015907182312011717, 5.517578125) (-0.00015326156616210938, 5.51953125) (-0.00014734893798828123, 5.521484375) (-0.00014116845703125, 5.5234375) (-0.00013457179260253904, 5.525390625) (-0.00012750186920166016, 5.52734375) (-0.00011989105987548827, 5.529296875) (-0.00011169513702392578, 5.53125) (-0.0001031315460205078, 5.533203125) (-9.450077056884766e-05, 5.53515625) (-8.614073944091796e-05, 5.537109375) (-7.889272308349609e-05, 5.5390625) (-7.374359130859375e-05, 5.541015625) (-7.132912445068359e-05, 5.54296875) (-7.218583679199219e-05, 5.544921875) (-7.56158447265625e-05, 5.546875) (-7.917170715332031e-05, 5.548828125) (-8.109682464599609e-05, 5.55078125) (-8.085681915283203e-05, 5.552734375) (-8.002877807617187e-05, 5.5546875) (-8.3169677734375e-05, 5.556640625) (-9.254241180419922e-05, 5.55859375) (-0.00010459625244140624, 5.560546875) (-0.0001108957061767578, 5.5625) (-9.911216735839843e-05, 5.564453125) (-6.0198482513427734e-05, 5.56640625) (2.7594082355499265e-06, 5.568359375) (7.691313171386719e-05, 5.5703125) (0.00014407379150390624, 5.572265625) (0.00018661949157714844, 5.57421875) (0.00019927392578125, 5.576171875) (0.00018777415466308592, 5.578125) (0.00016130174255371094, 5.580078125) (0.00012984288024902343, 5.58203125) (9.850838470458984e-05, 5.583984375) (6.70452880859375e-05, 5.5859375) (3.784976196289062e-05, 5.587890625) (1.7777355194091796e-05, 5.58984375) (1.203026008605957e-05, 5.591796875) (2.546624183654785e-05, 5.59375) (5.827210998535156e-05, 5.595703125) (0.00010011785888671875, 5.59765625) (0.00014208584594726563, 5.599609375) (0.00017493402099609374, 5.6015625) (0.00018841700744628905, 5.603515625) (0.00018310047912597656, 5.60546875) (0.00016234539794921874, 5.607421875) (0.00013292237854003905, 5.609375) (0.00010774865722656249, 5.611328125) (9.252077484130859e-05, 5.61328125) (8.765043640136718e-05, 5.615234375) (9.089591979980468e-05, 5.6171875) (9.558647918701171e-05, 5.619140625) (9.877925872802734e-05, 5.62109375) (0.00010143642425537109, 5.623046875) (0.00010437139129638671, 5.625) (0.00010881452941894531, 5.626953125) (0.00011468118286132813, 5.62890625) (0.00012072748565673828, 5.630859375) (0.0001263473663330078, 5.6328125) (0.00013133644104003906, 5.634765625) (0.00013537928771972655, 5.63671875) (0.00013802149963378907, 5.638671875) (0.00013907388305664062, 5.640625) (0.00013871919250488281, 5.642578125) (0.00013747329711914061, 5.64453125) (0.00013586703491210936, 5.646484375) (0.0001340968475341797, 5.6484375) (0.0001321497344970703, 5.650390625) (0.0001300791778564453, 5.65234375) (0.00012809640502929687, 5.654296875) (0.00012637078857421875, 5.65625) (0.0001249070816040039, 5.658203125) (0.00012352643585205076, 5.66015625) (0.00012203804779052734, 5.662109375) (0.00012038294982910156, 5.6640625) (0.00011858578491210937, 5.666015625) (0.00011670795440673827, 5.66796875) (0.0001147606964111328, 5.669921875) (0.0001127104263305664, 5.671875) (0.00011055672454833984, 5.673828125) (0.00010833587646484375, 5.67578125) (0.00010608606719970702, 5.677734375) (0.00010383169555664062, 5.6796875) (0.00010157180786132812, 5.681640625) (9.928109741210937e-05, 5.68359375) (9.69446792602539e-05, 5.685546875) (9.456191253662109e-05, 5.6875) (9.213291931152344e-05, 5.689453125) (8.966316986083984e-05, 5.69140625) (8.715530395507812e-05, 5.693359375) (8.460739135742188e-05, 5.6953125) (8.202233886718749e-05, 5.697265625) (7.940386962890625e-05, 5.69921875) (7.675637054443359e-05, 5.701171875) (7.409033203124999e-05, 5.703125) (7.141807556152343e-05, 5.705078125) (6.875307464599609e-05, 5.70703125) (6.611040496826171e-05, 5.708984375) (6.350243377685546e-05, 5.7109375) (6.0940082550048824e-05, 5.712890625) (5.843556213378906e-05, 5.71484375) (5.600004959106445e-05, 5.716796875) (5.364215087890625e-05, 5.71875) (5.136791610717773e-05, 5.720703125) (4.917961502075195e-05, 5.72265625) (4.7078781127929685e-05, 5.724609375) (4.5069305419921875e-05, 5.7265625) (4.315583038330078e-05, 5.728515625) (4.1343498229980466e-05, 5.73046875) (3.963717651367187e-05, 5.732421875) (3.803995513916015e-05, 5.734375) (3.655412292480468e-05, 5.736328125) (3.518175506591797e-05, 5.73828125) (3.3923797607421876e-05, 5.740234375) (3.277999496459961e-05, 5.7421875) (3.1748981475830074e-05, 5.744140625) (3.08280143737793e-05, 5.74609375) (3.0013608932495114e-05, 5.748046875) (2.9302066802978515e-05, 5.75) (2.868910980224609e-05, 5.751953125) (2.817005920410156e-05, 5.75390625) (2.773991584777832e-05, 5.755859375) (2.7392629623413083e-05, 5.7578125) (2.712126541137695e-05, 5.759765625) (2.6917850494384764e-05, 5.76171875) (2.6772796630859373e-05, 5.763671875) (2.6675628662109374e-05, 5.765625) (2.661542510986328e-05, 5.767578125) (2.658052825927734e-05, 5.76953125) (2.655902290344238e-05, 5.771484375) (2.6539316177368163e-05, 5.7734375) (2.6509899139404295e-05, 5.775390625) (2.6459781646728515e-05, 5.77734375) (2.637922477722168e-05, 5.779296875) (2.6258865356445313e-05, 5.78125) (2.6089447021484374e-05, 5.783203125) (2.586240196228027e-05, 5.78515625) (2.5569171905517577e-05, 5.787109375) (2.5200586318969727e-05, 5.7890625) (2.4747562408447266e-05, 5.791015625) (2.420052719116211e-05, 5.79296875) (2.3548892974853515e-05, 5.794921875) (2.278298568725586e-05, 5.796875) (2.1894195556640624e-05, 5.798828125) (2.087458610534668e-05, 5.80078125) (1.971820068359375e-05, 5.802734375) (1.842090797424316e-05, 5.8046875) (1.6979785919189453e-05, 5.806640625) (1.5394497871398926e-05, 5.80859375) (1.3667229652404784e-05, 5.810546875) (1.1800497055053711e-05, 5.8125) (9.797518730163575e-06, 5.814453125) (7.661123275756836e-06, 5.81640625) (5.392318248748779e-06, 5.818359375) (2.9935584068298336e-06, 5.8203125) (4.6941396594047545e-07, 5.822265625) (-2.1738114356994628e-06, 5.82421875) (-4.9266233444213866e-06, 5.826171875) (-7.77826452255249e-06, 5.828125) (-1.0718283653259277e-05, 5.830078125) (-1.3731825828552245e-05, 5.83203125) (-1.6798786163330078e-05, 5.833984375) (-1.990109634399414e-05, 5.8359375) (-2.302359962463379e-05, 5.837890625) (-2.6160121917724607e-05, 5.83984375) (-2.9316532135009764e-05, 5.841796875) (-3.24950942993164e-05, 5.84375) (-3.568958282470703e-05, 5.845703125) (-3.8889533996582026e-05, 5.84765625) (-4.208065032958984e-05, 5.849609375) (-4.524571990966797e-05, 5.8515625) (-4.8367267608642575e-05, 5.853515625) (-5.141654968261718e-05, 5.85546875) (-5.434658050537109e-05, 5.857421875) (-5.711092376708984e-05, 5.859375) (-5.966701507568359e-05, 5.861328125) (-6.198613739013671e-05, 5.86328125) (-6.406437683105468e-05, 5.865234375) (-6.589761352539062e-05, 5.8671875) (-6.747179412841796e-05, 5.869140625) (-6.87579345703125e-05, 5.87109375) (-6.971080017089843e-05, 5.873046875) (-7.029829406738281e-05, 5.875) (-7.052188110351563e-05, 5.876953125) (-7.039842224121093e-05, 5.87890625) (-6.993700408935546e-05, 5.880859375) (-6.915768432617188e-05, 5.8828125) (-6.808004760742187e-05, 5.884765625) (-6.674483489990234e-05, 5.88671875) (-6.526986694335937e-05, 5.888671875) (-6.378818130493163e-05, 5.890625) (-6.240636444091797e-05, 5.892578125) (-6.121257781982421e-05, 5.89453125) (-6.023833084106445e-05, 5.896484375) (-5.9470138549804684e-05, 5.8984375) (-5.8974571228027344e-05, 5.900390625) (-5.8898483276367185e-05, 5.90234375) (-5.929511260986328e-05, 5.904296875) (-6.013092041015625e-05, 5.90625) (-6.125465011596679e-05, 5.908203125) (-6.235240936279296e-05, 5.91015625) (-6.322187423706055e-05, 5.912109375) (-6.37906494140625e-05, 5.9140625) (-6.37751235961914e-05, 5.916015625) (-6.275511169433594e-05, 5.91796875) (-6.0524112701416015e-05, 5.919921875) (-5.703950881958008e-05, 5.921875) (-5.262944030761718e-05, 5.923828125) (-4.807467651367187e-05, 5.92578125) (-4.403864288330078e-05, 5.927734375) (-4.106005477905273e-05, 5.9296875) (-4.0064865112304684e-05, 5.931640625) (-4.212726211547851e-05, 5.93359375) (-4.6671554565429684e-05, 5.935546875) (-5.176247406005859e-05, 5.9375) (-5.541286468505859e-05, 5.939453125) (-5.474239730834961e-05, 5.94140625) (-5.0608627319335937e-05, 5.943359375) (-4.791907501220703e-05, 5.9453125) (-4.730243682861328e-05, 5.947265625) (-4.7923919677734374e-05, 5.94921875) (-4.474185180664062e-05, 5.951171875) (-2.451514434814453e-05, 5.953125) (1.9078571319580077e-05, 5.955078125) (8.758646392822266e-05, 5.95703125) (0.00018010671997070312, 5.958984375) (0.00028293829345703124, 5.9609375) (0.00038122003173828126, 5.962890625) (0.00046062310791015625, 5.96484375) (0.0005034086303710938, 5.966796875) (0.0005012023010253906, 5.96875) (0.00045487738037109374, 5.970703125) (0.00037013619995117185, 5.97265625) (0.00025895419311523435, 5.974609375) (0.00013428939819335936, 5.9765625) (5.285783767700195e-06, 5.978515625) (-0.00011806164550781249, 5.98046875) (-0.00022328334045410155, 5.982421875) (-0.000300842041015625, 5.984375) (-0.00034370700073242183, 5.986328125) (-0.00035075524902343746, 5.98828125) (-0.0003307852478027344, 5.990234375) (-0.000294174072265625, 5.9921875) (-0.0002509420928955078, 5.994140625) (-0.00021047882080078124, 5.99609375) (-0.0001759041290283203, 5.998046875) (-0.00014866561889648438, 6.0) (-0.00012871632385253904, 6.001953125) (-0.00011230766296386719, 6.00390625) (-9.793182373046874e-05, 6.005859375) (-8.502967834472656e-05, 6.0078125) (-7.418843078613281e-05, 6.009765625) (-6.857617187499999e-05, 6.01171875) (-6.952583312988281e-05, 6.013671875) (-7.694908905029296e-05, 6.015625) (-8.935781860351563e-05, 6.017578125) (-0.00010384848022460937, 6.01953125) (-0.00011832821655273437, 6.021484375) (-0.0001310451965332031, 6.0234375) (-0.00014107461547851563, 6.025390625) (-0.00014849278259277342, 6.02734375) (-0.000153318115234375, 6.029296875) (-0.0001557960205078125, 6.03125) (-0.00015645614624023438, 6.033203125) (-0.00015563192749023437, 6.03515625) (-0.0001538924560546875, 6.037109375) (-0.0001521298828125, 6.0390625) (-0.00015079193115234373, 6.041015625) (-0.00015003985595703125, 6.04296875) (-0.00014993104553222655, 6.044921875) (-0.00015026119995117186, 6.046875) (-0.00015085043334960938, 6.048828125) (-0.00015162208557128906, 6.05078125) (-0.00015237327575683593, 6.052734375) (-0.0001528078918457031, 6.0546875) (-0.00015277679443359375, 6.056640625) (-0.00015222515869140623, 6.05859375) (-0.00015116789245605468, 6.060546875) (-0.00014972149658203123, 6.0625) (-0.00014795808410644531, 6.064453125) (-0.00014590811157226563, 6.06640625) (-0.0001436309051513672, 6.068359375) (-0.00014119805908203124, 6.0703125) (-0.0001386707763671875, 6.072265625) (-0.0001361036682128906, 6.07421875) (-0.00013353033447265625, 6.076171875) (-0.00013094859313964843, 6.078125) (-0.00012835894775390625, 6.080078125) (-0.00012577168273925781, 6.08203125) (-0.0001231929702758789, 6.083984375) (-0.00012063076782226562, 6.0859375) (-0.0001180859375, 6.087890625) (-0.00011554814910888671, 6.08984375) (-0.0001130069351196289, 6.091796875) (-0.00011046073913574218, 6.09375) (-0.0001079119873046875, 6.095703125) (-0.00010536139678955077, 6.09765625) (-0.00010281060028076172, 6.099609375) (-0.00010025716400146483, 6.1015625) (-9.76948471069336e-05, 6.103515625) (-9.511790466308593e-05, 6.10546875) (-9.251669311523438e-05, 6.107421875) (-8.987915802001953e-05, 6.109375) (-8.719249725341797e-05, 6.111328125) (-8.444200134277343e-05, 6.11328125) (-8.161343383789063e-05, 6.115234375) (-7.869427490234374e-05, 6.1171875) (-7.567384338378905e-05, 6.119140625) (-7.254383850097656e-05, 6.12109375) (-6.929742431640624e-05, 6.123046875) (-6.592540740966796e-05, 6.125) (-6.241971588134765e-05, 6.126953125) (-5.877512741088867e-05, 6.12890625) (-5.4982650756835934e-05, 6.130859375) (-5.1033134460449215e-05, 6.1328125) (-4.6913185119628905e-05, 6.134765625) (-4.260257720947265e-05, 6.13671875) (-3.809263229370117e-05, 6.138671875) (-3.338673400878906e-05, 6.140625) (-2.8494817733764646e-05, 6.142578125) (-2.3436285018920897e-05, 6.14453125) (-1.8230194091796874e-05, 6.146484375) (-1.2890568733215332e-05, 6.1484375) (-7.440993785858154e-06, 6.150390625) (-1.913707494735718e-06, 6.15234375) (3.6704115867614745e-06, 6.154296875) (9.29656982421875e-06, 6.15625) (1.4965808868408202e-05, 6.158203125) (2.069905853271484e-05, 6.16015625) (2.6499725341796874e-05, 6.162109375) (3.2357685089111325e-05, 6.1640625) (3.825054931640625e-05, 6.166015625) (4.413616943359375e-05, 6.16796875) (4.999074554443359e-05, 6.169921875) (5.581075286865234e-05, 6.171875) (6.15926513671875e-05, 6.173828125) (6.733924865722656e-05, 6.17578125) (7.30550308227539e-05, 6.177734375) (7.873493957519531e-05, 6.1796875) (8.439773559570312e-05, 6.181640625) (9.008714294433594e-05, 6.18359375) (9.580921173095703e-05, 6.185546875) (0.0001015423583984375, 6.1875) (0.00010722811889648437, 6.189453125) (0.00011275985717773437, 6.19140625) (0.00011806213378906249, 6.193359375) (0.00012308916473388672, 6.1953125) (0.00012780441284179688, 6.197265625) (0.00013219485473632813, 6.19921875) (0.00013623104858398436, 6.201171875) (0.0001398611145019531, 6.203125) (0.000143047119140625, 6.205078125) (0.00014575933837890625, 6.20703125) (0.00014795806884765624, 6.208984375) (0.00014960946655273436, 6.2109375) (0.00015064823913574219, 6.212890625) (0.00015097203063964843, 6.21484375) (0.0001505361785888672, 6.216796875) (0.00014934307861328125, 6.21875) (0.00014744178771972655, 6.220703125) (0.00014494482421874999, 6.22265625) (0.00014193421936035155, 6.224609375) (0.0001384585266113281, 6.2265625) (0.0001345706024169922, 6.228515625) (0.0001303121643066406, 6.23046875) (0.00012573194885253907, 6.232421875) (0.00012089491271972655, 6.234375) (0.00011584475708007812, 6.236328125) (0.00011060537719726563, 6.23828125) (0.00010522138977050781, 6.240234375) (9.974472045898437e-05, 6.2421875) (9.425611877441406e-05, 6.244140625) (8.887342071533203e-05, 6.24609375) (8.366793823242187e-05, 6.248046875) (7.867022705078124e-05, 6.25) (7.388029479980469e-05, 6.251953125) (6.925301361083984e-05, 6.25390625) (6.476351928710937e-05, 6.255859375) (6.0412353515625e-05, 6.2578125) (5.619005966186523e-05, 6.259765625) (5.208684921264648e-05, 6.26171875) (4.8097511291503904e-05, 6.263671875) (4.4213626861572265e-05, 6.265625) (4.0446044921874995e-05, 6.267578125) (3.6826961517333983e-05, 6.26953125) (3.336957168579102e-05, 6.271484375) (3.007419967651367e-05, 6.2734375) (2.6925893783569336e-05, 6.275390625) (2.3887231826782225e-05, 6.27734375) (2.0941329956054688e-05, 6.279296875) (1.809066963195801e-05, 6.28125) (1.5345767974853513e-05, 6.283203125) (1.273229694366455e-05, 6.28515625) (1.0267624855041504e-05, 6.287109375) (7.956974983215333e-06, 6.2890625) (5.811380386352539e-06, 6.291015625) (3.84463095664978e-06, 6.29296875) (2.062139511108398e-06, 6.294921875) (4.6475833654403686e-07, 6.296875) (-9.579194784164428e-07, 6.298828125) (-2.229875087738037e-06, 6.30078125) (-3.367248296737671e-06, 6.302734375) (-4.379251956939697e-06, 6.3046875) (-5.2728996276855465e-06, 6.306640625) (-6.0494365692138665e-06, 6.30859375) (-6.714576721191406e-06, 6.310546875) (-7.279179096221924e-06, 6.3125) (-7.753180503845215e-06, 6.314453125) (-8.146965026855469e-06, 6.31640625) (-8.470647811889649e-06, 6.318359375) (-8.732500076293945e-06, 6.3203125) (-8.942449569702148e-06, 6.322265625) (-9.112144470214844e-06, 6.32421875) (-9.249336242675781e-06, 6.326171875) (-9.358604431152343e-06, 6.328125) (-9.441557884216308e-06, 6.330078125) (-9.495750427246093e-06, 6.33203125) (-9.519548416137694e-06, 6.333984375) (-9.512651443481446e-06, 6.3359375) (-9.473392486572265e-06, 6.337890625) (-9.39944839477539e-06, 6.33984375) (-9.28834629058838e-06, 6.341796875) (-9.136796951293944e-06, 6.34375) (-8.94189453125e-06, 6.345703125) (-8.701596260070801e-06, 6.34765625) (-8.412546157836914e-06, 6.349609375) (-8.07009220123291e-06, 6.3515625) (-7.669296264648436e-06, 6.353515625) (-7.204582214355468e-06, 6.35546875) 