(3.724420928955078e-05, 0.0) (-1.7192588806152345e-05, 0.001953125) (-5.08559341430664e-05, 0.00390625) (-5.9571247100830075e-05, 0.005859375) (-5.203418350219727e-05, 0.0078125) (-3.676230239868164e-05, 0.009765625) (-2.3761682510375976e-05, 0.01171875) (-1.709335708618164e-05, 0.013671875) (-1.1676178932189942e-05, 0.015625) (-4.732828140258789e-06, 0.017578125) (5.150683403015136e-06, 0.01953125) (1.7114391326904298e-05, 0.021484375) (2.677779960632324e-05, 0.0234375) (3.248352813720703e-05, 0.025390625) (3.4814002990722655e-05, 0.02734375) (3.469059371948242e-05, 0.029296875) (3.3906311035156246e-05, 0.03125) (3.330429458618164e-05, 0.033203125) (3.282442474365234e-05, 0.03515625) (3.2849533081054685e-05, 0.037109375) (3.364686965942383e-05, 0.0390625) (3.5150115966796876e-05, 0.041015625) (3.7185611724853515e-05, 0.04296875) (3.9250526428222654e-05, 0.044921875) (4.075227355957031e-05, 0.046875) (4.149330520629882e-05, 0.048828125) (4.151039886474609e-05, 0.05078125) (4.083014678955078e-05, 0.052734375) (3.953634262084961e-05, 0.0546875) (3.768741607666015e-05, 0.056640625) (3.5315055847167965e-05, 0.05859375) (3.257483673095703e-05, 0.060546875) (2.967397689819336e-05, 0.0625) (2.67288703918457e-05, 0.064453125) (2.380022048950195e-05, 0.06640625) (2.0912628173828125e-05, 0.068359375) (1.804957580566406e-05, 0.0703125) (1.5226917266845702e-05, 0.072265625) (1.24863862991333e-05, 0.07421875) (9.847954750061035e-06, 0.076171875) (7.316662788391113e-06, 0.078125) (4.883239269256592e-06, 0.080078125) (2.5183303356170653e-06, 0.08203125) (1.9468098878860472e-07, 0.083984375) (-2.1009745597839354e-06, 0.0859375) (-4.3864412307739254e-06, 0.087890625) (-6.681694030761719e-06, 0.08984375) (-9.010433197021484e-06, 0.091796875) (-1.1405073165893554e-05, 0.09375) (-1.3882308959960936e-05, 0.095703125) (-1.6440399169921873e-05, 0.09765625) (-1.9071563720703124e-05, 0.099609375) (-2.1763263702392576e-05, 0.1015625) (-2.450356674194336e-05, 0.103515625) (-2.7284217834472653e-05, 0.10546875) (-3.0092830657958984e-05, 0.107421875) (-3.2909629821777345e-05, 0.109375) (-3.571643829345703e-05, 0.111328125) (-3.84958381652832e-05, 0.11328125) (-4.1229209899902345e-05, 0.115234375) (-4.390109252929687e-05, 0.1171875) (-4.649435043334961e-05, 0.119140625) (-4.8989261627197264e-05, 0.12109375) (-5.1366813659667965e-05, 0.123046875) (-5.3608577728271485e-05, 0.125) (-5.5699081420898435e-05, 0.126953125) (-5.762749481201171e-05, 0.12890625) (-5.938634490966797e-05, 0.130859375) (-6.096970748901367e-05, 0.1328125) (-6.237361526489258e-05, 0.134765625) (-6.359575653076172e-05, 0.13671875) (-6.463562774658203e-05, 0.138671875) (-6.549530029296875e-05, 0.140625) (-6.617657470703124e-05, 0.142578125) (-6.668046569824218e-05, 0.14453125) (-6.700843811035157e-05, 0.146484375) (-6.716231536865234e-05, 0.1484375) (-6.714507293701172e-05, 0.150390625) (-6.696117401123047e-05, 0.15234375) (-6.661589050292968e-05, 0.154296875) (-6.61150131225586e-05, 0.15625) (-6.546601867675781e-05, 0.158203125) (-6.467790222167968e-05, 0.16015625) (-6.376037597656249e-05, 0.162109375) (-6.272381591796874e-05, 0.1640625) (-6.157874298095703e-05, 0.166015625) (-6.033554077148437e-05, 0.16796875) (-5.900467681884765e-05, 0.169921875) (-5.759685134887695e-05, 0.171875) (-5.6122543334960935e-05, 0.173828125) (-5.459207153320312e-05, 0.17578125) (-5.301603698730469e-05, 0.177734375) (-5.140497589111328e-05, 0.1796875) (-4.9769344329833984e-05, 0.181640625) (-4.8119560241699215e-05, 0.18359375) (-4.646562957763672e-05, 0.185546875) (-4.481693267822266e-05, 0.1875) (-4.31822509765625e-05, 0.189453125) (-4.1569534301757814e-05, 0.19140625) (-3.9985675811767575e-05, 0.193359375) (-3.843685913085937e-05, 0.1953125) (-3.6928531646728516e-05, 0.197265625) (-3.54653205871582e-05, 0.19921875) (-3.4051288604736324e-05, 0.201171875) (-3.268979263305664e-05, 0.203125) (-3.138362121582031e-05, 0.205078125) (-3.0135196685791015e-05, 0.20703125) (-2.8946409225463866e-05, 0.208984375) (-2.7818496704101562e-05, 0.2109375) (-2.675217819213867e-05, 0.212890625) (-2.5747550964355468e-05, 0.21484375) (-2.480412673950195e-05, 0.216796875) (-2.392108726501465e-05, 0.21875) (-2.3097023010253905e-05, 0.220703125) (-2.2330026626586913e-05, 0.22265625) (-2.1617990493774412e-05, 0.224609375) (-2.095842361450195e-05, 0.2265625) (-2.034858512878418e-05, 0.228515625) (-1.978573989868164e-05, 0.23046875) (-1.926695442199707e-05, 0.232421875) (-1.8789443969726562e-05, 0.234375) (-1.8350893020629882e-05, 0.236328125) (-1.7948421478271485e-05, 0.23828125) (-1.757851219177246e-05, 0.240234375) (-1.7238389968872068e-05, 0.2421875) (-1.6925235748291014e-05, 0.244140625) (-1.6637338638305663e-05, 0.24609375) (-1.6375389099121092e-05, 0.248046875) (-1.6136133193969725e-05, 0.25) (-1.5912050247192382e-05, 0.251953125) (-1.5698410987854004e-05, 0.25390625) (-1.5491660118103027e-05, 0.255859375) (-1.5290163040161132e-05, 0.2578125) (-1.509927177429199e-05, 0.259765625) (-1.4916458129882811e-05, 0.26171875) (-1.4726158142089843e-05, 0.263671875) (-1.4534152030944823e-05, 0.265625) (-1.4365880012512206e-05, 0.267578125) (-1.4240503311157226e-05, 0.26953125) (-1.4181052207946777e-05, 0.271484375) (-1.4189137458801268e-05, 0.2734375) (-1.4225229263305663e-05, 0.275390625) (-1.4283045768737792e-05, 0.27734375) (-1.4404999732971191e-05, 0.279296875) (-1.4563468933105469e-05, 0.28125) (-1.4668825149536133e-05, 0.283203125) (-1.465229320526123e-05, 0.28515625) (-1.4436637878417969e-05, 0.287109375) (-1.4010992050170898e-05, 0.2890625) (-1.3489887237548827e-05, 0.291015625) (-1.290852928161621e-05, 0.29296875) (-1.214383602142334e-05, 0.294921875) (-1.1313241004943848e-05, 0.296875) (-1.0857940673828124e-05, 0.298828125) (-1.0879072189331055e-05, 0.30078125) (-1.1239320755004882e-05, 0.302734375) (-1.1993252754211426e-05, 0.3046875) (-1.2674267768859863e-05, 0.306640625) (-1.4117843627929686e-05, 0.30859375) (-1.907972526550293e-05, 0.310546875) (-2.7039379119873044e-05, 0.3125) (-3.542903137207031e-05, 0.314453125) (-4.0142059326171874e-05, 0.31640625) (-3.333795166015625e-05, 0.318359375) (-1.528080081939697e-05, 0.3203125) (6.116185188293457e-06, 0.322265625) (2.3039947509765625e-05, 0.32421875) (2.4383926391601563e-05, 0.326171875) (9.158985137939453e-06, 0.328125) (-1.2064727783203125e-05, 0.330078125) (-3.109627914428711e-05, 0.33203125) (-3.918080520629883e-05, 0.333984375) (-3.4556838989257814e-05, 0.3359375) (-2.510412788391113e-05, 0.337890625) (-1.5732677459716795e-05, 0.33984375) (-9.706600189208984e-06, 0.341796875) (-8.114400863647461e-06, 0.34375) (-7.74913215637207e-06, 0.345703125) (-7.100387573242187e-06, 0.34765625) (-6.29018497467041e-06, 0.349609375) (-5.198891639709472e-06, 0.3515625) (-4.306158065795899e-06, 0.353515625) (-3.750828981399536e-06, 0.35546875) (-3.1031956672668457e-06, 0.357421875) (-2.2332983016967773e-06, 0.359375) (-1.223867416381836e-06, 0.361328125) (-7.221347093582153e-08, 0.36328125) (1.233047604560852e-06, 0.365234375) (2.6647019386291504e-06, 0.3671875) (4.191867828369141e-06, 0.369140625) (5.7636098861694335e-06, 0.37109375) (7.2956380844116205e-06, 0.373046875) (8.754020690917968e-06, 0.375) (1.0163183212280273e-05, 0.376953125) (1.1522655487060546e-05, 0.37890625) (1.2815022468566894e-05, 0.380859375) (1.40289249420166e-05, 0.3828125) (1.5147521972656249e-05, 0.384765625) (1.6159658432006836e-05, 0.38671875) (1.7062686920166016e-05, 0.388671875) (1.7845924377441405e-05, 0.390625) (1.8492530822753905e-05, 0.392578125) (1.8993066787719726e-05, 0.39453125) (1.9343467712402344e-05, 0.396484375) (1.9539541244506835e-05, 0.3984375) (1.9578239440917968e-05, 0.400390625) (1.9450883865356446e-05, 0.40234375) (1.914232635498047e-05, 0.404296875) (1.864116096496582e-05, 0.40625) (1.7938697814941407e-05, 0.408203125) (1.7027305603027342e-05, 0.41015625) (1.5902118682861327e-05, 0.412109375) (1.4565015792846679e-05, 0.4140625) (1.302781867980957e-05, 0.416015625) (1.1315079689025878e-05, 0.41796875) (9.465485572814941e-06, 0.419921875) (7.517040252685546e-06, 0.421875) (5.502580642700195e-06, 0.423828125) (3.4482083320617674e-06, 0.42578125) (1.3727502822875976e-06, 0.427734375) (-6.967235803604125e-07, 0.4296875) (-2.7268271446228027e-06, 0.431640625) (-4.68168830871582e-06, 0.43359375) (-6.5227289199829095e-06, 0.435546875) (-8.219762802124023e-06, 0.4375) (-9.746604919433593e-06, 0.439453125) (-1.1069420814514159e-05, 0.44140625) (-1.2155935287475585e-05, 0.443359375) (-1.3008476257324219e-05, 0.4453125) (-1.3667814254760742e-05, 0.447265625) (-1.4199281692504882e-05, 0.44921875) (-1.4705245971679687e-05, 0.451171875) (-1.5261740684509276e-05, 0.453125) (-1.5886448860168455e-05, 0.455078125) (-1.661975860595703e-05, 0.45703125) (-1.751240539550781e-05, 0.458984375) (-1.8621238708496092e-05, 0.4609375) (-2.0057783126831054e-05, 0.462890625) (-2.191811752319336e-05, 0.46484375) (-2.4197624206542966e-05, 0.466796875) (-2.693709373474121e-05, 0.46875) (-3.0312213897705077e-05, 0.470703125) (-3.438055419921875e-05, 0.47265625) (-3.9081932067871093e-05, 0.474609375) (-4.414596557617187e-05, 0.4765625) (-4.889207077026367e-05, 0.478515625) (-5.2640468597412105e-05, 0.48046875) (-5.4993026733398434e-05, 0.482421875) (-5.5586730957031244e-05, 0.484375) (-5.3918369293212886e-05, 0.486328125) (-4.9789768218994136e-05, 0.48828125) (-4.366215896606445e-05, 0.490234375) (-3.6447624206542966e-05, 0.4921875) (-2.9738574981689453e-05, 0.494140625) (-2.5532501220703124e-05, 0.49609375) (-2.3565433502197266e-05, 0.498046875) (-2.3194305419921875e-05, 0.5) (-2.606480026245117e-05, 0.501953125) (-3.169756698608398e-05, 0.50390625) (-4.1885620117187495e-05, 0.505859375) (-5.812110900878906e-05, 0.5078125) (-7.207373809814453e-05, 0.509765625) (-7.671014404296874e-05, 0.51171875) (-6.450630950927735e-05, 0.513671875) (-2.7301815032958985e-05, 0.515625) (2.8696918487548826e-05, 0.517578125) (9.530552673339843e-05, 0.51953125) (0.00016738438415527342, 0.521484375) (0.00023749148559570313, 0.5234375) (0.00030708395385742185, 0.525390625) (0.0003803618774414062, 0.52734375) (0.00045269384765625, 0.529296875) (0.0005169611206054688, 0.53125) (0.0005628602294921875, 0.533203125) (0.0005752098388671874, 0.53515625) (0.0005472509765625, 0.537109375) (0.0004819984130859375, 0.5390625) (0.00038769122314453124, 0.541015625) (0.00028287945556640625, 0.54296875) (0.00018734469604492185, 0.544921875) (0.00011244845581054686, 0.546875) (6.292487335205078e-05, 0.548828125) (3.337206649780273e-05, 0.55078125) (1.1505603790283202e-05, 0.552734375) (-1.1370399475097656e-05, 0.5546875) (-3.877113342285156e-05, 0.556640625) (-6.856135559082031e-05, 0.55859375) (-9.345602416992188e-05, 0.560546875) (-0.00010823403930664062, 0.5625) (-0.00011211945343017577, 0.564453125) (-0.00010748181915283203, 0.56640625) (-9.945140075683593e-05, 0.568359375) (-9.203717041015624e-05, 0.5703125) (-8.65169677734375e-05, 0.572265625) (-8.2922119140625e-05, 0.57421875) (-8.071955108642577e-05, 0.576171875) (-7.977285766601562e-05, 0.578125) (-8.03249053955078e-05, 0.580078125) (-8.227301788330077e-05, 0.58203125) (-8.475230407714843e-05, 0.583984375) (-8.649539184570312e-05, 0.5859375) (-8.677407073974608e-05, 0.587890625) (-8.544144439697266e-05, 0.58984375) (-8.27451171875e-05, 0.591796875) (-7.913236999511719e-05, 0.59375) (-7.488977813720703e-05, 0.595703125) (-7.021253967285156e-05, 0.59765625) (-6.548402404785156e-05, 0.599609375) (-6.121426391601563e-05, 0.6015625) (-5.772171020507812e-05, 0.603515625) (-5.5111236572265624e-05, 0.60546875) (-5.328335952758789e-05, 0.607421875) (-5.1998268127441405e-05, 0.609375) (-5.109257125854492e-05, 0.611328125) (-5.049599456787109e-05, 0.61328125) (-5.0168975830078124e-05, 0.615234375) (-5.005207061767578e-05, 0.6171875) (-5.006499481201172e-05, 0.619140625) (-5.0113483428955076e-05, 0.62109375) (-5.007971572875976e-05, 0.623046875) (-4.9879981994628904e-05, 0.625) (-4.947871780395508e-05, 0.626953125) (-4.8854763031005855e-05, 0.62890625) (-4.800155258178711e-05, 0.630859375) (-4.692798233032226e-05, 0.6328125) (-4.5646766662597654e-05, 0.634765625) (-4.422267150878906e-05, 0.63671875) (-4.279225158691406e-05, 0.638671875) (-4.146308898925781e-05, 0.640625) (-4.0293907165527344e-05, 0.642578125) (-3.928848266601562e-05, 0.64453125) (-3.83721694946289e-05, 0.646484375) (-3.7493942260742185e-05, 0.6484375) (-3.665436553955078e-05, 0.650390625) (-3.586182022094726e-05, 0.65234375) (-3.514391326904297e-05, 0.654296875) (-3.452399826049804e-05, 0.65625) (-3.399060821533203e-05, 0.658203125) (-3.353909301757812e-05, 0.66015625) (-3.318309783935547e-05, 0.662109375) (-3.2911518096923826e-05, 0.6640625) (-3.269951248168945e-05, 0.666015625) (-3.248505401611328e-05, 0.66796875) (-3.2152488708496096e-05, 0.669921875) (-3.1624191284179686e-05, 0.671875) (-3.0871726989746095e-05, 0.673828125) (-2.990420150756836e-05, 0.67578125) (-2.878083801269531e-05, 0.677734375) (-2.754084777832031e-05, 0.6796875) (-2.6189743041992186e-05, 0.681640625) (-2.473945617675781e-05, 0.68359375) (-2.3202701568603514e-05, 0.685546875) (-2.1586633682250976e-05, 0.6875) (-1.9902503967285154e-05, 0.689453125) (-1.814165496826172e-05, 0.69140625) (-1.627078628540039e-05, 0.693359375) (-1.4276124954223633e-05, 0.6953125) (-1.2159460067749022e-05, 0.697265625) (-9.939266204833983e-06, 0.69921875) (-7.658799171447753e-06, 0.701171875) (-5.340499401092529e-06, 0.703125) (-2.9832527637481687e-06, 0.705078125) (-5.751975178718566e-07, 0.70703125) (1.9121993780136107e-06, 0.708984375) (4.4999380111694335e-06, 0.7109375) (7.196322917938232e-06, 0.712890625) (1.0015508651733399e-05, 0.71484375) (1.2975195884704589e-05, 0.716796875) (1.6084274291992186e-05, 0.71875) (1.9345226287841796e-05, 0.720703125) (2.2747379302978516e-05, 0.72265625) (2.6264734268188475e-05, 0.724609375) (2.9878490447998045e-05, 0.7265625) (3.3576873779296874e-05, 0.728515625) (3.734987640380859e-05, 0.73046875) (4.11924819946289e-05, 0.732421875) (4.5094215393066405e-05, 0.734375) (4.9038543701171874e-05, 0.736328125) (5.300904464721679e-05, 0.73828125) (5.698786926269531e-05, 0.740234375) (6.0956138610839844e-05, 0.7421875) (6.489537048339843e-05, 0.744140625) (6.878424835205078e-05, 0.74609375) (7.259894561767578e-05, 0.748046875) (7.631887054443359e-05, 0.75) (7.992610931396484e-05, 0.751953125) (8.340532684326172e-05, 0.75390625) (8.67449493408203e-05, 0.755859375) (8.993246459960937e-05, 0.7578125) (9.29542999267578e-05, 0.759765625) (9.579832458496094e-05, 0.76171875) (9.845310974121094e-05, 0.763671875) (0.00010090753173828124, 0.765625) (0.00010315123748779297, 0.767578125) (0.00010517354583740234, 0.76953125) (0.00010696350860595703, 0.771484375) (0.00010851213836669921, 0.7734375) (0.0001098122329711914, 0.775390625) (0.00011085783386230468, 0.77734375) (0.00011164458465576171, 0.779296875) (0.00011216918182373046, 0.78125) (0.00011242967224121093, 0.783203125) (0.00011242583465576171, 0.78515625) (0.00011215892028808594, 0.787109375) (0.00011163119506835938, 0.7890625) (0.00011084585571289062, 0.791015625) (0.00010980695343017578, 0.79296875) (0.00010851953125, 0.794921875) (0.00010698953247070312, 0.796875) (0.00010522380065917968, 0.798828125) (0.00010322978973388671, 0.80078125) (0.00010101570129394531, 0.802734375) (9.859062194824218e-05, 0.8046875) (9.596446228027343e-05, 0.806640625) (9.314804077148437e-05, 0.80859375) (9.015279388427734e-05, 0.810546875) (8.699055480957031e-05, 0.8125) (8.367337036132812e-05, 0.814453125) (8.021351623535156e-05, 0.81640625) (7.662340545654296e-05, 0.818359375) (7.29155044555664e-05, 0.8203125) (6.9102294921875e-05, 0.822265625) (6.519606018066406e-05, 0.82421875) (6.120889282226562e-05, 0.826171875) (5.7153141021728515e-05, 0.828125) (5.304141998291015e-05, 0.830078125) (4.888652801513672e-05, 0.83203125) (4.470148468017578e-05, 0.833984375) (4.049905395507812e-05, 0.8359375) (3.6291675567626954e-05, 0.837890625) (3.209161376953125e-05, 0.83984375) (2.7910797119140624e-05, 0.841796875) (2.3760704040527344e-05, 0.84375) (1.9652252197265625e-05, 0.845703125) (1.5595716476440428e-05, 0.84765625) (1.1600772857666015e-05, 0.849609375) (7.676774978637694e-06, 0.8515625) (3.832764625549316e-06, 0.853515625) (7.74095356464386e-08, 0.85546875) (-3.5809783935546875e-06, 0.857421875) (-7.134565353393555e-06, 0.859375) (-1.0576001167297363e-05, 0.861328125) (-1.3898414611816406e-05, 0.86328125) (-1.7095531463623047e-05, 0.865234375) (-2.0161779403686524e-05, 0.8671875) (-2.3092311859130857e-05, 0.869140625) (-2.5883049011230468e-05, 0.87109375) (-2.853060722351074e-05, 0.873046875) (-3.1032171249389645e-05, 0.875) (-3.3385475158691405e-05, 0.876953125) (-3.5588760375976564e-05, 0.87890625) (-3.7640731811523434e-05, 0.880859375) (-3.954055404663086e-05, 0.8828125) (-4.128782653808593e-05, 0.884765625) (-4.288259124755859e-05, 0.88671875) (-4.4325439453125e-05, 0.888671875) (-4.561763000488281e-05, 0.890625) (-4.67611083984375e-05, 0.892578125) (-4.7758537292480465e-05, 0.89453125) (-4.86132583618164e-05, 0.896484375) (-4.9329181671142575e-05, 0.8984375) (-4.991072845458984e-05, 0.900390625) (-5.036282730102539e-05, 0.90234375) (-5.069076156616211e-05, 0.904296875) (-5.090008163452148e-05, 0.90625) (-5.099651336669922e-05, 0.908203125) (-5.0985935211181636e-05, 0.91015625) (-5.087440490722656e-05, 0.912109375) (-5.066822052001953e-05, 0.9140625) (-5.0373912811279295e-05, 0.916015625) (-4.999815368652343e-05, 0.91796875) (-4.954775238037109e-05, 0.919921875) (-4.902956008911133e-05, 0.921875) (-4.84504165649414e-05, 0.923828125) (-4.781710052490234e-05, 0.92578125) (-4.7136196136474606e-05, 0.927734375) (-4.6413959503173825e-05, 0.9296875) (-4.5656276702880855e-05, 0.931640625) (-4.486864852905273e-05, 0.93359375) (-4.40562629699707e-05, 0.935546875) (-4.3224044799804686e-05, 0.9375) (-4.2376708984374995e-05, 0.939453125) (-4.151873016357422e-05, 0.94140625) (-4.0654388427734375e-05, 0.943359375) (-3.978773498535156e-05, 0.9453125) (-3.892265701293945e-05, 0.947265625) (-3.8062789916992184e-05, 0.94921875) (-3.72114028930664e-05, 0.951171875) (-3.6371299743652345e-05, 0.953125) (-3.554476165771484e-05, 0.955078125) (-3.473352813720703e-05, 0.95703125) (-3.393885040283203e-05, 0.958984375) (-3.316158294677734e-05, 0.9609375) (-3.240220642089843e-05, 0.962890625) (-3.1660854339599606e-05, 0.96484375) (-3.0937423706054683e-05, 0.966796875) (-3.0231641769409177e-05, 0.96875) (-2.9543132781982422e-05, 0.970703125) (-2.8871498107910155e-05, 0.97265625) (-2.8216285705566406e-05, 0.974609375) (-2.757691192626953e-05, 0.9765625) (-2.6952693939208985e-05, 0.978515625) (-2.634292221069336e-05, 0.98046875) (-2.5746925354003906e-05, 0.982421875) (-2.516417121887207e-05, 0.984375) (-2.4594352722167966e-05, 0.986328125) (-2.4037353515624997e-05, 0.98828125) (-2.3493309020996092e-05, 0.990234375) (-2.2962696075439453e-05, 0.9921875) (-2.2446321487426756e-05, 0.994140625) (-2.1945369720458985e-05, 0.99609375) (-2.14612922668457e-05, 0.998046875) (-2.099565505981445e-05, 1.0) (-2.0550081253051757e-05, 1.001953125) (-2.0126186370849607e-05, 1.00390625) (-1.972553253173828e-05, 1.005859375) (-1.9349746704101563e-05, 1.0078125) (-1.900044250488281e-05, 1.009765625) (-1.8679117202758788e-05, 1.01171875) (-1.8387279510498045e-05, 1.013671875) (-1.8126434326171876e-05, 1.015625) (-1.7898075103759766e-05, 1.017578125) (-1.770388603210449e-05, 1.01953125) (-1.754562759399414e-05, 1.021484375) (-1.742485046386719e-05, 1.0234375) (-1.7342922210693357e-05, 1.025390625) (-1.730103302001953e-05, 1.02734375) (-1.7300065994262694e-05, 1.029296875) (-1.7340709686279297e-05, 1.03125) (-1.74234504699707e-05, 1.033203125) (-1.7548236846923827e-05, 1.03515625) (-1.7714481353759766e-05, 1.037109375) (-1.7921192169189453e-05, 1.0390625) (-1.816691780090332e-05, 1.041015625) (-1.8449716567993163e-05, 1.04296875) (-1.8767147064208984e-05, 1.044921875) (-1.9115938186645507e-05, 1.046875) (-1.9491867065429685e-05, 1.048828125) (-1.989002227783203e-05, 1.05078125) (-2.0304889678955077e-05, 1.052734375) (-2.0730453491210936e-05, 1.0546875) (-2.116023826599121e-05, 1.056640625) (-2.158710479736328e-05, 1.05859375) (-2.200336265563965e-05, 1.060546875) (-2.2401058197021483e-05, 1.0625) (-2.2772104263305663e-05, 1.064453125) (-2.310856056213379e-05, 1.06640625) (-2.3402633666992187e-05, 1.068359375) (-2.3646278381347654e-05, 1.0703125) (-2.3831390380859376e-05, 1.072265625) (-2.3950235366821288e-05, 1.07421875) (-2.3995311737060546e-05, 1.076171875) (-2.395956802368164e-05, 1.078125) (-2.383660316467285e-05, 1.080078125) (-2.3619945526123047e-05, 1.08203125) (-2.3303281784057615e-05, 1.083984375) (-2.28812255859375e-05, 1.0859375) (-2.234916305541992e-05, 1.087890625) (-2.170316696166992e-05, 1.08984375) (-2.0940250396728515e-05, 1.091796875) (-2.0057941436767578e-05, 1.09375) (-1.905415916442871e-05, 1.095703125) (-1.7928037643432617e-05, 1.09765625) (-1.668014144897461e-05, 1.099609375) (-1.5311899185180663e-05, 1.1015625) (-1.3825614929199218e-05, 1.103515625) (-1.2225080490112304e-05, 1.10546875) (-1.0515533447265624e-05, 1.107421875) (-8.704439163208007e-06, 1.109375) (-6.80213975906372e-06, 1.111328125) (-4.820439338684081e-06, 1.11328125) (-2.771869421005249e-06, 1.115234375) (-6.701299548149109e-07, 1.1171875) (1.470003604888916e-06, 1.119140625) (3.633188724517822e-06, 1.12109375) (5.803305625915527e-06, 1.123046875) (7.965339660644531e-06, 1.125) (1.0106670379638672e-05, 1.126953125) (1.221445846557617e-05, 1.12890625) (1.4275434494018555e-05, 1.130859375) (1.6274785995483397e-05, 1.1328125) (1.8195182800292967e-05, 1.134765625) (2.0020885467529297e-05, 1.13671875) (2.1738147735595703e-05, 1.138671875) (2.3333425521850586e-05, 1.140625) (2.4794239044189452e-05, 1.142578125) (2.610831069946289e-05, 1.14453125) (2.726259613037109e-05, 1.146484375) (2.8249656677246092e-05, 1.1484375) (2.9068885803222656e-05, 1.150390625) (2.9716264724731443e-05, 1.15234375) (3.0186031341552734e-05, 1.154296875) (3.0466503143310547e-05, 1.15625) (3.0534286499023435e-05, 1.158203125) (3.0372739791870114e-05, 1.16015625) (2.9974111557006835e-05, 1.162109375) (2.9332519531249997e-05, 1.1640625) (2.8450153350830078e-05, 1.166015625) (2.7334674835205077e-05, 1.16796875) (2.5994428634643552e-05, 1.169921875) (2.4452981948852537e-05, 1.171875) (2.2752920150756837e-05, 1.173828125) (2.093429946899414e-05, 1.17578125) (1.9037702560424805e-05, 1.177734375) (1.7095664978027343e-05, 1.1796875) (1.512087059020996e-05, 1.181640625) (1.3141406059265136e-05, 1.18359375) (1.1198524475097657e-05, 1.185546875) (9.340570449829101e-06, 1.1875) (7.636520385742187e-06, 1.189453125) (6.13681411743164e-06, 1.19140625) (4.868741512298584e-06, 1.193359375) (3.859844207763672e-06, 1.1953125) (3.1210880279541012e-06, 1.197265625) (2.63981294631958e-06, 1.19921875) (2.391761302947998e-06, 1.201171875) (2.321525812149048e-06, 1.203125) (2.3381805419921872e-06, 1.205078125) (2.3603532314300536e-06, 1.20703125) (2.3003656864166257e-06, 1.208984375) (2.067592144012451e-06, 1.2109375) (1.5941150188446045e-06, 1.212890625) (7.831884622573852e-07, 1.21484375) (-4.5698314905166625e-07, 1.216796875) (-2.247720003128052e-06, 1.21875) (-4.78873062133789e-06, 1.220703125) (-8.154632568359374e-06, 1.22265625) (-1.2295493125915527e-05, 1.224609375) (-1.7062902450561522e-05, 1.2265625) (-2.2071895599365234e-05, 1.228515625) (-2.688262939453125e-05, 1.23046875) (-3.115503311157226e-05, 1.232421875) (-3.440589904785156e-05, 1.234375) (-3.604527282714844e-05, 1.236328125) (-3.588595581054687e-05, 1.23828125) (-3.401056671142578e-05, 1.240234375) (-3.085244369506836e-05, 1.2421875) (-2.761381149291992e-05, 1.244140625) (-2.54698429107666e-05, 1.24609375) (-2.5263700485229492e-05, 1.248046875) (-2.7953279495239258e-05, 1.25) (-3.417092514038086e-05, 1.251953125) (-4.3660858154296876e-05, 1.25390625) (-5.564963150024414e-05, 1.255859375) (-6.866844177246094e-05, 1.2578125) (-7.961764526367187e-05, 1.259765625) (-8.49911651611328e-05, 1.26171875) (-8.182755279541016e-05, 1.263671875) (-6.677821350097656e-05, 1.265625) (-3.838598251342773e-05, 1.267578125) (1.9433612823486327e-06, 1.26953125) (5.4434608459472654e-05, 1.271484375) (0.00011949613952636718, 1.2734375) (0.0001971968231201172, 1.275390625) (0.00028992315673828124, 1.27734375) (0.0003920306396484375, 1.279296875) (0.0004903923950195313, 1.28125) (0.000572070556640625, 1.283203125) (0.0006218168945312499, 1.28515625) (0.0006352490234374999, 1.287109375) (0.000620177001953125, 1.2890625) (0.0005838510131835937, 1.291015625) (0.0005360286865234375, 1.29296875) (0.00048152682495117185, 1.294921875) (0.0004175682678222656, 1.296875) (0.00034524530029296876, 1.298828125) (0.00026740963745117185, 1.30078125) (0.00018821586608886717, 1.302734375) (0.00011530987548828124, 1.3046875) (5.390038681030273e-05, 1.306640625) (5.873550415039062e-06, 1.30859375) (-2.8097702026367186e-05, 1.310546875) (-4.916084289550781e-05, 1.3125) (-5.9641143798828124e-05, 1.314453125) (-6.196637725830078e-05, 1.31640625) (-5.879159545898437e-05, 1.318359375) (-5.333759307861328e-05, 1.3203125) (-4.833112335205078e-05, 1.322265625) (-4.5296958923339844e-05, 1.32421875) (-4.512801742553711e-05, 1.326171875) (-4.7963478088378905e-05, 1.328125) (-5.3033836364746094e-05, 1.330078125) (-5.934792327880859e-05, 1.33203125) (-6.575450897216797e-05, 1.333984375) (-7.071585845947266e-05, 1.3359375) (-7.319249725341797e-05, 1.337890625) (-7.286690521240234e-05, 1.33984375) (-6.965584564208984e-05, 1.341796875) (-6.390540313720703e-05, 1.34375) (-5.6286838531494135e-05, 1.345703125) (-4.744102096557617e-05, 1.34765625) (-3.8168846130371095e-05, 1.349609375) (-2.9380889892578124e-05, 1.3515625) (-2.162708282470703e-05, 1.353515625) (-1.5166913986206054e-05, 1.35546875) (-1.0132218360900878e-05, 1.357421875) (-6.454605102539062e-06, 1.359375) (-4.049504280090332e-06, 1.361328125) (-2.875580072402954e-06, 1.36328125) (-2.777708053588867e-06, 1.365234375) (-3.5507607460021973e-06, 1.3671875) (-5.03645372390747e-06, 1.369140625) (-7.081980228424072e-06, 1.37109375) (-9.575222969055175e-06, 1.373046875) (-1.2423018455505371e-05, 1.375) (-1.5468583106994627e-05, 1.376953125) (-1.8522106170654296e-05, 1.37890625) (-2.1398193359375e-05, 1.380859375) (-2.3949554443359375e-05, 1.3828125) (-2.6094905853271484e-05, 1.384765625) (-2.7794635772705077e-05, 1.38671875) (-2.901978302001953e-05, 1.388671875) (-2.975443649291992e-05, 1.390625) (-3.0000532150268554e-05, 1.392578125) (-2.978095245361328e-05, 1.39453125) (-2.914703369140625e-05, 1.396484375) (-2.8151081085205077e-05, 1.3984375) (-2.6836896896362303e-05, 1.400390625) (-2.5248935699462888e-05, 1.40234375) (-2.3428020477294922e-05, 1.404296875) (-2.1427865982055664e-05, 1.40625) (-1.931685638427734e-05, 1.408203125) (-1.7165355682373046e-05, 1.41015625) (-1.5041227340698242e-05, 1.412109375) (-1.2994062423706054e-05, 1.4140625) (-1.105069351196289e-05, 1.416015625) (-9.22536277770996e-06, 1.41796875) (-7.52487850189209e-06, 1.419921875) (-5.947447299957275e-06, 1.421875) (-4.484114646911621e-06, 1.423828125) (-3.117575407028198e-06, 1.42578125) (-1.8225724697113037e-06, 1.427734375) (-5.787829160690307e-07, 1.4296875) (6.279934644699096e-07, 1.431640625) (1.8102515935897826e-06, 1.43359375) (2.9794530868530273e-06, 1.435546875) (4.15114688873291e-06, 1.4375) (5.343760013580322e-06, 1.439453125) (6.5752496719360345e-06, 1.44140625) (7.862710952758789e-06, 1.443359375) (9.220820426940917e-06, 1.4453125) (1.0661809921264648e-05, 1.447265625) (1.2196710586547851e-05, 1.44921875) (1.3834951400756835e-05, 1.451171875) (1.5583311080932616e-05, 1.453125) (1.744699478149414e-05, 1.455078125) (1.9429557800292968e-05, 1.45703125) (2.1533105850219725e-05, 1.458984375) (2.3761281967163084e-05, 1.4609375) (2.6118827819824218e-05, 1.462890625) (2.8610200881958006e-05, 1.46484375) (3.123980140686035e-05, 1.466796875) (3.401097106933594e-05, 1.46875) (3.6925582885742185e-05, 1.470703125) (3.998475265502929e-05, 1.47265625) (4.318842315673828e-05, 1.474609375) (4.653426361083984e-05, 1.4765625) (5.0017963409423824e-05, 1.478515625) (5.363344573974609e-05, 1.48046875) (5.737294769287109e-05, 1.482421875) (6.122753143310546e-05, 1.484375) (6.518693542480468e-05, 1.486328125) (6.923941040039062e-05, 1.48828125) (7.337198638916016e-05, 1.490234375) (7.757057952880859e-05, 1.4921875) (8.182006072998046e-05, 1.494140625) (8.610438537597656e-05, 1.49609375) (9.040631103515625e-05, 1.498046875) (9.470767211914062e-05, 1.5) (9.898977661132813e-05, 1.501953125) (0.0001032333984375, 1.50390625) (0.00010741899108886718, 1.505859375) (0.00011152677154541015, 1.5078125) (0.00011553672790527344, 1.509765625) (0.00011942881774902343, 1.51171875) (0.00012318329620361328, 1.513671875) (0.00012678070068359375, 1.515625) (0.00013020188903808594, 1.517578125) (0.0001334281768798828, 1.51953125) (0.00013644137573242188, 1.521484375) (0.00013922384643554688, 1.5234375) (0.00014175878906249998, 1.525390625) (0.0001440303955078125, 1.52734375) (0.00014602392578124998, 1.529296875) (0.00014772587585449218, 1.53125) (0.0001491240539550781, 1.533203125) (0.00015020779418945313, 1.53515625) (0.00015096795654296875, 1.537109375) (0.00015139736938476561, 1.5390625) (0.00015149075317382813, 1.541015625) (0.00015124465942382813, 1.54296875) (0.00015065753173828123, 1.544921875) (0.0001497296447753906, 1.546875) (0.000148463134765625, 1.548828125) (0.00014686206054687499, 1.55078125) (0.0001449322509765625, 1.552734375) (0.00014268138122558593, 1.5546875) (0.00014011866760253906, 1.556640625) (0.00013725502014160155, 1.55859375) (0.00013410284423828124, 1.560546875) (0.00013067594909667968, 1.5625) (0.00012698952484130858, 1.564453125) (0.0001230597915649414, 1.56640625) (0.00011890402221679687, 1.568359375) (0.00011454030609130859, 1.5703125) (0.00010998747253417969, 1.572265625) (0.0001052649688720703, 1.57421875) (0.00010039273071289062, 1.576171875) (9.53910903930664e-05, 1.578125) (9.028066253662109e-05, 1.580078125) (8.508221435546874e-05, 1.58203125) (7.981656646728516e-05, 1.583984375) (7.450443267822265e-05, 1.5859375) (6.916621398925781e-05, 1.587890625) (6.382196044921874e-05, 1.58984375) (5.849113464355469e-05, 1.591796875) (5.3192543029785155e-05, 1.59375) (4.794417572021484e-05, 1.595703125) (4.276313781738281e-05, 1.59765625) (3.766553497314453e-05, 1.599609375) (3.266643524169922e-05, 1.6015625) (2.7779769897460935e-05, 1.603515625) (2.3018321990966796e-05, 1.60546875) (1.8393613815307618e-05, 1.607421875) (1.3915871620178223e-05, 1.609375) (9.59397315979004e-06, 1.611328125) (5.435424327850342e-06, 1.61328125) (1.4463520050048828e-06, 1.615234375) (-2.3684825897216794e-06, 1.6171875) (-6.005674362182617e-06, 1.619140625) (-9.463112831115723e-06, 1.62109375) (-1.2739897727966308e-05, 1.623046875) (-1.5836250305175782e-05, 1.625) (-1.8753427505493162e-05, 1.626953125) (-2.1493665695190428e-05, 1.62890625) (-2.4060136795043944e-05, 1.630859375) (-2.6456878662109375e-05, 1.6328125) (-2.8688735961914062e-05, 1.634765625) (-3.076129913330078e-05, 1.63671875) (-3.268082427978515e-05, 1.638671875) (-3.445417022705078e-05, 1.640625) (-3.60887451171875e-05, 1.642578125) (-3.759233856201172e-05, 1.64453125) (-3.8972969055175777e-05, 1.646484375) (-4.023881149291992e-05, 1.6484375) (-4.1397994995117186e-05, 1.650390625) (-4.245854187011718e-05, 1.65234375) (-4.342832565307617e-05, 1.654296875) (-4.4314994812011715e-05, 1.65625) (-4.5125873565673824e-05, 1.658203125) (-4.5867977142333986e-05, 1.66015625) (-4.6547920227050776e-05, 1.662109375) (-4.717188262939453e-05, 1.6640625) (-4.774563598632812e-05, 1.666015625) (-4.827445220947265e-05, 1.66796875) (-4.876301574707031e-05, 1.669921875) (-4.921538925170898e-05, 1.671875) (-4.9634979248046874e-05, 1.673828125) (-5.002454757690429e-05, 1.67578125) (-5.038626861572266e-05, 1.677734375) (-5.0721794128417963e-05, 1.6796875) (-5.103227996826172e-05, 1.681640625) (-5.131849670410156e-05, 1.68359375) (-5.1580883026123045e-05, 1.685546875) (-5.181962203979492e-05, 1.6875) (-5.203470611572265e-05, 1.689453125) (-5.222588729858398e-05, 1.69140625) (-5.239261627197265e-05, 1.693359375) (-5.253406143188476e-05, 1.6953125) (-5.264912414550781e-05, 1.697265625) (-5.273637771606445e-05, 1.69921875) (-5.279420471191406e-05, 1.701171875) (-5.282083129882812e-05, 1.703125) (-5.281435012817383e-05, 1.705078125) (-5.277292633056641e-05, 1.70703125) (-5.2694969177246094e-05, 1.708984375) (-5.257914352416992e-05, 1.7109375) (-5.242448043823242e-05, 1.712890625) (-5.223043060302734e-05, 1.71484375) (-5.199674606323242e-05, 1.716796875) (-5.172348022460937e-05, 1.71875) (-5.141103363037109e-05, 1.720703125) (-5.1060104370117186e-05, 1.72265625) (-5.067179870605469e-05, 1.724609375) (-5.0247650146484373e-05, 1.7265625) (-4.978965377807617e-05, 1.728515625) (-4.930033874511719e-05, 1.73046875) (-4.878279876708984e-05, 1.732421875) (-4.824076461791992e-05, 1.734375) (-4.7678565979003905e-05, 1.736328125) (-4.7101016998291014e-05, 1.73828125) (-4.651320648193359e-05, 1.740234375) (-4.592035293579101e-05, 1.7421875) (-4.5327709197998045e-05, 1.744140625) (-4.4740272521972655e-05, 1.74609375) (-4.4162887573242186e-05, 1.748046875) (-4.360020446777344e-05, 1.75) (-4.3056529998779296e-05, 1.751953125) (-4.2536121368408203e-05, 1.75390625) (-4.2043327331542965e-05, 1.755859375) (-4.1582420349121094e-05, 1.7578125) (-4.1157691955566405e-05, 1.759765625) (-4.07735595703125e-05, 1.76171875) (-4.0434318542480465e-05, 1.763671875) (-4.014405441284179e-05, 1.765625) (-3.990674209594726e-05, 1.767578125) (-3.972568130493164e-05, 1.76953125) (-3.960331726074219e-05, 1.771484375) (-3.954151153564453e-05, 1.7734375) (-3.954143142700195e-05, 1.775390625) (-3.960356903076172e-05, 1.77734375) (-3.972810363769531e-05, 1.779296875) (-3.991492462158203e-05, 1.78125) (-4.016350555419922e-05, 1.783203125) (-4.047307586669922e-05, 1.78515625) (-4.0842491149902344e-05, 1.787109375) (-4.1269950866699215e-05, 1.7890625) (-4.175300598144531e-05, 1.791015625) (-4.228832244873047e-05, 1.79296875) (-4.2871585845947265e-05, 1.794921875) (-4.3497497558593746e-05, 1.796875) (-4.41597900390625e-05, 1.798828125) (-4.485150909423828e-05, 1.80078125) (-4.556538391113281e-05, 1.802734375) (-4.629401397705078e-05, 1.8046875) (-4.7029937744140626e-05, 1.806640625) (-4.776622772216797e-05, 1.80859375) (-4.849627685546875e-05, 1.810546875) (-4.921366119384766e-05, 1.8125) (-4.9912296295166014e-05, 1.814453125) (-5.058586502075195e-05, 1.81640625) (-5.12272834777832e-05, 1.818359375) (-5.1829505920410154e-05, 1.8203125) (-5.238562774658203e-05, 1.822265625) (-5.2887931823730465e-05, 1.82421875) (-5.332856369018555e-05, 1.826171875) (-5.3699764251708985e-05, 1.828125) (-5.3993236541748045e-05, 1.830078125) (-5.42020034790039e-05, 1.83203125) (-5.432133865356445e-05, 1.833984375) (-5.4347206115722654e-05, 1.8359375) (-5.427624893188476e-05, 1.837890625) (-5.410677719116211e-05, 1.83984375) (-5.383699417114258e-05, 1.841796875) (-5.346548843383789e-05, 1.84375) (-5.299272537231445e-05, 1.845703125) (-5.241807174682617e-05, 1.84765625) (-5.173916625976562e-05, 1.849609375) (-5.0953544616699217e-05, 1.8515625) (-5.00576171875e-05, 1.853515625) (-4.90480728149414e-05, 1.85546875) (-4.792482757568359e-05, 1.857421875) (-4.6689926147460934e-05, 1.859375) (-4.5346862792968746e-05, 1.861328125) (-4.390194320678711e-05, 1.86328125) (-4.236224365234375e-05, 1.865234375) (-4.073720550537109e-05, 1.8671875) (-3.904069137573242e-05, 1.869140625) (-3.728411102294922e-05, 1.87109375) (-3.547637939453125e-05, 1.873046875) (-3.3622970581054686e-05, 1.875) (-3.172158622741699e-05, 1.876953125) (-2.9773015975952147e-05, 1.87890625) (-2.778876495361328e-05, 1.880859375) (-2.5784812927246094e-05, 1.8828125) (-2.378329086303711e-05, 1.884765625) (-2.1815931320190428e-05, 1.88671875) (-1.9910701751708983e-05, 1.888671875) (-1.8096933364868163e-05, 1.890625) (-1.6413200378417967e-05, 1.892578125) (-1.48884859085083e-05, 1.89453125) (-1.3539627075195311e-05, 1.896484375) (-1.237135601043701e-05, 1.8984375) (-1.1367313385009766e-05, 1.900390625) (-1.0504685401916503e-05, 1.90234375) (-9.7700777053833e-06, 1.904296875) (-9.163521766662597e-06, 1.90625) (-8.7024564743042e-06, 1.908203125) (-8.408632278442383e-06, 1.91015625) (-8.2883882522583e-06, 1.912109375) (-8.337644577026367e-06, 1.9140625) (-8.541179656982421e-06, 1.916015625) (-8.863180160522461e-06, 1.91796875) (-9.270327568054198e-06, 1.919921875) (-9.71466064453125e-06, 1.921875) (-1.0113029479980468e-05, 1.923828125) (-1.0387260437011718e-05, 1.92578125) (-1.047909641265869e-05, 1.927734375) (-1.0359414100646972e-05, 1.9296875) (-1.005136489868164e-05, 1.931640625) (-9.609804153442382e-06, 1.93359375) (-9.07512092590332e-06, 1.935546875) (-8.463909149169922e-06, 1.9375) (-7.769922733306885e-06, 1.939453125) (-6.9678812026977536e-06, 1.94140625) (-6.046622276306152e-06, 1.943359375) (-5.014397621154785e-06, 1.9453125) (-3.892877578735351e-06, 1.947265625) (-2.723010778427124e-06, 1.94921875) (-1.544832944869995e-06, 1.951171875) (-4.3151223659515377e-07, 1.953125) (4.6748960018157956e-07, 1.955078125) (9.63150382041931e-07, 1.95703125) (8.718366026878356e-07, 1.958984375) (5.491364002227783e-08, 1.9609375) (-1.5259892940521239e-06, 1.962890625) (-3.82463526725769e-06, 1.96484375) (-6.8173847198486325e-06, 1.966796875) (-1.0526147842407227e-05, 1.96875) (-1.4989402770996093e-05, 1.970703125) (-2.0266517639160155e-05, 1.97265625) (-2.639097213745117e-05, 1.974609375) (-3.333458709716797e-05, 1.9765625) (-4.110388946533203e-05, 1.978515625) (-4.975410461425781e-05, 1.98046875) (-5.924907302856445e-05, 1.982421875) (-6.938835906982421e-05, 1.984375) (-7.970743560791015e-05, 1.986328125) (-8.950579833984374e-05, 1.98828125) (-9.807393646240234e-05, 1.990234375) (-0.00010479879760742186, 1.9921875) (-0.00010912947845458984, 1.994140625) (-0.00011071215820312499, 1.99609375) (-0.00010947622680664061, 1.998046875) (-0.0001056478271484375, 2.0) (-0.00010008486938476562, 2.001953125) (-9.386761474609374e-05, 2.00390625) (-8.79561767578125e-05, 2.005859375) (-8.383419799804687e-05, 2.0078125) (-8.265943908691405e-05, 2.009765625) (-8.447129821777343e-05, 2.01171875) (-8.914433288574218e-05, 2.013671875) (-9.419904327392578e-05, 2.015625) (-9.579481506347656e-05, 2.017578125) (-9.281485748291015e-05, 2.01953125) (-8.285989379882812e-05, 2.021484375) (-6.531847381591797e-05, 2.0234375) (-4.2075111389160156e-05, 2.025390625) (-9.323635101318358e-06, 2.02734375) (3.5312957763671876e-05, 2.029296875) (9.471983337402343e-05, 2.03125) (0.0001761451721191406, 2.033203125) (0.00027850164794921876, 2.03515625) (0.00039486572265625, 2.037109375) (0.0005142442016601562, 2.0390625) (0.0006147757568359375, 2.041015625) (0.0006772220458984375, 2.04296875) (0.0006950760498046875, 2.044921875) (0.0006661574707031249, 2.046875) (0.00059967529296875, 2.048828125) (0.0005123487548828124, 2.05078125) (0.0004093700256347656, 2.052734375) (0.0002996351013183594, 2.0546875) (0.00019470780944824218, 2.056640625) (9.839310455322265e-05, 2.05859375) (2.304537773132324e-05, 2.060546875) (-2.5536882400512695e-05, 2.0625) (-5.4613563537597657e-05, 2.064453125) (-6.824919891357421e-05, 2.06640625) (-7.448004150390625e-05, 2.068359375) (-7.850090026855469e-05, 2.0703125) (-7.653965759277344e-05, 2.072265625) (-6.785655212402343e-05, 2.07421875) (-5.3791191101074215e-05, 2.076171875) (-3.71888427734375e-05, 2.078125) (-2.359123611450195e-05, 2.080078125) (-1.5891782760620116e-05, 2.08203125) (-1.4300376892089844e-05, 2.083984375) (-1.8007661819458007e-05, 2.0859375) (-2.517353820800781e-05, 2.087890625) (-3.4283817291259765e-05, 2.08984375) (-4.388484191894531e-05, 2.091796875) (-5.221483612060547e-05, 2.09375) (-5.819572067260742e-05, 2.095703125) (-6.13877944946289e-05, 2.09765625) (-6.184043884277343e-05, 2.099609375) (-6.0133544921875e-05, 2.1015625) (-5.694192886352539e-05, 2.103515625) (-5.283596038818359e-05, 2.10546875) (-4.850994110107422e-05, 2.107421875) (-4.469001007080078e-05, 2.109375) (-4.176137542724609e-05, 2.111328125) (-3.988700485229492e-05, 2.11328125) (-3.906070327758789e-05, 2.115234375) (-3.908687591552734e-05, 2.1171875) (-3.9814380645751954e-05, 2.119140625) (-4.1130916595458985e-05, 2.12109375) (-4.2863998413085937e-05, 2.123046875) (-4.484733200073242e-05, 2.125) (-4.6972709655761716e-05, 2.126953125) (-4.914458084106445e-05, 2.12890625) (-5.129768371582031e-05, 2.130859375) (-5.337382125854492e-05, 2.1328125) (-5.5247821807861326e-05, 2.134765625) (-5.681271362304687e-05, 2.13671875) (-5.800490951538086e-05, 2.138671875) (-5.8774066925048826e-05, 2.140625) (-5.911200714111328e-05, 2.142578125) (-5.901956939697265e-05, 2.14453125) (-5.848900604248047e-05, 2.146484375) (-5.7537830352783204e-05, 2.1484375) (-5.620955276489258e-05, 2.150390625) (-5.454848098754883e-05, 2.15234375) (-5.2599700927734374e-05, 2.154296875) (-5.0402587890625e-05, 2.15625) (-4.798429107666016e-05, 2.158203125) (-4.5385612487792967e-05, 2.16015625) (-4.265855407714844e-05, 2.162109375) (-3.98610725402832e-05, 2.1640625) (-3.706047058105469e-05, 2.166015625) (-3.4306884765625e-05, 2.16796875) (-3.163368606567383e-05, 2.169921875) (-2.9068872451782226e-05, 2.171875) (-2.6628019332885742e-05, 2.173828125) (-2.4320068359375e-05, 2.17578125) (-2.2150850296020507e-05, 2.177734375) (-2.0112823486328125e-05, 2.1796875) (-1.818758964538574e-05, 2.181640625) (-1.6361557006835937e-05, 2.18359375) (-1.4624009132385253e-05, 2.185546875) (-1.2965871810913085e-05, 2.1875) (-1.1382092475891113e-05, 2.189453125) (-9.86159896850586e-06, 2.19140625) (-8.388282775878906e-06, 2.193359375) (-6.9465775489807125e-06, 2.1953125) (-5.5205001831054686e-06, 2.197265625) (-4.0956315994262695e-06, 2.19921875) (-2.6593432426452634e-06, 2.201171875) (-1.1982387304306029e-06, 2.203125) (3.0082422494888303e-07, 2.205078125) (1.8484317064285277e-06, 2.20703125) (3.453423500061035e-06, 2.208984375) (5.122434616088867e-06, 2.2109375) (6.860394477844238e-06, 2.212890625) (8.673982620239257e-06, 2.21484375) (1.0570817947387695e-05, 2.216796875) (1.2558124542236327e-05, 2.21875) (1.464313793182373e-05, 2.220703125) (1.6832122802734376e-05, 2.22265625) (1.9130279541015625e-05, 2.224609375) (2.1542732238769532e-05, 2.2265625) (2.4073970794677734e-05, 2.228515625) (2.672646713256836e-05, 2.23046875) (2.9500940322875976e-05, 2.232421875) (3.2396461486816405e-05, 2.234375) (3.5410400390625e-05, 2.236328125) (3.8539131164550776e-05, 2.23828125) (4.177786254882812e-05, 2.240234375) (4.5120094299316404e-05, 2.2421875) (4.8557670593261716e-05, 2.244140625) (5.2081214904785155e-05, 2.24609375) (5.568024444580078e-05, 2.248046875) (5.934318923950195e-05, 2.25) (6.305751037597656e-05, 2.251953125) (6.680935668945312e-05, 2.25390625) (7.058369445800781e-05, 2.255859375) (7.43648223876953e-05, 2.2578125) (7.81365509033203e-05, 2.259765625) (8.188213348388672e-05, 2.26171875) (8.558425903320312e-05, 2.263671875) (8.922508239746094e-05, 2.265625) (9.278633117675781e-05, 2.267578125) (9.624977111816405e-05, 2.26953125) (9.959732055664061e-05, 2.271484375) (0.00010281121063232422, 2.2734375) (0.00010587396240234374, 2.275390625) (0.00010876848602294921, 2.27734375) (0.00011147821044921874, 2.279296875) (0.00011398731231689453, 2.28125) (0.00011628087615966796, 2.283203125) (0.00011834483337402343, 2.28515625) (0.00012016602325439453, 2.287109375) (0.00012173213195800781, 2.2890625) (0.00012303169250488282, 2.291015625) (0.0001240545654296875, 2.29296875) (0.0001247919692993164, 2.294921875) (0.00012523648834228515, 2.296875) (0.0001253822021484375, 2.298828125) (0.0001252245635986328, 2.30078125) (0.00012476043701171874, 2.302734375) (0.00012398826599121094, 2.3046875) (0.00012290809631347656, 2.306640625) (0.00012152140808105468, 2.30859375) (0.0001198310546875, 2.310546875) (0.0001178411407470703, 2.3125) (0.00011555699157714844, 2.314453125) (0.00011298521423339843, 2.31640625) (0.00011013377380371094, 2.318359375) (0.00010701188659667968, 2.3203125) (0.00010363005065917969, 2.322265625) (0.00010000003051757812, 2.32421875) (9.613478851318359e-05, 2.326171875) (9.204851531982422e-05, 2.328125) (8.775660705566406e-05, 2.330078125) (8.327552795410156e-05, 2.33203125) (7.862260437011718e-05, 2.333984375) (7.381592559814453e-05, 2.3359375) (6.88741455078125e-05, 2.337890625) (6.381623458862305e-05, 2.33984375) (5.86614875793457e-05, 2.341796875) (5.342939758300781e-05, 2.34375) (4.813948059082031e-05, 2.345703125) (4.2811603546142575e-05, 2.34765625) (3.7466094970703126e-05, 2.349609375) (3.212261581420898e-05, 2.3515625) (2.6800201416015625e-05, 2.353515625) (2.1518301010131835e-05, 2.35546875) (1.629570770263672e-05, 2.357421875) (1.115181827545166e-05, 2.359375) (6.107536315917969e-06, 2.361328125) (1.1783182621002196e-06, 2.36328125) (-3.6257948875427244e-06, 2.365234375) (-8.293144226074219e-06, 2.3671875) (-1.2812440872192383e-05, 2.369140625) (-1.717142105102539e-05, 2.37109375) (-2.135177230834961e-05, 2.373046875) (-2.5345458984374998e-05, 2.375) (-2.9158740997314453e-05, 2.376953125) (-3.277565765380859e-05, 2.37890625) (-3.616242599487305e-05, 2.380859375) (-3.929314422607422e-05, 2.3828125) (-4.2138900756835936e-05, 2.384765625) (-4.469673919677734e-05, 2.38671875) (-4.7007591247558595e-05, 2.388671875) (-4.907619857788086e-05, 2.390625) (-5.086037445068359e-05, 2.392578125) (-5.2396602630615234e-05, 2.39453125) (-5.378305053710937e-05, 2.396484375) (-5.5097290039062494e-05, 2.3984375) (-5.642800140380859e-05, 2.400390625) (-5.7789615631103514e-05, 2.40234375) (-5.9068237304687495e-05, 2.404296875) (-6.024200057983398e-05, 2.40625) (-6.145064163208007e-05, 2.408203125) (-6.256531524658203e-05, 2.41015625) (-6.31310806274414e-05, 2.412109375) (-6.307256317138672e-05, 2.4140625) (-6.253600311279297e-05, 2.416015625) (-6.147284698486328e-05, 2.41796875) (-6.041234588623047e-05, 2.419921875) (-5.83861083984375e-05, 2.421875) (-5.251457977294922e-05, 2.423828125) (-4.352761840820312e-05, 2.42578125) (-3.405520629882812e-05, 2.427734375) (-2.8570154190063474e-05, 2.4296875) (-3.534081649780273e-05, 2.431640625) (-5.361904144287109e-05, 2.43359375) (-7.519281768798828e-05, 2.435546875) (-9.178970336914063e-05, 2.4375) (-9.167066192626953e-05, 2.439453125) (-7.444563293457031e-05, 2.44140625) (-5.1159931182861324e-05, 2.443359375) (-3.0328086853027342e-05, 2.4453125) (-2.125088119506836e-05, 2.447265625) (-2.528034973144531e-05, 2.44921875) (-3.414862442016602e-05, 2.451171875) (-4.286818695068359e-05, 2.453125) (-4.793209838867187e-05, 2.455078125) (-4.8399528503417965e-05, 2.45703125) (-4.7654846191406247e-05, 2.458984375) (-4.716744613647461e-05, 2.4609375) (-4.683824920654297e-05, 2.462890625) (-4.677256011962891e-05, 2.46484375) (-4.645255279541016e-05, 2.466796875) (-4.576435089111328e-05, 2.46875) (-4.515798950195312e-05, 2.470703125) (-4.475848388671875e-05, 2.47265625) (-4.448377990722656e-05, 2.474609375) (-4.4341049194335937e-05, 2.4765625) (-4.434403228759765e-05, 2.478515625) (-4.4468299865722654e-05, 2.48046875) (-4.4687580108642574e-05, 2.482421875) (-4.49523811340332e-05, 2.484375) (-4.517801666259765e-05, 2.486328125) (-4.533614730834961e-05, 2.48828125) (-4.545748901367187e-05, 2.490234375) (-4.554786682128906e-05, 2.4921875) (-4.55986328125e-05, 2.494140625) (-4.5607421875e-05, 2.49609375) (-4.556713104248047e-05, 2.498046875) (-4.5477088928222654e-05, 2.5) (-4.5345729827880856e-05, 2.501953125) (-4.517376327514648e-05, 2.50390625) (-4.4955097198486326e-05, 2.505859375) (-4.468727493286133e-05, 2.5078125) (-4.4369522094726564e-05, 2.509765625) (-4.400214385986328e-05, 2.51171875) (-4.3587787628173824e-05, 2.513671875) (-4.3129013061523434e-05, 2.515625) (-4.262807846069336e-05, 2.517578125) (-4.208805847167969e-05, 2.51953125) (-4.1512496948242185e-05, 2.521484375) (-4.0905170440673824e-05, 2.5234375) (-4.027041625976562e-05, 2.525390625) (-3.961288070678711e-05, 2.52734375) (-3.8937278747558594e-05, 2.529296875) (-3.824853134155273e-05, 2.53125) (-3.7551795959472656e-05, 2.533203125) (-3.685242462158203e-05, 2.53515625) (-3.615613174438477e-05, 2.537109375) (-3.546884155273437e-05, 2.5390625) (-3.4796226501464845e-05, 2.541015625) (-3.4143592834472656e-05, 2.54296875) (-3.3515869140625e-05, 2.544921875) (-3.291738510131836e-05, 2.546875) (-3.235181045532226e-05, 2.548828125) (-3.182194519042969e-05, 2.55078125) (-3.132937622070312e-05, 2.552734375) (-3.0874464035034176e-05, 2.5546875) (-3.045676040649414e-05, 2.556640625) (-3.007510757446289e-05, 2.55859375) (-2.9727788925170897e-05, 2.560546875) (-2.9412521362304686e-05, 2.5625) (-2.9126060485839843e-05, 2.564453125) (-2.886442184448242e-05, 2.56640625) (-2.862311553955078e-05, 2.568359375) (-2.839713668823242e-05, 2.5703125) (-2.8181110382080077e-05, 2.572265625) (-2.796916961669922e-05, 2.57421875) (-2.7754531860351563e-05, 2.576171875) (-2.7529870986938477e-05, 2.578125) (-2.7287895202636718e-05, 2.580078125) (-2.7021310806274412e-05, 2.58203125) (-2.6723136901855468e-05, 2.583984375) (-2.6386890411376952e-05, 2.5859375) (-2.6005817413330077e-05, 2.587890625) (-2.557330322265625e-05, 2.58984375) (-2.5083576202392576e-05, 2.591796875) (-2.4531459808349608e-05, 2.59375) (-2.3912357330322264e-05, 2.595703125) (-2.3222265243530274e-05, 2.59765625) (-2.2457241058349607e-05, 2.599609375) (-2.161355209350586e-05, 2.6015625) (-2.0688798904418944e-05, 2.603515625) (-1.9682121276855467e-05, 2.60546875) (-1.8593746185302735e-05, 2.607421875) (-1.7424983978271484e-05, 2.609375) (-1.6178424835205077e-05, 2.611328125) (-1.4858019828796387e-05, 2.61328125) (-1.3470032691955566e-05, 2.615234375) (-1.202354621887207e-05, 2.6171875) (-1.0528741836547852e-05, 2.619140625) (-8.996465682983398e-06, 2.62109375) (-7.4388427734375e-06, 2.623046875) (-5.8691039085388185e-06, 2.625) (-4.301742553710937e-06, 2.626953125) (-2.752601385116577e-06, 2.62890625) (-1.2367515563964843e-06, 2.630859375) (2.3207537829875944e-07, 2.6328125) (1.6391434669494628e-06, 2.634765625) (2.9692497253417966e-06, 2.63671875) (4.206256866455078e-06, 2.638671875) (5.332277297973633e-06, 2.640625) (6.33087158203125e-06, 2.642578125) (7.186203002929687e-06, 2.64453125) (7.880880355834961e-06, 2.646484375) (8.398483276367187e-06, 2.6484375) (8.722717285156249e-06, 2.650390625) (8.836872100830077e-06, 2.65234375) (8.731042861938476e-06, 2.654296875) (8.400867462158202e-06, 2.65625) (7.839291572570801e-06, 2.658203125) (7.040741443634033e-06, 2.66015625) (5.995905876159668e-06, 2.662109375) (4.688268184661865e-06, 2.6640625) (3.1115097999572754e-06, 2.666015625) (1.2658767700195311e-06, 2.66796875) (-8.520300388336181e-07, 2.669921875) (-3.2408108711242675e-06, 2.671875) (-5.8943505287170404e-06, 2.673828125) (-8.802408218383789e-06, 2.67578125) (-1.1932462692260742e-05, 2.677734375) (-1.5235624313354492e-05, 2.6796875) (-1.866990661621094e-05, 2.681640625) (-2.219279670715332e-05, 2.68359375) (-2.5772451400756834e-05, 2.685546875) (-2.9390586853027343e-05, 2.6875) (-3.301102828979492e-05, 2.689453125) (-3.659440612792968e-05, 2.69140625) (-4.010126495361328e-05, 2.693359375) (-4.348060607910156e-05, 2.6953125) (-4.670387268066406e-05, 2.697265625) (-4.9755477905273434e-05, 2.69921875) (-5.259880065917968e-05, 2.701171875) (-5.520127487182617e-05, 2.703125) (-5.7556495666503904e-05, 2.705078125) (-5.967876434326172e-05, 2.70703125) (-6.163992309570312e-05, 2.708984375) (-6.355178070068359e-05, 2.7109375) (-6.549538421630859e-05, 2.712890625) (-6.753482055664063e-05, 2.71484375) (-6.971129608154296e-05, 2.716796875) (-7.205186462402344e-05, 2.71875) (-7.461639404296875e-05, 2.720703125) (-7.7462158203125e-05, 2.72265625) (-8.064746093749999e-05, 2.724609375) (-8.422985839843749e-05, 2.7265625) (-8.821154022216797e-05, 2.728515625) (-9.263186645507812e-05, 2.73046875) (-9.758354187011718e-05, 2.732421875) (-0.00010304272460937499, 2.734375) (-0.00010887262725830077, 2.736328125) (-0.00011477565002441405, 2.73828125) (-0.00012018900299072266, 2.740234375) (-0.00012453941345214842, 2.7421875) (-0.00012734542083740234, 2.744140625) (-0.00012801844787597655, 2.74609375) (-0.00012615504455566406, 2.748046875) (-0.00012176652526855468, 2.75) (-0.00011503533935546875, 2.751953125) (-0.00010668571472167968, 2.75390625) (-9.790682983398437e-05, 2.755859375) (-8.972881317138672e-05, 2.7578125) (-8.335179138183594e-05, 2.759765625) (-8.002276611328124e-05, 2.76171875) (-8.007153320312499e-05, 2.763671875) (-8.293968200683593e-05, 2.765625) (-8.758590698242187e-05, 2.767578125) (-9.191127014160156e-05, 2.76953125) (-9.316956329345703e-05, 2.771484375) (-8.856570434570312e-05, 2.7734375) (-7.438078308105469e-05, 2.775390625) (-4.690809249877929e-05, 2.77734375) (-5.735710144042969e-06, 2.779296875) (4.671533203125e-05, 2.78125) (0.00010778692626953125, 2.783203125) (0.00017486802673339843, 2.78515625) (0.00025011613464355465, 2.787109375) (0.00033784002685546875, 2.7890625) (0.00043427633666992185, 2.791015625) (0.0005273904418945313, 2.79296875) (0.0005964693603515625, 2.794921875) (0.0006212172851562499, 2.796875) (0.0005956668701171875, 2.798828125) (0.0005276950073242187, 2.80078125) (0.0004353583068847656, 2.802734375) (0.0003329158325195312, 2.8046875) (0.00022484727478027343, 2.806640625) (0.00011282523345947265, 2.80859375) (-1.001575469970703e-06, 2.810546875) (-0.00010295306396484375, 2.8125) (-0.00017407731628417967, 2.814453125) (-0.00020495156860351563, 2.81640625) (-0.00019688531494140623, 2.818359375) (-0.00016531431579589842, 2.8203125) (-0.00012988690185546873, 2.822265625) (-0.00010139577484130859, 2.82421875) (-8.224943542480468e-05, 2.826171875) (-6.824885559082031e-05, 2.828125) (-5.484085083007812e-05, 2.830078125) (-4.164997100830078e-05, 2.83203125) (-3.096838760375976e-05, 2.833984375) (-2.5785619735717773e-05, 2.8359375) (-2.6550502777099608e-05, 2.837890625) (-3.1488151550292966e-05, 2.83984375) (-3.8227687835693356e-05, 2.841796875) (-4.405435943603516e-05, 2.84375) (-4.76890869140625e-05, 2.845703125) (-4.900030136108398e-05, 2.84765625) (-4.795584869384765e-05, 2.849609375) (-4.5041584014892576e-05, 2.8515625) (-4.096000671386719e-05, 2.853515625) (-3.630419921875e-05, 2.85546875) (-3.184788513183594e-05, 2.857421875) (-2.8382011413574218e-05, 2.859375) (-2.6247583389282227e-05, 2.861328125) (-2.5521320343017576e-05, 2.86328125) (-2.6157855987548828e-05, 2.865234375) (-2.7904232025146484e-05, 2.8671875) (-3.052816772460937e-05, 2.869140625) (-3.3855758666992185e-05, 2.87109375) (-3.7650142669677735e-05, 2.873046875) (-4.16768913269043e-05, 2.875) (-4.577633285522461e-05, 2.876953125) (-4.981093978881836e-05, 2.87890625) (-5.365771102905273e-05, 2.880859375) (-5.7245277404785156e-05, 2.8828125) (-6.050625991821289e-05, 2.884765625) (-6.337532806396484e-05, 2.88671875) (-6.582099151611328e-05, 2.888671875) (-6.782324981689452e-05, 2.890625) (-6.936966705322266e-05, 2.892578125) (-7.047068786621094e-05, 2.89453125) (-7.115513610839843e-05, 2.896484375) (-7.145845794677733e-05, 2.8984375) (-7.141963958740234e-05, 2.900390625) (-7.107504272460937e-05, 2.90234375) (-7.045396423339843e-05, 2.904296875) (-6.959127807617188e-05, 2.90625) (-6.853038024902344e-05, 2.908203125) (-6.732128143310546e-05, 2.91015625) (-6.601934051513671e-05, 2.912109375) (-6.46671142578125e-05, 2.9140625) (-6.329166412353515e-05, 2.916015625) (-6.191346740722656e-05, 2.91796875) (-6.0546447753906244e-05, 2.919921875) (-5.919987106323242e-05, 2.921875) (-5.787849807739257e-05, 2.923828125) (-5.6577045440673824e-05, 2.92578125) (-5.527981185913086e-05, 2.927734375) (-5.397241973876953e-05, 2.9296875) (-5.264586639404296e-05, 2.931640625) (-5.129366302490234e-05, 2.93359375) (-4.99124526977539e-05, 2.935546875) (-4.8496738433837885e-05, 2.9375) (-4.703627014160156e-05, 2.939453125) (-4.551924896240234e-05, 2.94140625) (-4.3935089111328124e-05, 2.943359375) (-4.227590179443359e-05, 2.9453125) (-4.053571319580078e-05, 2.947265625) (-3.871013641357422e-05, 2.94921875) (-3.679471206665039e-05, 2.951171875) (-3.478516006469726e-05, 2.953125) (-3.267981719970703e-05, 2.955078125) (-3.048011016845703e-05, 2.95703125) (-2.818876838684082e-05, 2.958984375) (-2.5807882308959958e-05, 2.9609375) (-2.3337894439697265e-05, 2.962890625) (-2.0776559829711914e-05, 2.96484375) (-1.8121986389160155e-05, 2.966796875) (-1.537351036071777e-05, 2.96875) (-1.2530674934387207e-05, 2.970703125) (-9.594504356384276e-06, 2.97265625) (-6.566020965576171e-06, 2.974609375) (-3.445888042449951e-06, 2.9765625) (-2.365204095840454e-07, 2.978515625) (3.058439254760742e-06, 2.98046875) (6.435729026794433e-06, 2.982421875) (9.888440132141114e-06, 2.984375) (1.340924835205078e-05, 2.986328125) (1.69970645904541e-05, 2.98828125) (2.0648080825805663e-05, 2.990234375) (2.4359432220458983e-05, 2.9921875) (2.812942314147949e-05, 2.994140625) (3.194313812255859e-05, 2.99609375) (3.5784042358398434e-05, 2.998046875) (3.9641998291015623e-05, 3.0) (4.350358581542969e-05, 3.001953125) (4.735248947143555e-05, 3.00390625) (5.117521286010742e-05, 3.005859375) (5.494898986816406e-05, 3.0078125) (5.864976501464843e-05, 3.009765625) (6.227204895019531e-05, 3.01171875) (6.580715179443359e-05, 3.013671875) (6.924806213378907e-05, 3.015625) (7.259161376953125e-05, 3.017578125) (7.581390380859375e-05, 3.01953125) (7.889308929443359e-05, 3.021484375) (8.181083679199219e-05, 3.0234375) (8.454440307617187e-05, 3.025390625) (8.709117889404297e-05, 3.02734375) (8.945282745361327e-05, 3.029296875) (9.161292266845702e-05, 3.03125) (9.3558349609375e-05, 3.033203125) (9.529137420654297e-05, 3.03515625) (9.680619049072265e-05, 3.037109375) (9.81146240234375e-05, 3.0390625) (9.923309326171875e-05, 3.041015625) (0.00010012689971923828, 3.04296875) (0.00010076503753662108, 3.044921875) (0.00010112440490722655, 3.046875) (0.0001011732177734375, 3.048828125) (0.00010091305541992187, 3.05078125) (0.00010034725189208983, 3.052734375) (9.946546936035155e-05, 3.0546875) (9.826494598388672e-05, 3.056640625) (9.6734130859375e-05, 3.05859375) (9.485691070556641e-05, 3.060546875) (9.264250183105468e-05, 3.0625) (9.010153198242187e-05, 3.064453125) (8.721665954589843e-05, 3.06640625) (8.398381042480468e-05, 3.068359375) (8.038439178466796e-05, 3.0703125) (7.63951416015625e-05, 3.072265625) (7.206494140625e-05, 3.07421875) (6.744340515136718e-05, 3.076171875) (6.256472778320312e-05, 3.078125) (5.747724151611328e-05, 3.080078125) (5.220140075683594e-05, 3.08203125) (4.6754940032958985e-05, 3.083984375) (4.11796875e-05, 3.0859375) (3.5513565063476564e-05, 3.087890625) (2.9785356521606444e-05, 3.08984375) (2.403060722351074e-05, 3.091796875) (1.8268747329711914e-05, 3.09375) (1.2516191482543944e-05, 3.095703125) (6.822425365447998e-06, 3.09765625) (1.2279444932937621e-06, 3.099609375) (-4.220064163208008e-06, 3.1015625) (-9.467945098876952e-06, 3.103515625) (-1.4517646789550781e-05, 3.10546875) (-1.9372833251953124e-05, 3.107421875) (-2.4020059585571286e-05, 3.109375) (-2.8456581115722654e-05, 3.111328125) (-3.2665916442871094e-05, 3.11328125) (-3.662786865234375e-05, 3.115234375) (-4.034369659423828e-05, 3.1171875) (-4.3815258026123044e-05, 3.119140625) (-4.70264663696289e-05, 3.12109375) (-4.996747589111328e-05, 3.123046875) (-5.262614440917968e-05, 3.125) (-5.498836898803711e-05, 3.126953125) (-5.706501007080078e-05, 3.12890625) (-5.8866249084472654e-05, 3.130859375) (-6.040266418457031e-05, 3.1328125) (-6.169120788574218e-05, 3.134765625) (-6.27278823852539e-05, 3.13671875) (-6.350906372070312e-05, 3.138671875) (-6.40434112548828e-05, 3.140625) (-6.433792877197265e-05, 3.142578125) (-6.440368652343749e-05, 3.14453125) (-6.425643157958984e-05, 3.146484375) (-6.390406036376953e-05, 3.1484375) (-6.335464096069335e-05, 3.150390625) (-6.263134002685547e-05, 3.15234375) (-6.175707244873047e-05, 3.154296875) (-6.075299072265625e-05, 3.15625) (-5.964218139648437e-05, 3.158203125) (-5.8438007354736325e-05, 3.16015625) (-5.715223693847656e-05, 3.162109375) (-5.580087280273437e-05, 3.1640625) (-5.4399654388427735e-05, 3.166015625) (-5.296600341796875e-05, 3.16796875) (-5.1517475128173826e-05, 3.169921875) (-5.0069496154785156e-05, 3.171875) (-4.863744354248047e-05, 3.173828125) (-4.7239463806152345e-05, 3.17578125) (-4.589435195922851e-05, 3.177734375) (-4.46186408996582e-05, 3.1796875) (-4.342548370361328e-05, 3.181640625) (-4.232165908813477e-05, 3.18359375) (-4.131063079833984e-05, 3.185546875) (-4.039493179321289e-05, 3.1875) (-3.9575424194335934e-05, 3.189453125) (-3.88504753112793e-05, 3.19140625) (-3.821519470214843e-05, 3.193359375) (-3.766360473632812e-05, 3.1953125) (-3.7189208984375e-05, 3.197265625) (-3.6788917541503904e-05, 3.19921875) (-3.64627456665039e-05, 3.201171875) (-3.6205829620361324e-05, 3.203125) (-3.6009330749511716e-05, 3.205078125) (-3.5859458923339845e-05, 3.20703125) (-3.573677062988281e-05, 3.208984375) (-3.5627098083496094e-05, 3.2109375) (-3.552308654785156e-05, 3.212890625) (-3.541504669189453e-05, 3.21484375) (-3.529267883300781e-05, 3.216796875) (-3.515354919433594e-05, 3.21875) (-3.5000045776367184e-05, 3.220703125) (-3.4848854064941405e-05, 3.22265625) (-3.473192596435547e-05, 3.224609375) (-3.466728210449218e-05, 3.2265625) (-3.4660293579101564e-05, 3.228515625) (-3.470775604248047e-05, 3.23046875) (-3.4792823791503906e-05, 3.232421875) (-3.4901916503906245e-05, 3.234375) (-3.502418518066406e-05, 3.236328125) (-3.514183044433594e-05, 3.23828125) (-3.5235443115234376e-05, 3.240234375) (-3.528360366821289e-05, 3.2421875) (-3.525850677490234e-05, 3.244140625) (-3.514248657226562e-05, 3.24609375) (-3.4926750183105466e-05, 3.248046875) (-3.458277130126953e-05, 3.25) (-3.407205581665039e-05, 3.251953125) (-3.333420181274414e-05, 3.25390625) (-3.2283714294433595e-05, 3.255859375) (-3.0869276046752926e-05, 3.2578125) (-2.9068342208862305e-05, 3.259765625) (-2.6871778488159178e-05, 3.26171875) (-2.429470634460449e-05, 3.263671875) (-2.1357101440429687e-05, 3.265625) (-1.8088745117187498e-05, 3.267578125) (-1.4551054000854491e-05, 3.26953125) (-1.082369327545166e-05, 3.271484375) (-6.982365131378173e-06, 3.2734375) (-3.1089963912963865e-06, 3.275390625) (7.243969440460205e-07, 3.27734375) (4.4522666931152345e-06, 3.279296875) (7.974197387695312e-06, 3.28125) (1.1183674812316894e-05, 3.283203125) (1.3961404800415038e-05, 3.28515625) (1.6168134689331054e-05, 3.287109375) (1.7708593368530272e-05, 3.2890625) (1.8514816284179687e-05, 3.291015625) (1.8528972625732422e-05, 3.29296875) (1.7720706939697265e-05, 3.294921875) (1.6070796966552733e-05, 3.296875) (1.3582013130187989e-05, 3.298828125) (1.0302848815917968e-05, 3.30078125) (6.3043169975280756e-06, 3.302734375) (1.6531175374984741e-06, 3.3046875) (-3.5662293434143063e-06, 3.306640625) (-9.264230728149414e-06, 3.30859375) (-1.533646011352539e-05, 3.310546875) (-2.163069534301758e-05, 3.3125) (-2.8004287719726562e-05, 3.314453125) (-3.432251739501953e-05, 3.31640625) (-4.044424057006836e-05, 3.318359375) (-4.626486206054687e-05, 3.3203125) (-5.168812561035156e-05, 3.322265625) (-5.661815643310547e-05, 3.32421875) (-6.0983642578124996e-05, 3.326171875) (-6.472225189208984e-05, 3.328125) (-6.778717041015625e-05, 3.330078125) (-7.01614990234375e-05, 3.33203125) (-7.183187866210938e-05, 3.333984375) (-7.278414916992187e-05, 3.3359375) (-7.303774261474609e-05, 3.337890625) (-7.263207244873046e-05, 3.33984375) (-7.164083862304687e-05, 3.341796875) (-7.018551635742187e-05, 3.34375) (-6.836333465576172e-05, 3.345703125) (-6.625082397460937e-05, 3.34765625) (-6.392383575439453e-05, 3.349609375) (-6.143395233154296e-05, 3.3515625) (-5.8836669921875e-05, 3.353515625) (-5.619185638427734e-05, 3.35546875) (-5.3537372589111323e-05, 3.357421875) (-5.0906097412109375e-05, 3.359375) (-4.833381652832031e-05, 3.361328125) (-4.585390472412109e-05, 3.36328125) (-4.3516632080078126e-05, 3.365234375) (-4.1373458862304685e-05, 3.3671875) (-3.944248199462891e-05, 3.369140625) (-3.772303009033203e-05, 3.37109375) (-3.618448257446289e-05, 3.373046875) (-3.4764205932617185e-05, 3.375) (-3.342488479614258e-05, 3.376953125) (-3.214759063720703e-05, 3.37890625) (-3.0912921905517575e-05, 3.380859375) (-2.9718067169189453e-05, 3.3828125) (-2.8559242248535155e-05, 3.384765625) (-2.7430099487304686e-05, 3.38671875) (-2.6345090866088867e-05, 3.388671875) (-2.532599639892578e-05, 3.390625) (-2.4384330749511718e-05, 3.392578125) (-2.3523950576782227e-05, 3.39453125) (-2.273323059082031e-05, 3.396484375) (-2.199795913696289e-05, 3.3984375) (-2.1325042724609373e-05, 3.400390625) (-2.0733228683471678e-05, 3.40234375) (-2.025301742553711e-05, 3.404296875) (-1.9926769256591795e-05, 3.40625) (-1.9780080795288087e-05, 3.408203125) (-1.9827884674072265e-05, 3.41015625) (-2.009096527099609e-05, 3.412109375) (-2.0582559585571288e-05, 3.4140625) (-2.1314546585083007e-05, 3.416015625) (-2.2300712585449218e-05, 3.41796875) (-2.3537139892578124e-05, 3.419921875) (-2.5009208679199216e-05, 3.421875) (-2.670937156677246e-05, 3.423828125) (-2.8631122589111328e-05, 3.42578125) (-3.076288795471191e-05, 3.427734375) (-3.308690643310547e-05, 3.4296875) (-3.5565258026123047e-05, 3.431640625) (-3.814321136474609e-05, 3.43359375) (-4.077128601074218e-05, 3.435546875) (-4.340336227416992e-05, 3.4375) (-4.600141906738281e-05, 3.439453125) (-4.853403091430664e-05, 3.44140625) (-5.0956481933593745e-05, 3.443359375) (-5.322038269042969e-05, 3.4453125) (-5.528158569335937e-05, 3.447265625) (-5.709976196289062e-05, 3.44921875) (-5.864787292480469e-05, 3.451171875) (-5.9905361175537106e-05, 3.453125) (-6.084261322021484e-05, 3.455078125) (-6.143689727783203e-05, 3.45703125) (-6.170635223388672e-05, 3.458984375) (-6.170431518554687e-05, 3.4609375) (-6.15135269165039e-05, 3.462890625) (-6.123972702026367e-05, 3.46484375) (-6.0953170776367186e-05, 3.466796875) (-6.0694816589355466e-05, 3.46875) (-6.0521728515624995e-05, 3.470703125) (-6.0499816894531245e-05, 3.47265625) (-6.071479797363281e-05, 3.474609375) (-6.126985168457031e-05, 3.4765625) (-6.224063873291015e-05, 3.478515625) (-6.364389038085937e-05, 3.48046875) (-6.551029205322266e-05, 3.482421875) (-6.791373443603515e-05, 3.484375) (-7.085317993164063e-05, 3.486328125) (-7.42326431274414e-05, 3.48828125) (-7.7761474609375e-05, 3.490234375) (-8.091417694091796e-05, 3.4921875) (-8.315008544921875e-05, 3.494140625) (-8.405992126464843e-05, 3.49609375) (-8.336217498779297e-05, 3.498046875) (-8.0862548828125e-05, 3.5) (-7.661397552490235e-05, 3.501953125) (-7.084721374511718e-05, 3.50390625) (-6.40853271484375e-05, 3.505859375) (-5.7304252624511715e-05, 3.5078125) (-5.15202522277832e-05, 3.509765625) (-4.754414367675781e-05, 3.51171875) (-4.5696807861328124e-05, 3.513671875) (-4.568161010742187e-05, 3.515625) (-4.651507949829101e-05, 3.517578125) (-4.686316299438476e-05, 3.51953125) (-4.514731216430664e-05, 3.521484375) (-3.92298469543457e-05, 3.5234375) (-2.6769729614257812e-05, 3.525390625) (-5.456155776977539e-06, 3.52734375) (2.616049575805664e-05, 3.529296875) (6.81265640258789e-05, 3.53125) (0.00011913340759277343, 3.533203125) (0.00017702755737304687, 3.53515625) (0.00023928599548339843, 3.537109375) (0.0003025380859375, 3.5390625) (0.00036255737304687497, 3.541015625) (0.00041440765380859374, 3.54296875) (0.0004536732788085937, 3.544921875) (0.00047743099975585936, 3.546875) (0.00048425244140625, 3.548828125) (0.00047389495849609373, 3.55078125) (0.00044667169189453124, 3.552734375) (0.0004040495910644531, 3.5546875) (0.0003490416259765625, 3.556640625) (0.0002861436157226562, 3.55859375) (0.0002202675323486328, 3.560546875) (0.00015571896362304686, 3.5625) (9.603868865966796e-05, 3.564453125) (4.3889991760253904e-05, 3.56640625) (1.547715187072754e-06, 3.568359375) (-2.963339614868164e-05, 3.5703125) (-4.97276382446289e-05, 3.572265625) (-6.018020629882812e-05, 3.57421875) (-6.323908996582031e-05, 3.576171875) (-6.12872314453125e-05, 3.578125) (-5.660490036010742e-05, 3.580078125) (-5.098011779785156e-05, 3.58203125) (-4.60258560180664e-05, 3.583984375) (-4.2908405303955074e-05, 3.5859375) (-4.1977294921874995e-05, 3.587890625) (-4.2898361206054685e-05, 3.58984375) (-4.4851772308349605e-05, 3.591796875) (-4.682453155517578e-05, 3.59375) (-4.782418441772461e-05, 3.595703125) (-4.7264503479003904e-05, 3.59765625) (-4.47635498046875e-05, 3.599609375) (-4.0156303405761716e-05, 3.6015625) (-3.366612243652344e-05, 3.603515625) (-2.5735660552978513e-05, 3.60546875) (-1.6984294891357422e-05, 3.607421875) (-8.123950958251953e-06, 3.609375) (1.7815160751342772e-07, 3.611328125) (7.5206651687622065e-06, 3.61328125) (1.3688156127929687e-05, 3.615234375) (1.856311798095703e-05, 3.6171875) (2.2169103622436523e-05, 3.619140625) (2.455483627319336e-05, 3.62109375) (2.580843162536621e-05, 3.623046875) (2.6099864959716795e-05, 3.625) (2.562760543823242e-05, 3.626953125) (2.454597473144531e-05, 3.62890625) (2.296361541748047e-05, 3.630859375) (2.098357391357422e-05, 3.6328125) (1.8708044052124024e-05, 3.634765625) (1.6291759490966795e-05, 3.63671875) (1.3919959068298338e-05, 3.638671875) (1.1726700782775878e-05, 3.640625) (9.801526069641113e-06, 3.642578125) (8.19662857055664e-06, 3.64453125) (6.93791389465332e-06, 3.646484375) (6.052105903625488e-06, 3.6484375) (5.556104660034179e-06, 3.650390625) (5.434441089630127e-06, 3.65234375) (5.646158218383789e-06, 3.654296875) (6.147286891937256e-06, 3.65625) (6.893923759460449e-06, 3.658203125) (7.852045059204102e-06, 3.66015625) (8.996270179748535e-06, 3.662109375) (1.028487491607666e-05, 3.6640625) (1.1664928436279296e-05, 3.666015625) (1.3075828552246092e-05, 3.66796875) (1.4453351974487305e-05, 3.669921875) (1.575407600402832e-05, 3.671875) (1.695303726196289e-05, 3.673828125) (1.8035072326660156e-05, 3.67578125) (1.899430465698242e-05, 3.677734375) (1.9830337524414063e-05, 3.6796875) (2.0549274444580078e-05, 3.681640625) (2.1170091629028318e-05, 3.68359375) (2.1720132827758787e-05, 3.685546875) (2.2221210479736328e-05, 3.6875) (2.2690614700317382e-05, 3.689453125) (2.3142194747924804e-05, 3.69140625) (2.3587295532226562e-05, 3.693359375) (2.4043003082275388e-05, 3.6953125) (2.452901840209961e-05, 3.697265625) (2.5063587188720702e-05, 3.69921875) (2.5664674758911133e-05, 3.701171875) (2.6347412109375e-05, 3.703125) (2.7124313354492185e-05, 3.705078125) (2.800737190246582e-05, 3.70703125) (2.9006601333618164e-05, 3.708984375) (3.0128597259521483e-05, 3.7109375) (3.1377994537353514e-05, 3.712890625) (3.2757125854492184e-05, 3.71484375) (3.426631927490234e-05, 3.716796875) (3.590747833251953e-05, 3.71875) (3.768330383300781e-05, 3.720703125) (3.959608840942382e-05, 3.72265625) (4.164847564697265e-05, 3.724609375) (4.384236907958984e-05, 3.7265625) (4.6178657531738276e-05, 3.728515625) (4.865812301635742e-05, 3.73046875) (5.128083801269531e-05, 3.732421875) (5.404489135742187e-05, 3.734375) (5.694681549072265e-05, 3.736328125) (5.9981761932373044e-05, 3.73828125) (6.314335632324218e-05, 3.740234375) (6.642430114746093e-05, 3.7421875) (6.981607055664062e-05, 3.744140625) (7.330848693847656e-05, 3.74609375) (7.689022827148437e-05, 3.748046875) (8.0549072265625e-05, 3.75) (8.427184295654297e-05, 3.751953125) (8.804437255859374e-05, 3.75390625) (9.185136413574219e-05, 3.755859375) (9.56763916015625e-05, 3.7578125) (9.950247192382812e-05, 3.759765625) (0.00010331231689453125, 3.76171875) (0.00010708834075927734, 3.763671875) (0.00011081255340576171, 3.765625) (0.0001144667510986328, 3.767578125) (0.00011803256225585937, 3.76953125) (0.00012149195861816406, 3.771484375) (0.00012482748413085936, 3.7734375) (0.00012802206420898436, 3.775390625) (0.00013105902099609375, 3.77734375) (0.00013392202758789063, 3.779296875) (0.0001365953369140625, 3.78125) (0.00013906361389160157, 3.783203125) (0.00014131237792968748, 3.78515625) (0.00014332769775390625, 3.787109375) (0.00014509609985351561, 3.7890625) (0.00014660472106933594, 3.791015625) (0.0001478414306640625, 3.79296875) (0.00014879495239257813, 3.794921875) (0.00014945538330078125, 3.796875) (0.00014981417846679685, 3.798828125) (0.00014986407470703124, 3.80078125) (0.0001495994110107422, 3.802734375) (0.0001490160675048828, 3.8046875) (0.00014811166381835936, 3.806640625) (0.00014688568115234373, 3.80859375) (0.0001453394317626953, 3.810546875) (0.00014347576904296874, 3.8125) (0.00014129917907714843, 3.814453125) (0.0001388157958984375, 3.81640625) (0.00013603337097167968, 3.818359375) (0.00013296136474609375, 3.8203125) (0.00012961061096191406, 3.822265625) (0.0001259933395385742, 3.82421875) (0.00012212300109863282, 3.826171875) (0.0001180142822265625, 3.828125) (0.0001136829376220703, 3.830078125) (0.00010914568328857421, 3.83203125) (0.00010441995239257812, 3.833984375) (9.9523681640625e-05, 3.8359375) (9.447531127929687e-05, 3.837890625) (8.92936553955078e-05, 3.83984375) (8.399786376953124e-05, 3.841796875) (7.860742950439452e-05, 3.84375) (7.314201354980468e-05, 3.845703125) (6.762142944335937e-05, 3.84765625) (6.206570816040039e-05, 3.849609375) (5.649503326416015e-05, 3.8515625) (5.0929683685302734e-05, 3.853515625) (4.538988494873047e-05, 3.85546875) (3.98956184387207e-05, 3.857421875) (3.4466407775878905e-05, 3.859375) (2.9121137619018555e-05, 3.861328125) (2.3877935409545898e-05, 3.86328125) (1.8753969192504882e-05, 3.865234375) (1.376527690887451e-05, 3.8671875) (8.92660140991211e-06, 3.869140625) (4.251306533813476e-06, 3.87109375) (-2.4863505363464355e-07, 3.873046875) (-4.56263256072998e-06, 3.875) (-8.681501388549804e-06, 3.876953125) (-1.2597517967224121e-05, 3.87890625) (-1.6304447174072265e-05, 3.880859375) (-1.9797550201416014e-05, 3.8828125) (-2.3073553085327148e-05, 3.884765625) (-2.6130584716796874e-05, 3.88671875) (-2.8968170166015625e-05, 3.888671875) (-3.1587177276611326e-05, 3.890625) (-3.39897575378418e-05, 3.892578125) (-3.617920684814453e-05, 3.89453125) (-3.815981292724609e-05, 3.896484375) (-3.993667602539062e-05, 3.8984375) (-4.1515655517578124e-05, 3.900390625) (-4.29032974243164e-05, 3.90234375) (-4.410680389404297e-05, 3.904296875) (-4.513399124145508e-05, 3.90625) (-4.599324798583984e-05, 3.908203125) (-4.6693550109863276e-05, 3.91015625) (-4.7244430541992185e-05, 3.912109375) (-4.7656005859374996e-05, 3.9140625) (-4.793891906738281e-05, 3.916015625) (-4.8104187011718745e-05, 3.91796875) (-4.816302490234375e-05, 3.919921875) (-4.8126697540283204e-05, 3.921875) (-4.800634002685547e-05, 3.923828125) (-4.781283569335937e-05, 3.92578125) (-4.755666732788086e-05, 3.927734375) (-4.724774932861328e-05, 3.9296875) (-4.689537048339843e-05, 3.931640625) (-4.650810241699219e-05, 3.93359375) (-4.609380722045898e-05, 3.935546875) (-4.5659626007080074e-05, 3.9375) (-4.521197128295898e-05, 3.939453125) (-4.475646591186523e-05, 3.94140625) (-4.429795837402344e-05, 3.943359375) (-4.384047698974609e-05, 3.9453125) (-4.338722229003906e-05, 3.947265625) (-4.294062805175781e-05, 3.94921875) (-4.250239181518554e-05, 3.951171875) (-4.207349395751953e-05, 3.953125) (-4.1654289245605465e-05, 3.955078125) (-4.124464797973633e-05, 3.95703125) (-4.084406280517578e-05, 3.958984375) (-4.045178604125976e-05, 3.9609375) (-4.00669059753418e-05, 3.962890625) (-3.968835067749023e-05, 3.96484375) (-3.9314945220947265e-05, 3.966796875) (-3.8945381164550776e-05, 3.96875) (-3.857821655273437e-05, 3.970703125) (-3.821187210083008e-05, 3.97265625) (-3.7844562530517575e-05, 3.974609375) (-3.747428894042969e-05, 3.9765625) (-3.7098934173583984e-05, 3.978515625) (-3.671631622314453e-05, 3.98046875) (-3.6324310302734374e-05, 3.982421875) (-3.592093276977539e-05, 3.984375) (-3.5504459381103514e-05, 3.986328125) (-3.5073432922363276e-05, 3.98828125) (-3.462683868408203e-05, 3.990234375) (-3.416415786743164e-05, 3.9921875) (-3.368534088134765e-05, 3.994140625) (-3.319083786010742e-05, 3.99609375) (-3.268154907226562e-05, 3.998046875) (-3.215884399414062e-05, 4.0) (-3.162455940246582e-05, 4.001953125) (-3.10810546875e-05, 4.00390625) (-3.0531127929687497e-05, 4.005859375) (-2.997798919677734e-05, 4.0078125) (-2.9425209045410153e-05, 4.009765625) (-2.8876646041870116e-05, 4.01171875) (-2.8336479187011717e-05, 4.013671875) (-2.7809139251708984e-05, 4.015625) (-2.7299148559570313e-05, 4.017578125) (-2.6810985565185546e-05, 4.01953125) (-2.6348917007446288e-05, 4.021484375) (-2.5916889190673827e-05, 4.0234375) (-2.5518594741821288e-05, 4.025390625) (-2.515749740600586e-05, 4.02734375) (-2.4836639404296875e-05, 4.029296875) (-2.4558656692504883e-05, 4.03125) (-2.4325794219970703e-05, 4.033203125) (-2.4139856338500975e-05, 4.03515625) (-2.4002506256103514e-05, 4.037109375) (-2.3915298461914062e-05, 4.0390625) (-2.3879405975341797e-05, 4.041015625) (-2.3895538330078124e-05, 4.04296875) (-2.3963993072509765e-05, 4.044921875) (-2.4084579467773436e-05, 4.046875) (-2.4256736755371093e-05, 4.048828125) (-2.4479619979858397e-05, 4.05078125) (-2.4751781463623047e-05, 4.052734375) (-2.507103729248047e-05, 4.0546875) (-2.5434637069702148e-05, 4.056640625) (-2.5839277267456053e-05, 4.05859375) (-2.6281173706054685e-05, 4.060546875) (-2.675618553161621e-05, 4.0625) (-2.7259586334228516e-05, 4.064453125) (-2.778584861755371e-05, 4.06640625) (-2.8328945159912108e-05, 4.068359375) (-2.8882518768310545e-05, 4.0703125) (-2.9440055847167967e-05, 4.072265625) (-2.99951171875e-05, 4.07421875) (-3.054095458984375e-05, 4.076171875) (-3.107045173645019e-05, 4.078125) (-3.157643890380859e-05, 4.080078125) (-3.205193710327148e-05, 4.08203125) (-3.2490489959716796e-05, 4.083984375) (-3.288624572753906e-05, 4.0859375) (-3.323345947265625e-05, 4.087890625) (-3.35263557434082e-05, 4.08984375) (-3.3759735107421874e-05, 4.091796875) (-3.392904281616211e-05, 4.09375) (-3.4030460357666014e-05, 4.095703125) (-3.406103515625e-05, 4.09765625) (-3.401782989501953e-05, 4.099609375) (-3.389776229858398e-05, 4.1015625) (-3.3698402404785154e-05, 4.103515625) (-3.341831970214843e-05, 4.10546875) (-3.305677032470703e-05, 4.107421875) (-3.2613796234130855e-05, 4.109375) (-3.2089881896972655e-05, 4.111328125) (-3.1485357284545896e-05, 4.11328125) (-3.080147933959961e-05, 4.115234375) (-3.0041034698486325e-05, 4.1171875) (-2.9207548141479492e-05, 4.119140625) (-2.8305303573608398e-05, 4.12109375) (-2.7339338302612304e-05, 4.123046875) (-2.6314929962158203e-05, 4.125) (-2.5238773345947266e-05, 4.126953125) (-2.4119953155517578e-05, 4.12890625) (-2.2968631744384765e-05, 4.130859375) (-2.179548645019531e-05, 4.1328125) (-2.061184310913086e-05, 4.134765625) (-1.942891693115234e-05, 4.13671875) (-1.8258468627929685e-05, 4.138671875) (-1.7113447189331054e-05, 4.140625) (-1.600583267211914e-05, 4.142578125) (-1.4945918083190917e-05, 4.14453125) (-1.3943128585815429e-05, 4.146484375) (-1.300552749633789e-05, 4.1484375) (-1.214208698272705e-05, 4.150390625) (-1.1363820075988768e-05, 4.15234375) (-1.0681182861328125e-05, 4.154296875) (-1.0104174613952636e-05, 4.15625) (-9.642494201660155e-06, 4.158203125) (-9.304381370544434e-06, 4.16015625) (-9.09862232208252e-06, 4.162109375) (-9.03558349609375e-06, 4.1640625) (-9.120512008666992e-06, 4.166015625) (-9.352743148803711e-06, 4.16796875) (-9.732246398925781e-06, 4.169921875) (-1.0258214950561523e-05, 4.171875) (-1.0935413360595703e-05, 4.173828125) (-1.1776693344116211e-05, 4.17578125) (-1.2790388107299804e-05, 4.177734375) (-1.3979537963867187e-05, 4.1796875) (-1.534644889831543e-05, 4.181640625) (-1.6890939712524415e-05, 4.18359375) (-1.8607364654541016e-05, 4.185546875) (-2.0484718322753905e-05, 4.1875) (-2.2497730255126952e-05, 4.189453125) (-2.4605556488037108e-05, 4.19140625) (-2.6768497467041016e-05, 4.193359375) (-2.8948154449462888e-05, 4.1953125) (-3.1117462158203126e-05, 4.197265625) (-3.3263160705566405e-05, 4.19921875) (-3.536286163330078e-05, 4.201171875) (-3.738718032836914e-05, 4.203125) (-3.9297489166259765e-05, 4.205078125) (-4.1048908233642574e-05, 4.20703125) (-4.2612609863281245e-05, 4.208984375) (-4.397496032714843e-05, 4.2109375) (-4.5114585876464844e-05, 4.212890625) (-4.599945831298828e-05, 4.21484375) (-4.663041305541992e-05, 4.216796875) (-4.704667282104492e-05, 4.21875) (-4.7327186584472654e-05, 4.220703125) (-4.7592102050781245e-05, 4.22265625) (-4.792655181884766e-05, 4.224609375) (-4.8368350982666015e-05, 4.2265625) (-4.896125030517578e-05, 4.228515625) (-4.9771049499511716e-05, 4.23046875) (-5.086355590820312e-05, 4.232421875) (-5.231208038330078e-05, 4.234375) (-5.419926071166992e-05, 4.236328125) (-5.654584503173828e-05, 4.23828125) (-5.9420753479003905e-05, 4.240234375) (-6.299139404296875e-05, 4.2421875) (-6.729420471191406e-05, 4.244140625) (-7.223490905761719e-05, 4.24609375) (-7.758329010009765e-05, 4.248046875) (-8.284310913085937e-05, 4.25) (-8.743534851074219e-05, 4.251953125) (-9.09140625e-05, 4.25390625) (-9.274021911621093e-05, 4.255859375) (-9.229457855224609e-05, 4.2578125) (-8.948281860351562e-05, 4.259765625) (-8.462785339355469e-05, 4.26171875) (-7.837245941162109e-05, 4.263671875) (-7.189831542968749e-05, 4.265625) (-6.664486694335937e-05, 4.267578125) (-6.396043014526366e-05, 4.26953125) (-6.49639892578125e-05, 4.271484375) (-7.070062255859374e-05, 4.2734375) (-7.967703247070312e-05, 4.275390625) (-8.787239074707031e-05, 4.27734375) (-9.341114044189453e-05, 4.279296875) (-9.475553894042969e-05, 4.28125) (-9.231268310546875e-05, 4.283203125) (-9.045806884765625e-05, 4.28515625) (-8.511000823974609e-05, 4.287109375) (-6.642946624755858e-05, 4.2890625) (-2.649599838256836e-05, 4.291015625) (4.4880363464355466e-05, 4.29296875) (0.00014502740478515623, 4.294921875) (0.00025740289306640625, 4.296875) (0.0003672619934082031, 4.298828125) (0.0004584266967773437, 4.30078125) (0.0005218552856445312, 4.302734375) (0.000561207275390625, 4.3046875) (0.000580260986328125, 4.306640625) (0.0005813338623046875, 4.30859375) (0.0005643446044921875, 4.310546875) (0.0005231847534179687, 4.3125) (0.00045230627441406247, 4.314453125) (0.00035340048217773434, 4.31640625) (0.0002369418182373047, 4.318359375) (0.00012200846862792968, 4.3203125) (2.8300540924072265e-05, 4.322265625) (-3.22591438293457e-05, 4.32421875) (-6.0318874359130855e-05, 4.326171875) (-6.936167907714844e-05, 4.328125) (-7.376165771484374e-05, 4.330078125) (-8.19606704711914e-05, 4.33203125) (-9.467893981933594e-05, 4.333984375) (-0.00010459365844726562, 4.3359375) (-0.00010648114013671874, 4.337890625) (-0.00010083403015136718, 4.33984375) (-9.118124389648437e-05, 4.341796875) (-8.268993377685546e-05, 4.34375) (-7.794533538818359e-05, 4.345703125) (-7.648892211914062e-05, 4.34765625) (-7.720096588134765e-05, 4.349609375) (-7.910353088378906e-05, 4.3515625) (-8.171925354003906e-05, 4.353515625) (-8.445089721679688e-05, 4.35546875) (-8.620828247070312e-05, 4.357421875) (-8.620672607421874e-05, 4.359375) (-8.42250747680664e-05, 4.361328125) (-8.055229949951171e-05, 4.36328125) (-7.586392974853515e-05, 4.365234375) (-7.065419006347656e-05, 4.3671875) (-6.521307373046875e-05, 4.369140625) (-5.997958755493164e-05, 4.37109375) (-5.549108123779297e-05, 4.373046875) (-5.213113784790039e-05, 4.375) (-5.009708786010742e-05, 4.376953125) (-4.936936950683594e-05, 4.37890625) (-4.9734920501708984e-05, 4.380859375) (-5.1004577636718746e-05, 4.3828125) (-5.303413391113281e-05, 4.384765625) (-5.564796447753906e-05, 4.38671875) (-5.866565322875976e-05, 4.388671875) (-6.192172241210937e-05, 4.390625) (-6.526202392578125e-05, 4.392578125) (-6.854471588134765e-05, 4.39453125) (-7.163665771484375e-05, 4.396484375) (-7.44259262084961e-05, 4.3984375) (-7.682963562011719e-05, 4.400390625) (-7.879359436035156e-05, 4.40234375) (-8.028797149658203e-05, 4.404296875) (-8.129080963134766e-05, 4.40625) (-8.178746032714844e-05, 4.408203125) (-8.179018402099609e-05, 4.41015625) (-8.13421401977539e-05, 4.412109375) (-8.049606323242187e-05, 4.4140625) (-7.930745697021483e-05, 4.416015625) (-7.782365417480469e-05, 4.41796875) (-7.608079528808593e-05, 4.419921875) (-7.412793731689453e-05, 4.421875) (-7.202415466308593e-05, 4.423828125) (-6.983441162109375e-05, 4.42578125) (-6.762750244140625e-05, 4.427734375) (-6.545077514648437e-05, 4.4296875) (-6.333184432983398e-05, 4.431640625) (-6.129259872436523e-05, 4.43359375) (-5.934761810302734e-05, 4.435546875) (-5.7505622863769526e-05, 4.4375) (-5.5771167755126954e-05, 4.439453125) (-5.413488388061523e-05, 4.44140625) (-5.257474136352539e-05, 4.443359375) (-5.107411575317382e-05, 4.4453125) (-4.962069702148437e-05, 4.447265625) (-4.820420455932617e-05, 4.44921875) (-4.681792449951172e-05, 4.451171875) (-4.544868469238281e-05, 4.453125) (-4.4078178405761715e-05, 4.455078125) (-4.268933486938476e-05, 4.45703125) (-4.1266117095947265e-05, 4.458984375) (-3.9794765472412106e-05, 4.4609375) (-3.8263729095458984e-05, 4.462890625) (-3.666065216064453e-05, 4.46484375) (-3.497294235229492e-05, 4.466796875) (-3.3191024780273436e-05, 4.46875) (-3.130754470825195e-05, 4.470703125) (-2.9317346572875976e-05, 4.47265625) (-2.7217063903808593e-05, 4.474609375) (-2.500125503540039e-05, 4.4765625) (-2.266331100463867e-05, 4.478515625) (-2.0197460174560546e-05, 4.48046875) (-1.7598201751708984e-05, 4.482421875) (-1.4861017227172851e-05, 4.484375) (-1.1982555389404297e-05, 4.486328125) (-8.959505081176758e-06, 4.48828125) (-5.78925371170044e-06, 4.490234375) (-2.4715611934661865e-06, 4.4921875) (9.918819665908813e-07, 4.494140625) (4.5978484153747556e-06, 4.49609375) (8.341413497924805e-06, 4.498046875) (1.2216691970825194e-05, 4.5) (1.621668243408203e-05, 4.501953125) (2.0332515716552733e-05, 4.50390625) (2.4553676605224607e-05, 4.505859375) (2.8868534088134764e-05, 4.5078125) (3.32642593383789e-05, 4.509765625) (3.772685623168945e-05, 4.51171875) (4.224109268188476e-05, 4.513671875) (4.679007720947265e-05, 4.515625) (5.1355438232421873e-05, 4.517578125) (5.591789245605468e-05, 4.51953125) (6.04574966430664e-05, 4.521484375) (6.495352172851563e-05, 4.5234375) (6.938458251953125e-05, 4.525390625) (7.372872924804687e-05, 4.52734375) (7.796371459960937e-05, 4.529296875) (8.206756591796875e-05, 4.53125) (8.601885986328125e-05, 4.533203125) (8.979663848876952e-05, 4.53515625) (9.338053894042968e-05, 4.537109375) (9.675077819824218e-05, 4.5390625) (9.988838958740234e-05, 4.541015625) (0.00010277552795410156, 4.54296875) (0.00010539556121826171, 4.544921875) (0.00010773300170898437, 4.546875) (0.0001097736587524414, 4.548828125) (0.00011150458526611328, 4.55078125) (0.00011291432189941406, 4.552734375) (0.00011399333190917968, 4.5546875) (0.00011473395538330078, 4.556640625) (0.00011513045501708983, 4.55859375) (0.00011517897033691405, 4.560546875) (0.00011487750244140625, 4.5625) (0.00011422577667236328, 4.564453125) (0.00011322561645507812, 4.56640625) (0.00011188067626953124, 4.568359375) (0.00011019645690917968, 4.5703125) (0.00010818016815185546, 4.572265625) (0.00010584078979492188, 4.57421875) (0.00010318901062011719, 4.576171875) (0.00010023735809326172, 4.578125) (9.700019073486327e-05, 4.580078125) (9.349342346191406e-05, 4.58203125) (8.973445129394531e-05, 4.583984375) (8.574198913574219e-05, 4.5859375) (8.153587341308594e-05, 4.587890625) (7.713690948486328e-05, 4.58984375) (7.256669616699219e-05, 4.591796875) (6.784730529785156e-05, 4.59375) (6.300114822387695e-05, 4.595703125) (5.8050724029541015e-05, 4.59765625) (5.301852416992187e-05, 4.599609375) (4.792693710327148e-05, 4.6015625) (4.2798095703124996e-05, 4.603515625) (3.765374374389648e-05, 4.60546875) (3.251506042480469e-05, 4.607421875) (2.7402557373046873e-05, 4.609375) (2.2335954666137696e-05, 4.611328125) (1.7334077835083007e-05, 4.61328125) (1.2414793014526367e-05, 4.615234375) (7.594829559326172e-06, 4.6171875) (2.88971471786499e-06, 4.619140625) (-1.686274528503418e-06, 4.62109375) (-6.120148658752441e-06, 4.623046875) (-1.0400183677673339e-05, 4.625) (-1.4515930175781249e-05, 4.626953125) (-1.845827102661133e-05, 4.62890625) (-2.2219444274902344e-05, 4.630859375) (-2.579307174682617e-05, 4.6328125) (-2.9174163818359372e-05, 4.634765625) (-3.2359123229980466e-05, 4.63671875) (-3.5345726013183594e-05, 4.638671875) (-3.81331672668457e-05, 4.640625) (-4.0722015380859374e-05, 4.642578125) (-4.311416244506836e-05, 4.64453125) (-4.5312740325927734e-05, 4.646484375) (-4.732199478149414e-05, 4.6484375) (-4.9147129058837885e-05, 4.650390625) (-5.0794288635253904e-05, 4.65234375) (-5.22703742980957e-05, 4.654296875) (-5.358296966552734e-05, 4.65625) (-5.47402114868164e-05, 4.658203125) (-5.575061798095703e-05, 4.66015625) (-5.6623031616210934e-05, 4.662109375) (-5.7366504669189454e-05, 4.6640625) (-5.7990226745605465e-05, 4.666015625) (-5.850340270996094e-05, 4.66796875) (-5.89151382446289e-05, 4.669921875) (-5.923434066772461e-05, 4.671875) (-5.946961212158203e-05, 4.673828125) (-5.962926864624023e-05, 4.67578125) (-5.972124481201171e-05, 4.677734375) (-5.975309753417968e-05, 4.6796875) (-5.973198699951172e-05, 4.681640625) (-5.966460418701172e-05, 4.68359375) (-5.955722045898437e-05, 4.685546875) (-5.941568374633789e-05, 4.6875) (-5.9245433807373046e-05, 4.689453125) (-5.905147171020508e-05, 4.69140625) (-5.8838310241699214e-05, 4.693359375) (-5.8609928131103515e-05, 4.6953125) (-5.8369785308837886e-05, 4.697265625) (-5.812082290649414e-05, 4.69921875) (-5.786552810668945e-05, 4.701171875) (-5.7605915069580075e-05, 4.703125) (-5.7343544006347656e-05, 4.705078125) (-5.707954788208008e-05, 4.70703125) (-5.6814697265625e-05, 4.708984375) (-5.654944610595703e-05, 4.7109375) (-5.6284057617187495e-05, 4.712890625) (-5.601853942871093e-05, 4.71484375) (-5.575272750854492e-05, 4.716796875) (-5.548626708984375e-05, 4.71875) (-5.5218666076660155e-05, 4.720703125) (-5.4949424743652344e-05, 4.72265625) (-5.4678077697753905e-05, 4.724609375) (-5.440423583984375e-05, 4.7265625) (-5.4127655029296874e-05, 4.728515625) (-5.38482437133789e-05, 4.73046875) (-5.356610870361328e-05, 4.732421875) (-5.3281669616699214e-05, 4.734375) (-5.299568176269531e-05, 4.736328125) (-5.270915603637695e-05, 4.73828125) (-5.24233169555664e-05, 4.740234375) (-5.213953399658203e-05, 4.7421875) (-5.185927581787109e-05, 4.744140625) (-5.158418655395508e-05, 4.74609375) (-5.131609344482421e-05, 4.748046875) (-5.105686950683594e-05, 4.75) (-5.0808475494384764e-05, 4.751953125) (-5.05728874206543e-05, 4.75390625) (-5.0352191925048826e-05, 4.755859375) (-5.014861297607422e-05, 4.7578125) (-4.9964584350585936e-05, 4.759765625) (-4.9802555084228516e-05, 4.76171875) (-4.9664920806884765e-05, 4.763671875) (-4.9553985595703126e-05, 4.765625) (-4.94719123840332e-05, 4.767578125) (-4.942083740234375e-05, 4.76953125) (-4.9402862548828124e-05, 4.771484375) (-4.941993331909179e-05, 4.7734375) (-4.9473785400390624e-05, 4.775390625) (-4.9565944671630855e-05, 4.77734375) (-4.96977310180664e-05, 4.779296875) (-4.987040710449219e-05, 4.78125) (-5.008522796630859e-05, 4.783203125) (-5.034310150146484e-05, 4.78515625) (-5.064456939697265e-05, 4.787109375) (-5.0989738464355464e-05, 4.7890625) (-5.137823486328125e-05, 4.791015625) (-5.180940246582031e-05, 4.79296875) (-5.228237533569336e-05, 4.794921875) (-5.279572296142578e-05, 4.796875) (-5.334742736816406e-05, 4.798828125) (-5.3935111999511713e-05, 4.80078125) (-5.455607604980468e-05, 4.802734375) (-5.5207557678222654e-05, 4.8046875) (-5.588685607910156e-05, 4.806640625) (-5.659097290039062e-05, 4.80859375) (-5.731648254394531e-05, 4.810546875) (-5.805982208251953e-05, 4.8125) (-5.881727981567383e-05, 4.814453125) (-5.958501434326172e-05, 4.81640625) (-6.035919952392578e-05, 4.818359375) (-6.113563537597655e-05, 4.8203125) (-6.190956497192382e-05, 4.822265625) (-6.26761474609375e-05, 4.82421875) (-6.343059539794921e-05, 4.826171875) (-6.416831970214843e-05, 4.828125) (-6.488512420654297e-05, 4.830078125) (-6.557662963867187e-05, 4.83203125) (-6.623816680908203e-05, 4.833984375) (-6.68650665283203e-05, 4.8359375) (-6.745278930664063e-05, 4.837890625) (-6.799705505371093e-05, 4.83984375) (-6.849386596679687e-05, 4.841796875) (-6.893888092041015e-05, 4.84375) (-6.93272705078125e-05, 4.845703125) (-6.965456390380858e-05, 4.84765625) (-6.991677856445313e-05, 4.849609375) (-7.011048889160156e-05, 4.8515625) (-7.023302459716796e-05, 4.853515625) (-7.028153991699218e-05, 4.85546875) (-7.025294494628905e-05, 4.857421875) (-7.014492797851562e-05, 4.859375) (-6.995626068115234e-05, 4.861328125) (-6.968614196777343e-05, 4.86328125) (-6.933436584472655e-05, 4.865234375) (-6.890077972412109e-05, 4.8671875) (-6.838462829589844e-05, 4.869140625) (-6.77861328125e-05, 4.87109375) (-6.710689544677735e-05, 4.873046875) (-6.634880065917969e-05, 4.875) (-6.551420593261719e-05, 4.876953125) (-6.460598754882812e-05, 4.87890625) (-6.36269760131836e-05, 4.880859375) (-6.258162689208984e-05, 4.8828125) (-6.147692489624024e-05, 4.884765625) (-6.03204345703125e-05, 4.88671875) (-5.911999893188476e-05, 4.888671875) (-5.7883914947509766e-05, 4.890625) (-5.6620033264160154e-05, 4.892578125) (-5.533683013916015e-05, 4.89453125) (-5.404399490356445e-05, 4.896484375) (-5.2750011444091797e-05, 4.8984375) (-5.146167373657226e-05, 4.900390625) (-5.018537139892578e-05, 4.90234375) (-4.8926525115966795e-05, 4.904296875) (-4.769247055053711e-05, 4.90625) (-4.64935188293457e-05, 4.908203125) (-4.533968353271484e-05, 4.91015625) (-4.424103546142578e-05, 4.912109375) (-4.320745849609375e-05, 4.9140625) (-4.224736404418945e-05, 4.916015625) (-4.137019729614258e-05, 4.91796875) (-4.0587112426757814e-05, 4.919921875) (-3.9903678894042966e-05, 4.921875) (-3.931958770751953e-05, 4.923828125) (-3.8836097717285156e-05, 4.92578125) (-3.845444107055664e-05, 4.927734375) (-3.81827392578125e-05, 4.9296875) (-3.803824996948242e-05, 4.931640625) (-3.803343963623047e-05, 4.93359375) (-3.8175304412841796e-05, 4.935546875) (-3.846977996826172e-05, 4.9375) (-3.891964721679687e-05, 4.939453125) (-3.952019119262695e-05, 4.94140625) (-4.0259243011474606e-05, 4.943359375) (-4.110953521728515e-05, 4.9453125) (-4.20275650024414e-05, 4.947265625) (-4.297174835205078e-05, 4.94921875) (-4.390298080444336e-05, 4.951171875) (-4.4793170928955075e-05, 4.953125) (-4.562690734863281e-05, 4.955078125) (-4.637957763671875e-05, 4.95703125) (-4.7019256591796874e-05, 4.958984375) (-4.7505126953125e-05, 4.9609375) (-4.779096984863281e-05, 4.962890625) (-4.784487152099609e-05, 4.96484375) (-4.765039825439453e-05, 4.966796875) (-4.7186752319335936e-05, 4.96875) (-4.64267578125e-05, 4.970703125) (-4.538195037841797e-05, 4.97265625) (-4.4106903076171875e-05, 4.974609375) (-4.269703674316406e-05, 4.9765625) (-4.1290153503417964e-05, 4.978515625) (-3.99897232055664e-05, 4.98046875) (-3.8852573394775386e-05, 4.982421875) (-3.7944023132324216e-05, 4.984375) (-3.734941101074219e-05, 4.986328125) (-3.71713638305664e-05, 4.98828125) (-3.753976058959961e-05, 4.990234375) (-3.8570873260498044e-05, 4.9921875) (-4.030226135253906e-05, 4.994140625) (-4.281648635864257e-05, 4.99609375) (-4.6257438659667964e-05, 4.998046875) (-5.06376838684082e-05, 5.0) (-5.587610244750976e-05, 5.001953125) (-6.163979721069336e-05, 5.00390625) (-6.72347183227539e-05, 5.005859375) (-7.199474334716796e-05, 5.0078125) (-7.54248046875e-05, 5.009765625) (-7.696913146972656e-05, 5.01171875) (-7.614412689208983e-05, 5.013671875) (-7.289889526367188e-05, 5.015625) (-6.737716674804688e-05, 5.017578125) (-6.040786743164062e-05, 5.01953125) (-5.368810653686523e-05, 5.021484375) (-4.858644104003906e-05, 5.0234375) (-4.6165287017822265e-05, 5.025390625) (-4.7452804565429687e-05, 5.02734375) (-5.2767860412597654e-05, 5.029296875) (-6.147360229492188e-05, 5.03125) (-7.240141296386719e-05, 5.033203125) (-8.285980224609375e-05, 5.03515625) (-8.867200469970702e-05, 5.037109375) (-8.633592987060546e-05, 5.0390625) (-7.240138244628906e-05, 5.041015625) (-4.323016357421875e-05, 5.04296875) (2.9652061462402343e-06, 5.044921875) (6.627208709716797e-05, 5.046875) (0.00014596563720703124, 5.048828125) (0.00023711459350585936, 5.05078125) (0.00033249957275390625, 5.052734375) (0.0004274536743164062, 5.0546875) (0.000514690185546875, 5.056640625) (0.000588789794921875, 5.05859375) (0.0006481777954101562, 5.060546875) (0.0006862535400390625, 5.0625) (0.0006988133544921875, 5.064453125) (0.0006826593627929687, 5.06640625) (0.00062993896484375, 5.068359375) (0.0005391331787109374, 5.0703125) (0.00041515100097656247, 5.072265625) (0.00026825042724609374, 5.07421875) (0.00012151912689208984, 5.076171875) (5.67605972290039e-07, 5.078125) (-8.032159423828124e-05, 5.080078125) (-0.00011484374237060546, 5.08203125) (-0.00011165352630615234, 5.083984375) (-9.009192657470703e-05, 5.0859375) (-5.917808532714843e-05, 5.087890625) (-2.7787624359130857e-05, 5.08984375) (-2.6494197845458985e-06, 5.091796875) (1.7800006866455076e-05, 5.09375) (2.6281980514526364e-05, 5.095703125) (2.0942096710205078e-05, 5.09765625) (9.357278823852538e-06, 5.099609375) (-5.319791316986084e-06, 5.1015625) (-1.5644290924072265e-05, 5.103515625) (-1.804923629760742e-05, 5.10546875) (-1.8191333770751952e-05, 5.107421875) (-1.8345756530761717e-05, 5.109375) (-1.978455924987793e-05, 5.111328125) (-2.2974849700927732e-05, 5.11328125) (-2.471114921569824e-05, 5.115234375) (-2.3718467712402342e-05, 5.1171875) (-2.081184959411621e-05, 5.119140625) (-1.6631187438964842e-05, 5.12109375) (-1.2223515510559082e-05, 5.123046875) (-8.389098167419433e-06, 5.125) (-5.332183837890625e-06, 5.126953125) (-3.1966476440429688e-06, 5.12890625) (-2.1730549335479735e-06, 5.130859375) (-2.231821537017822e-06, 5.1328125) (-3.1373000144958496e-06, 5.134765625) (-4.734691619873047e-06, 5.13671875) (-6.893122673034668e-06, 5.138671875) (-9.462493896484374e-06, 5.140625) (-1.2349512100219726e-05, 5.142578125) (-1.5428406715393066e-05, 5.14453125) (-1.8544189453125e-05, 5.146484375) (-2.1582109451293946e-05, 5.1484375) (-2.443793487548828e-05, 5.150390625) (-2.7015575408935544e-05, 5.15234375) (-2.924421691894531e-05, 5.154296875) (-3.106728744506836e-05, 5.15625) (-3.2452472686767576e-05, 5.158203125) (-3.33980598449707e-05, 5.16015625) (-3.39080810546875e-05, 5.162109375) (-3.400292205810547e-05, 5.1640625) (-3.372418975830078e-05, 5.166015625) (-3.310730743408203e-05, 5.16796875) (-3.2195602416992185e-05, 5.169921875) (-3.103102302551269e-05, 5.171875) (-2.9642391204833984e-05, 5.173828125) (-2.8074756622314453e-05, 5.17578125) (-2.6381141662597655e-05, 5.177734375) (-2.4618148803710938e-05, 5.1796875) (-2.2852346420288086e-05, 5.181640625) (-2.1133771896362304e-05, 5.18359375) (-1.9492414474487303e-05, 5.185546875) (-1.7953342437744138e-05, 5.1875) (-1.653221130371094e-05, 5.189453125) (-1.5233264923095703e-05, 5.19140625) (-1.4058480262756347e-05, 5.193359375) (-1.2998126983642578e-05, 5.1953125) (-1.2028976440429688e-05, 5.197265625) (-1.1134309768676757e-05, 5.19921875) (-1.0300716400146484e-05, 5.201171875) (-9.514843940734863e-06, 5.203125) (-8.767898559570311e-06, 5.205078125) (-8.046110153198241e-06, 5.20703125) (-7.329869270324706e-06, 5.208984375) (-6.599965572357177e-06, 5.2109375) (-5.837347984313964e-06, 5.212890625) (-5.024077892303466e-06, 5.21484375) (-4.1449556350708e-06, 5.216796875) (-3.1847043037414548e-06, 5.21875) (-2.1275460720062255e-06, 5.220703125) (-9.606504440307617e-07, 5.22265625) (3.2658654451370237e-07, 5.224609375) (1.7424081563949583e-06, 5.2265625) (3.2924928665161133e-06, 5.228515625) (4.984199523925781e-06, 5.23046875) (6.826332092285156e-06, 5.232421875) (8.826932907104491e-06, 5.234375) (1.0993501663208007e-05, 5.236328125) (1.333243179321289e-05, 5.23828125) (1.584870719909668e-05, 5.240234375) (1.8547077178955078e-05, 5.2421875) (2.1431970596313477e-05, 5.244140625) (2.450557518005371e-05, 5.24609375) (2.776789093017578e-05, 5.248046875) (3.1217262268066405e-05, 5.25) (3.4850181579589845e-05, 5.251953125) (3.866181564331054e-05, 5.25390625) (4.2646141052246094e-05, 5.255859375) (4.6795223236083985e-05, 5.2578125) (5.1099090576171875e-05, 5.259765625) (5.554619979858398e-05, 5.26171875) (6.0123565673828126e-05, 5.263671875) (6.481668853759765e-05, 5.265625) (6.960977935791015e-05, 5.267578125) (7.448565673828125e-05, 5.26953125) (7.942554473876953e-05, 5.271484375) (8.440953826904297e-05, 5.2734375) (8.941696166992188e-05, 5.275390625) (9.442628479003905e-05, 5.27734375) (9.941543579101562e-05, 5.279296875) (0.0001043617935180664, 5.28125) (0.00010924227905273437, 5.283203125) (0.00011403378295898437, 5.28515625) (0.00011871347045898436, 5.287109375) (0.00012325875091552733, 5.2890625) (0.00012764747619628905, 5.291015625) (0.00013185794067382812, 5.29296875) (0.00013586892700195313, 5.294921875) (0.00013965992736816404, 5.296875) (0.00014321133422851563, 5.298828125) (0.00014650418090820312, 5.30078125) (0.00014952056884765625, 5.302734375) (0.00015224333190917968, 5.3046875) (0.00015465634155273437, 5.306640625) (0.0001567447967529297, 5.30859375) (0.000158495361328125, 5.310546875) (0.00015989617919921875, 5.3125) (0.00016093707275390625, 5.314453125) (0.00016160955810546874, 5.31640625) (0.00016190695190429686, 5.318359375) (0.00016182449340820313, 5.3203125) (0.00016135949707031248, 5.322265625) (0.00016051112365722656, 5.32421875) (0.00015928060913085937, 5.326171875) (0.000157671142578125, 5.328125) (0.00015568786621093748, 5.330078125) (0.00015333781433105468, 5.33203125) (0.00015063000488281248, 5.333984375) (0.00014757524108886718, 5.3359375) (0.0001441861114501953, 5.337890625) (0.00014047689819335937, 5.33984375) (0.00013646334838867186, 5.341796875) (0.00013216259765625, 5.34375) (0.00012759304809570313, 5.345703125) (0.0001227741470336914, 5.34765625) (0.00011772622680664062, 5.349609375) (0.00011247042846679687, 5.3515625) (0.00010702845764160155, 5.353515625) (0.00010142251586914062, 5.35546875) (9.567511749267578e-05, 5.357421875) (8.980912017822265e-05, 5.359375) (8.384764099121093e-05, 5.361328125) (7.781401062011718e-05, 5.36328125) (7.173163604736328e-05, 5.365234375) (6.562393951416016e-05, 5.3671875) (5.95142822265625e-05, 5.369140625) (5.342580032348633e-05, 5.37109375) (4.738131713867187e-05, 5.373046875) (4.1403182983398436e-05, 5.375) (3.55130386352539e-05, 5.376953125) (2.9731651306152342e-05, 5.37890625) (2.4078750610351563e-05, 5.380859375) (1.8572933197021483e-05, 5.3828125) (1.3231549263000487e-05, 5.384765625) (8.070640563964843e-06, 5.38671875) (3.1047768592834472e-06, 5.388671875) (-1.6530033349990844e-06, 5.390625) (-6.191222667694091e-06, 5.392578125) (-1.0499982833862303e-05, 5.39453125) (-1.457097816467285e-05, 5.396484375) (-1.839755058288574e-05, 5.3984375) (-2.1974746704101563e-05, 5.400390625) (-2.529933166503906e-05, 5.40234375) (-2.8369712829589842e-05, 5.404296875) (-3.1185876846313474e-05, 5.40625) (-3.3749256134033205e-05, 5.408203125) (-3.6062667846679686e-05, 5.41015625) (-3.813021850585937e-05, 5.412109375) (-3.9957199096679685e-05, 5.4140625) (-4.15499038696289e-05, 5.416015625) (-4.2915519714355466e-05, 5.41796875) (-4.406202697753906e-05, 5.419921875) (-4.499818420410156e-05, 5.421875) (-4.573351287841797e-05, 5.423828125) (-4.6278278350830076e-05, 5.42578125) (-4.664344024658203e-05, 5.427734375) (-4.6840553283691403e-05, 5.4296875) (-4.6881736755371094e-05, 5.431640625) (-4.677957153320312e-05, 5.43359375) (-4.654706954956054e-05, 5.435546875) (-4.619749069213867e-05, 5.4375) (-4.574420928955078e-05, 5.439453125) (-4.520048522949219e-05, 5.44140625) (-4.4579399108886715e-05, 5.443359375) (-4.3893722534179685e-05, 5.4453125) (-4.31558837890625e-05, 5.447265625) (-4.2377880096435546e-05, 5.44921875) (-4.1571178436279294e-05, 5.451171875) (-4.074664688110351e-05, 5.453125) (-3.991452026367187e-05, 5.455078125) (-3.9084365844726564e-05, 5.45703125) (-3.826502227783203e-05, 5.458984375) (-3.746453094482422e-05, 5.4609375) (-3.668999481201172e-05, 5.462890625) (-3.594751739501953e-05, 5.46484375) (-3.5242218017578124e-05, 5.466796875) (-3.4578239440917966e-05, 5.46875) (-3.3958808898925776e-05, 5.470703125) (-3.338628005981445e-05, 5.47265625) (-3.28621826171875e-05, 5.474609375) (-3.238735198974609e-05, 5.4765625) (-3.1962028503417966e-05, 5.478515625) (-3.158599090576172e-05, 5.48046875) (-3.125859451293945e-05, 5.482421875) (-3.097878837585449e-05, 5.484375) (-3.074507141113281e-05, 5.486328125) (-3.0555500030517576e-05, 5.48828125) (-3.0407747268676756e-05, 5.490234375) (-3.029910659790039e-05, 5.4921875) (-3.0226491928100585e-05, 5.494140625) (-3.0186479568481445e-05, 5.49609375) (-3.0175331115722655e-05, 5.498046875) (-3.01890754699707e-05, 5.5) (-3.022370719909668e-05, 5.501953125) (-3.0275272369384764e-05, 5.50390625) (-3.0339893341064452e-05, 5.505859375) (-3.041378402709961e-05, 5.5078125) (-3.04932746887207e-05, 5.509765625) (-3.0574813842773435e-05, 5.51171875) (-3.0655055999755855e-05, 5.513671875) (-3.073090744018555e-05, 5.515625) (-3.079937744140625e-05, 5.517578125) (-3.0857616424560545e-05, 5.51953125) (-3.0902957916259765e-05, 5.521484375) (-3.093303489685058e-05, 5.5234375) (-3.094597053527832e-05, 5.525390625) (-3.0940433502197266e-05, 5.52734375) (-3.091557502746582e-05, 5.529296875) (-3.087105560302734e-05, 5.53125) (-3.080699920654297e-05, 5.533203125) (-3.072404479980469e-05, 5.53515625) (-3.062334442138672e-05, 5.537109375) (-3.0506383895874022e-05, 5.5390625) (-3.0374767303466795e-05, 5.541015625) (-3.023016357421875e-05, 5.54296875) (-3.0074258804321287e-05, 5.544921875) (-2.990878105163574e-05, 5.546875) (-2.9735662460327147e-05, 5.548828125) (-2.9556922912597656e-05, 5.55078125) (-2.9374486923217774e-05, 5.552734375) (-2.919026184082031e-05, 5.5546875) (-2.900619888305664e-05, 5.556640625) (-2.882429504394531e-05, 5.55859375) (-2.8646667480468747e-05, 5.560546875) (-2.847547149658203e-05, 5.5625) (-2.8312477111816403e-05, 5.564453125) (-2.8159048080444336e-05, 5.56640625) (-2.8016273498535154e-05, 5.568359375) (-2.788503646850586e-05, 5.5703125) (-2.7766029357910154e-05, 5.572265625) (-2.7659725189208984e-05, 5.57421875) (-2.7566104888916014e-05, 5.576171875) (-2.7484622955322265e-05, 5.578125) (-2.7414703369140623e-05, 5.580078125) (-2.735586166381836e-05, 5.58203125) (-2.7307670593261718e-05, 5.583984375) (-2.7269529342651366e-05, 5.5859375) (-2.724024963378906e-05, 5.587890625) (-2.7218145370483398e-05, 5.58984375) (-2.7201263427734375e-05, 5.591796875) (-2.7187435150146482e-05, 5.59375) (-2.717425727844238e-05, 5.595703125) (-2.715882110595703e-05, 5.59765625) (-2.7137462615966796e-05, 5.599609375) (-2.710626220703125e-05, 5.6015625) (-2.706145477294922e-05, 5.603515625) (-2.6999435424804686e-05, 5.60546875) (-2.6916841506958006e-05, 5.607421875) (-2.681031036376953e-05, 5.609375) (-2.6676130294799804e-05, 5.611328125) (-2.651076126098633e-05, 5.61328125) (-2.6311397552490232e-05, 5.615234375) (-2.6075746536254883e-05, 5.6171875) (-2.5801828384399412e-05, 5.619140625) (-2.5487806320190428e-05, 5.62109375) (-2.5131786346435544e-05, 5.623046875) (-2.473215866088867e-05, 5.625) (-2.4288333892822264e-05, 5.626953125) (-2.3800846099853516e-05, 5.62890625) (-2.3270633697509766e-05, 5.630859375) (-2.269863700866699e-05, 5.6328125) (-2.208662223815918e-05, 5.634765625) (-2.143750762939453e-05, 5.63671875) (-2.0756080627441405e-05, 5.638671875) (-2.0049430847167968e-05, 5.640625) (-1.932514953613281e-05, 5.642578125) (-1.8590330123901367e-05, 5.64453125) (-1.785251235961914e-05, 5.646484375) (-1.712021255493164e-05, 5.6484375) (-1.6402141571044923e-05, 5.650390625) (-1.5707304954528806e-05, 5.65234375) (-1.5043066978454588e-05, 5.654296875) (-1.4413784027099608e-05, 5.65625) (-1.3824426651000975e-05, 5.658203125) (-1.3281712532043456e-05, 5.66015625) (-1.2794378280639648e-05, 5.662109375) (-1.2373310089111328e-05, 5.6640625) (-1.2028188705444336e-05, 5.666015625) (-1.1766444206237793e-05, 5.66796875) (-1.1596107482910156e-05, 5.669921875) (-1.1525866508483886e-05, 5.671875) (-1.1562993049621582e-05, 5.673828125) (-1.1714032173156737e-05, 5.67578125) (-1.197915267944336e-05, 5.677734375) (-1.2352184295654297e-05, 5.6796875) (-1.2832546234130859e-05, 5.681640625) (-1.3423095703124999e-05, 5.68359375) (-1.4132085800170897e-05, 5.685546875) (-1.4977593421936035e-05, 5.6875) (-1.5971460342407226e-05, 5.689453125) (-1.7118133544921874e-05, 5.69140625) (-1.8423017501831052e-05, 5.693359375) (-1.9885339736938475e-05, 5.6953125) (-2.1497032165527343e-05, 5.697265625) (-2.324811553955078e-05, 5.69921875) (-2.511226463317871e-05, 5.701171875) (-2.7047164916992186e-05, 5.703125) (-2.9019943237304687e-05, 5.705078125) (-3.1000846862792967e-05, 5.70703125) (-3.2969013214111326e-05, 5.708984375) (-3.491709518432617e-05, 5.7109375) (-3.6816535949707027e-05, 5.712890625) (-3.862800979614258e-05, 5.71484375) (-4.031277847290039e-05, 5.716796875) (-4.1818588256835935e-05, 5.71875) (-4.310565948486328e-05, 5.720703125) (-4.4144855499267574e-05, 5.72265625) (-4.4897758483886715e-05, 5.724609375) (-4.5347625732421876e-05, 5.7265625) (-4.5510673522949215e-05, 5.728515625) (-4.5417430877685544e-05, 5.73046875) (-4.512470245361328e-05, 5.732421875) (-4.4699203491210936e-05, 5.734375) (-4.418667602539062e-05, 5.736328125) (-4.3650932312011715e-05, 5.73828125) (-4.3165306091308594e-05, 5.740234375) (-4.280165863037109e-05, 5.7421875) (-4.267679977416992e-05, 5.744140625) (-4.2880790710449214e-05, 5.74609375) (-4.352433776855469e-05, 5.748046875) (-4.48075942993164e-05, 5.75) (-4.6794273376464843e-05, 5.751953125) (-4.94196548461914e-05, 5.75390625) (-5.251849365234375e-05, 5.755859375) (-5.563190460205078e-05, 5.7578125) (-5.8232017517089844e-05, 5.759765625) (-5.9957557678222654e-05, 5.76171875) (-6.028336334228515e-05, 5.763671875) (-5.861043548583984e-05, 5.765625) (-5.492499542236328e-05, 5.767578125) (-4.952851104736328e-05, 5.76953125) (-4.3173332214355467e-05, 5.771484375) (-3.7493461608886716e-05, 5.7734375) (-3.388184356689453e-05, 5.775390625) (-3.325380325317383e-05, 5.77734375) (-3.679323959350586e-05, 5.779296875) (-4.528742980957031e-05, 5.78125) (-5.823843383789062e-05, 5.783203125) (-7.443272399902343e-05, 5.78515625) (-9.140931701660156e-05, 5.787109375) (-0.00010506649780273436, 5.7890625) (-0.00011183618164062499, 5.791015625) (-0.00010862819671630858, 5.79296875) (-9.193812561035156e-05, 5.794921875) (-5.926595306396484e-05, 5.796875) (-9.864757537841796e-06, 5.798828125) (5.571581268310547e-05, 5.80078125) (0.00013474668884277344, 5.802734375) (0.00022213375854492187, 5.8046875) (0.00031267276000976563, 5.806640625) (0.0004006720581054687, 5.80859375) (0.00047941766357421873, 5.810546875) (0.0005428565673828125, 5.8125) (0.0005860579833984375, 5.814453125) (0.00060536767578125, 5.81640625) (0.0005991990966796875, 5.818359375) (0.0005682584838867188, 5.8203125) (0.0005146324462890625, 5.822265625) (0.00044214056396484373, 5.82421875) (0.00035634228515625, 5.826171875) (0.00026340728759765626, 5.828125) (0.00016977902221679687, 5.830078125) (8.149649810791015e-05, 5.83203125) (3.951541900634766e-06, 5.833984375) (-5.8625709533691406e-05, 5.8359375) (-0.00010391665649414062, 5.837890625) (-0.00013152444458007812, 5.83984375) (-0.00014270143127441406, 5.841796875) (-0.00014000698852539061, 5.84375) (-0.00012686785125732422, 5.845703125) (-0.00010693856048583984, 5.84765625) (-8.437991333007813e-05, 5.849609375) (-6.322596740722656e-05, 5.8515625) (-4.600618743896484e-05, 5.853515625) (-3.399683380126953e-05, 5.85546875) (-2.7515607833862304e-05, 5.857421875) (-2.593033790588379e-05, 5.859375) (-2.8198200225830077e-05, 5.861328125) (-3.3151866912841794e-05, 5.86328125) (-3.9089111328125e-05, 5.865234375) (-4.420199966430664e-05, 5.8671875) (-4.754534530639648e-05, 5.869140625) (-4.8811561584472654e-05, 5.87109375) (-4.813135910034179e-05, 5.873046875) (-4.604836654663086e-05, 5.875) (-4.307390594482422e-05, 5.876953125) (-3.9636459350585934e-05, 5.87890625) (-3.636151885986328e-05, 5.880859375) (-3.39088134765625e-05, 5.8828125) (-3.260359954833984e-05, 5.884765625) (-3.25262222290039e-05, 5.88671875) (-3.355984497070312e-05, 5.888671875) (-3.541918182373047e-05, 5.890625) (-3.7891040802001955e-05, 5.892578125) (-4.082612609863281e-05, 5.89453125) (-4.402103805541992e-05, 5.896484375) (-4.725855255126953e-05, 5.8984375) (-5.0357944488525386e-05, 5.900390625) (-5.315594100952148e-05, 5.90234375) (-5.5554584503173825e-05, 5.904296875) (-5.752584075927734e-05, 5.90625) (-5.9035514831542963e-05, 5.908203125) (-6.0053955078124994e-05, 5.91015625) (-6.056988525390625e-05, 5.912109375) (-6.0575447082519527e-05, 5.9140625) (-6.008750915527343e-05, 5.916015625) (-5.915242767333984e-05, 5.91796875) (-5.7821735382080074e-05, 5.919921875) (-5.6146476745605464e-05, 5.921875) (-5.4177371978759765e-05, 5.923828125) (-5.195909881591797e-05, 5.92578125) (-4.9541282653808595e-05, 5.927734375) (-4.698236846923828e-05, 5.9296875) (-4.4346637725830076e-05, 5.931640625) (-4.1701332092285155e-05, 5.93359375) (-3.9098121643066406e-05, 5.935546875) (-3.657113647460937e-05, 5.9375) (-3.4146270751953126e-05, 5.939453125) (-3.18413028717041e-05, 5.94140625) (-2.9669830322265625e-05, 5.943359375) (-2.7641910552978515e-05, 5.9453125) (-2.5755245208740235e-05, 5.947265625) (-2.3995681762695313e-05, 5.94921875) (-2.2349267959594725e-05, 5.951171875) (-2.0804155349731444e-05, 5.953125) (-1.9350957870483397e-05, 5.955078125) (-1.798307418823242e-05, 5.95703125) (-1.668940734863281e-05, 5.958984375) (-1.5454395294189452e-05, 5.9609375) (-1.4260778427124023e-05, 5.962890625) (-1.3090845108032225e-05, 5.96484375) (-1.193012809753418e-05, 5.966796875) (-1.076643943786621e-05, 5.96875) (-9.587149620056152e-06, 5.970703125) (-8.379612922668456e-06, 5.97265625) (-7.131953716278076e-06, 5.974609375) (-5.833386421203613e-06, 5.9765625) (-4.476151466369629e-06, 5.978515625) (-3.054612636566162e-06, 5.98046875) (-1.5610861778259278e-06, 5.982421875) (1.3611912727355956e-08, 5.984375) (1.6789631843566894e-06, 5.986328125) (3.4445695877075193e-06, 5.98828125) (5.318423748016357e-06, 5.990234375) (7.3071703910827635e-06, 5.9921875) (9.417540550231934e-06, 5.994140625) (1.1655902862548827e-05, 5.99609375) (1.4026899337768554e-05, 5.998046875) (1.653338623046875e-05, 6.0) (1.9176382064819334e-05, 6.001953125) (2.1955217361450195e-05, 6.00390625) (2.486844253540039e-05, 6.005859375) (2.791355514526367e-05, 6.0078125) (3.1086524963378906e-05, 6.009765625) (3.438166046142578e-05, 6.01171875) (3.779150390625e-05, 6.013671875) (4.130706024169922e-05, 6.015625) (4.491807174682617e-05, 6.017578125) (4.861293029785156e-05, 6.01953125) (5.237857055664062e-05, 6.021484375) (5.620058059692383e-05, 6.0234375) (6.006315612792969e-05, 6.025390625) (6.394955444335937e-05, 6.02734375) (6.784254455566406e-05, 6.029296875) (7.172428894042968e-05, 6.03125) (7.557646179199219e-05, 6.033203125) (7.938027954101562e-05, 6.03515625) (8.31166763305664e-05, 6.037109375) (8.676658630371093e-05, 6.0390625) (9.031126403808593e-05, 6.041015625) (9.37322006225586e-05, 6.04296875) (9.701102447509765e-05, 6.044921875) (0.00010012966918945312, 6.046875) (0.00010307051849365234, 6.048828125) (0.00010581660461425781, 6.05078125) (0.00010835173034667968, 6.052734375) (0.00011066050720214843, 6.0546875) (0.00011272825622558594, 6.056640625) (0.00011454113006591797, 6.05859375) (0.00011608648681640625, 6.060546875) (0.00011735302734375, 6.0625) (0.00011833078002929686, 6.064453125) (0.00011901114654541015, 6.06640625) (0.00011938697814941406, 6.068359375) (0.00011945256042480469, 6.0703125) (0.00011920384216308594, 6.072265625) (0.00011863856506347656, 6.07421875) (0.00011775621795654297, 6.076171875) (0.00011655804443359374, 6.078125) (0.00011504702758789062, 6.080078125) (0.00011322784423828124, 6.08203125) (0.00011110695648193359, 6.083984375) (0.00010869253540039062, 6.0859375) (0.00010599442291259766, 6.087890625) (0.00010302388763427734, 6.08984375) (9.979348754882812e-05, 6.091796875) (9.631699371337891e-05, 6.09375) (9.260924530029297e-05, 6.095703125) (8.868608093261719e-05, 6.09765625) (8.456420135498047e-05, 6.099609375) (8.026099395751953e-05, 6.1015625) (7.57944107055664e-05, 6.103515625) (7.118286132812499e-05, 6.10546875) (6.644512939453124e-05, 6.107421875) (6.160037994384766e-05, 6.109375) (5.6667999267578126e-05, 6.111328125) (5.166749191284179e-05, 6.11328125) (4.661838912963867e-05, 6.115234375) (4.15401725769043e-05, 6.1171875) (3.6452217102050776e-05, 6.119140625) (3.137372398376465e-05, 6.12109375) (2.6323587417602538e-05, 6.123046875) (2.132027816772461e-05, 6.125) (1.6381729125976563e-05, 6.126953125) (1.152522087097168e-05, 6.12890625) (6.767287254333496e-06, 6.130859375) (2.123594284057617e-06, 6.1328125) (-2.3911993503570554e-06, 6.134765625) (-6.763583660125732e-06, 6.13671875) (-1.0981300354003906e-05, 6.138671875) (-1.5033437728881835e-05, 6.140625) (-1.8910499572753906e-05, 6.142578125) (-2.2604442596435544e-05, 6.14453125) (-2.6108741760253905e-05, 6.146484375) (-2.9418413162231443e-05, 6.1484375) (-3.252999877929687e-05, 6.150390625) (-3.54415283203125e-05, 6.15234375) (-3.8152465820312495e-05, 6.154296875) (-4.066360855102539e-05, 6.15625) (-4.2977062225341794e-05, 6.158203125) (-4.509616851806641e-05, 6.16015625) (-4.702538299560547e-05, 6.162109375) (-4.877020263671875e-05, 6.1640625) (-5.033706665039062e-05, 6.166015625) (-5.173323822021484e-05, 6.16796875) (-5.296674346923828e-05, 6.169921875) (-5.404631423950195e-05, 6.171875) (-5.498126983642578e-05, 6.173828125) (-5.578142929077148e-05, 6.17578125) (-5.645704650878906e-05, 6.177734375) (-5.701870346069336e-05, 6.1796875) (-5.747723770141601e-05, 6.181640625) (-5.784368515014648e-05, 6.18359375) (-5.8129188537597656e-05, 6.185546875) (-5.834490966796875e-05, 6.1875) (-5.850196838378906e-05, 6.189453125) (-5.8611301422119135e-05, 6.19140625) (-5.8683631896972654e-05, 6.193359375) (-5.872932434082031e-05, 6.1953125) (-5.875831604003906e-05, 6.197265625) (-5.877999114990234e-05, 6.19921875) (-5.8803077697753904e-05, 6.201171875) (-5.88355484008789e-05, 6.203125) (-5.8884513854980465e-05, 6.205078125) (-5.895618438720703e-05, 6.20703125) (-5.90557746887207e-05, 6.208984375) (-5.918746566772461e-05, 6.2109375) (-5.935435485839843e-05, 6.212890625) (-5.9558490753173824e-05, 6.21484375) (-5.980088806152344e-05, 6.216796875) (-6.0081542968749995e-05, 6.21875) (-6.039945983886718e-05, 6.220703125) (-6.075270843505859e-05, 6.22265625) (-6.11385154724121e-05, 6.224609375) (-6.155333709716797e-05, 6.2265625) (-6.199296569824218e-05, 6.228515625) (-6.245256805419921e-05, 6.23046875) (-6.292678833007812e-05, 6.232421875) (-6.340985488891601e-05, 6.234375) (-6.389567565917968e-05, 6.236328125) (-6.437796020507812e-05, 6.23828125) (-6.485031127929687e-05, 6.240234375) (-6.53062973022461e-05, 6.2421875) (-6.573954772949219e-05, 6.244140625) (-6.614379882812499e-05, 6.24609375) (-6.651300048828124e-05, 6.248046875) (-6.684134674072265e-05, 6.25) (-6.712335205078124e-05, 6.251953125) (-6.735394287109375e-05, 6.25390625) (-6.752839660644531e-05, 6.255859375) (-6.764245605468749e-05, 6.2578125) (-6.769233703613281e-05, 6.259765625) (-6.767488098144531e-05, 6.26171875) (-6.758757781982422e-05, 6.263671875) (-6.742864990234375e-05, 6.265625) (-6.719698333740233e-05, 6.267578125) (-6.689224243164062e-05, 6.26953125) (-6.651487731933593e-05, 6.271484375) (-6.606626129150391e-05, 6.2734375) (-6.554861450195312e-05, 6.275390625) (-6.496501159667968e-05, 6.27734375) (-6.431927490234375e-05, 6.279296875) (-6.361601257324218e-05, 6.28125) (-6.286061859130859e-05, 6.283203125) (-6.205921554565429e-05, 6.28515625) (-6.121852874755859e-05, 6.287109375) (-6.034577941894531e-05, 6.2890625) (-5.944851684570312e-05, 6.291015625) (-5.853458786010742e-05, 6.29296875) (-5.7612098693847653e-05, 6.294921875) (-5.668923950195312e-05, 6.296875) (-5.5774135589599605e-05, 6.298828125) (-5.4874740600585934e-05, 6.30078125) (-5.39986457824707e-05, 6.302734375) (-5.315303039550781e-05, 6.3046875) (-5.2344703674316406e-05, 6.306640625) (-5.157997894287109e-05, 6.30859375) (-5.0864627838134766e-05, 6.310546875) (-5.0203830718994136e-05, 6.3125) (-4.9601909637451167e-05, 6.314453125) (-4.9062328338623047e-05, 6.31640625) (-4.858792114257812e-05, 6.318359375) (-4.8180843353271485e-05, 6.3203125) (-4.7842433929443356e-05, 6.322265625) (-4.7573112487792965e-05, 6.32421875) (-4.737218475341797e-05, 6.326171875) (-4.723784637451172e-05, 6.328125) 