(-8.046501159667968e-05, 0.0) (-7.144050598144531e-05, 0.001953125) (-6.271804428100586e-05, 0.00390625) (-5.442507171630859e-05, 0.005859375) (-4.669587707519531e-05, 0.0078125) (-3.963877868652343e-05, 0.009765625) (-3.333407592773437e-05, 0.01171875) (-2.7833459854125976e-05, 0.013671875) (-2.3140045166015624e-05, 0.015625) (-1.923357009887695e-05, 0.017578125) (-1.6096231460571287e-05, 0.01953125) (-1.3700471878051757e-05, 0.021484375) (-1.2016283988952635e-05, 0.0234375) (-1.1008111953735352e-05, 0.025390625) (-1.060860824584961e-05, 0.02734375) (-1.073385238647461e-05, 0.029296875) (-1.128773307800293e-05, 0.03125) (-1.215532875061035e-05, 0.033203125) (-1.3235965728759766e-05, 0.03515625) (-1.443398094177246e-05, 0.037109375) (-1.5642170906066894e-05, 0.0390625) (-1.67730598449707e-05, 0.041015625) (-1.775782012939453e-05, 0.04296875) (-1.854077339172363e-05, 0.044921875) (-1.909810447692871e-05, 0.046875) (-1.9422779083251954e-05, 0.048828125) (-1.9503492355346678e-05, 0.05078125) (-1.93386173248291e-05, 0.052734375) (-1.8932899475097656e-05, 0.0546875) (-1.8289209365844727e-05, 0.056640625) (-1.7430477142333982e-05, 0.05859375) (-1.639043426513672e-05, 0.060546875) (-1.5205257415771485e-05, 0.0625) (-1.392500877380371e-05, 0.064453125) (-1.2588465690612792e-05, 0.06640625) (-1.1222929000854492e-05, 0.068359375) (-9.86293601989746e-06, 0.0703125) (-8.535858154296874e-06, 0.072265625) (-7.260997772216797e-06, 0.07421875) (-6.0559730529785155e-06, 0.076171875) (-4.926900863647461e-06, 0.078125) (-3.872301816940307e-06, 0.080078125) (-2.901231527328491e-06, 0.08203125) (-2.027689456939697e-06, 0.083984375) (-1.2600457668304442e-06, 0.0859375) (-6.047730445861816e-07, 0.087890625) (-5.348458886146545e-08, 0.08984375) (4.1649711132049557e-07, 0.091796875) (8.276853561401367e-07, 0.09375) (1.2062844038009644e-06, 0.095703125) (1.5729600191116332e-06, 0.09765625) (1.939272046089172e-06, 0.099609375) (2.321444272994995e-06, 0.1015625) (2.7386727333068845e-06, 0.103515625) (3.206390857696533e-06, 0.10546875) (3.736299991607666e-06, 0.107421875) (4.341416835784912e-06, 0.109375) (5.040947437286377e-06, 0.111328125) (5.87382698059082e-06, 0.11328125) (6.904464721679687e-06, 0.115234375) (8.195684432983398e-06, 0.1171875) (9.791962623596191e-06, 0.119140625) (1.1718143463134766e-05, 0.12109375) (1.3977338790893555e-05, 0.123046875) (1.656421661376953e-05, 0.125) (1.9470355987548828e-05, 0.126953125) (2.2676727294921873e-05, 0.12890625) (2.615077781677246e-05, 0.130859375) (2.9848888397216797e-05, 0.1328125) (3.3719638824462886e-05, 0.134765625) (3.7711395263671876e-05, 0.13671875) (4.178231811523437e-05, 0.138671875) (4.588032913208008e-05, 0.140625) (4.992368316650391e-05, 0.142578125) (5.380133438110351e-05, 0.14453125) (5.7361183166503905e-05, 0.146484375) (6.0438110351562496e-05, 0.1484375) (6.28975830078125e-05, 0.150390625) (6.462336730957031e-05, 0.15234375) (6.550736236572266e-05, 0.154296875) (6.545674896240234e-05, 0.15625) (6.43939971923828e-05, 0.158203125) (6.227582931518554e-05, 0.16015625) (5.9117790222167964e-05, 0.162109375) (5.497064971923828e-05, 0.1640625) (4.9882553100585936e-05, 0.166015625) (4.3896217346191407e-05, 0.16796875) (3.7048599243164064e-05, 0.169921875) (2.9407077789306638e-05, 0.171875) (2.111715316772461e-05, 0.173828125) (1.2387169837951659e-05, 0.17578125) (3.4273974895477293e-06, 0.177734375) (-5.578239440917969e-06, 0.1796875) (-1.4407690048217773e-05, 0.181640625) (-2.2722082138061523e-05, 0.18359375) (-3.002754020690918e-05, 0.185546875) (-3.579193115234375e-05, 0.1875) (-3.9653186798095704e-05, 0.189453125) (-4.150759124755859e-05, 0.19140625) (-4.131423187255859e-05, 0.193359375) (-3.892537307739258e-05, 0.1953125) (-3.431084823608398e-05, 0.197265625) (-2.775934600830078e-05, 0.19921875) (-2.0081218719482422e-05, 0.201171875) (-1.2383403778076172e-05, 0.203125) (-5.4245285987854e-06, 0.205078125) (6.586027145385742e-07, 0.20703125) (6.062105178833008e-06, 0.208984375) (1.086255645751953e-05, 0.2109375) (1.519220733642578e-05, 0.212890625) (1.976101493835449e-05, 0.21484375) (2.632731246948242e-05, 0.216796875) (3.7232486724853515e-05, 0.21875) (5.4503807067871094e-05, 0.220703125) (7.799208068847657e-05, 0.22265625) (0.00010533602905273438, 0.224609375) (0.000134766357421875, 0.2265625) (0.00016459149169921873, 0.228515625) (0.00019597711181640624, 0.23046875) (0.00023254498291015624, 0.232421875) (0.00027269036865234375, 0.234375) (0.0003114383544921875, 0.236328125) (0.000338672119140625, 0.23828125) (0.000339178466796875, 0.240234375) (0.0003056082763671875, 0.2421875) (0.0002379483184814453, 0.244140625) (0.00014211169433593748, 0.24609375) (3.2307838439941405e-05, 0.248046875) (-7.964421844482421e-05, 0.25) (-0.0001844685363769531, 0.251953125) (-0.00027141259765624997, 0.25390625) (-0.0003343848876953125, 0.255859375) (-0.00037044348144531247, 0.2578125) (-0.00038093994140625, 0.259765625) (-0.0003749667358398437, 0.26171875) (-0.00036141589355468746, 0.263671875) (-0.0003455202941894531, 0.265625) (-0.00032886981201171874, 0.267578125) (-0.00030840435791015623, 0.26953125) (-0.00028234100341796873, 0.271484375) (-0.0002522146453857422, 0.2734375) (-0.00022051919555664062, 0.275390625) (-0.0001904104766845703, 0.27734375) (-0.00016378424072265623, 0.279296875) (-0.0001408785400390625, 0.28125) (-0.00012168484497070312, 0.283203125) (-0.00010615188598632812, 0.28515625) (-9.396353149414062e-05, 0.287109375) (-8.460283660888671e-05, 0.2890625) (-7.760722351074219e-05, 0.291015625) (-7.259634399414062e-05, 0.29296875) (-6.900651550292969e-05, 0.294921875) (-6.613026428222656e-05, 0.296875) (-6.330006790161133e-05, 0.298828125) (-5.977892684936523e-05, 0.30078125) (-5.5237655639648434e-05, 0.302734375) (-4.980918884277343e-05, 0.3046875) (-4.3636806488037106e-05, 0.306640625) (-3.692589950561523e-05, 0.30859375) (-3.009799003601074e-05, 0.310546875) (-2.3723915100097654e-05, 0.3125) (-1.828801155090332e-05, 0.314453125) (-1.4209295272827148e-05, 0.31640625) (-1.1664888381958008e-05, 0.318359375) (-1.0538431167602538e-05, 0.3203125) (-1.0666271209716796e-05, 0.322265625) (-1.1843114852905273e-05, 0.32421875) (-1.3756160736083984e-05, 0.326171875) (-1.601105499267578e-05, 0.328125) (-1.8286701202392578e-05, 0.330078125) (-2.0338321685791016e-05, 0.33203125) (-2.2000741958618164e-05, 0.333984375) (-2.322564697265625e-05, 0.3359375) (-2.3988176345825195e-05, 0.337890625) (-2.4269203186035154e-05, 0.33984375) (-2.40932559967041e-05, 0.341796875) (-2.3516424179077147e-05, 0.34375) (-2.257852554321289e-05, 0.345703125) (-2.131130790710449e-05, 0.34765625) (-1.9743902206420897e-05, 0.349609375) (-1.7889530181884765e-05, 0.3515625) (-1.5782955169677733e-05, 0.353515625) (-1.3475286483764648e-05, 0.35546875) (-1.1013229370117186e-05, 0.357421875) (-8.451971054077149e-06, 0.359375) (-5.849501609802246e-06, 0.361328125) (-3.257010459899902e-06, 0.36328125) (-7.34045386314392e-07, 0.365234375) (1.656125545501709e-06, 0.3671875) (3.875135898590088e-06, 0.369140625) (5.899436950683593e-06, 0.37109375) (7.71513557434082e-06, 0.373046875) (9.325882911682128e-06, 0.375) (1.073590087890625e-05, 0.376953125) (1.1949407577514648e-05, 0.37890625) (1.2982328414916991e-05, 0.380859375) (1.3856095314025878e-05, 0.3828125) (1.4590992927551269e-05, 0.384765625) (1.5208551406860351e-05, 0.38671875) (1.5727361679077147e-05, 0.388671875) (1.616297721862793e-05, 0.390625) (1.653580093383789e-05, 0.392578125) (1.6867502212524415e-05, 0.39453125) (1.718171691894531e-05, 0.396484375) (1.750506019592285e-05, 0.3984375) (1.7855636596679685e-05, 0.400390625) (1.8244693756103516e-05, 0.40234375) (1.868054962158203e-05, 0.404296875) (1.916572380065918e-05, 0.40625) (1.9700687408447263e-05, 0.408203125) (2.028538131713867e-05, 0.41015625) (2.091440963745117e-05, 0.412109375) (2.1578411102294922e-05, 0.4140625) (2.2270591735839844e-05, 0.416015625) (2.298516273498535e-05, 0.41796875) (2.3717662811279295e-05, 0.419921875) (2.446635055541992e-05, 0.421875) (2.522738265991211e-05, 0.423828125) (2.5995269775390623e-05, 0.42578125) (2.67646427154541e-05, 0.427734375) (2.752929878234863e-05, 0.4296875) (2.8283843994140625e-05, 0.431640625) (2.902414321899414e-05, 0.43359375) (2.9745819091796875e-05, 0.435546875) (3.0444435119628904e-05, 0.4375) (3.111645126342773e-05, 0.439453125) (3.175875854492187e-05, 0.44140625) (3.23693962097168e-05, 0.443359375) (3.294771575927734e-05, 0.4453125) (3.349224090576172e-05, 0.447265625) (3.4000709533691404e-05, 0.44921875) (3.447079849243164e-05, 0.451171875) (3.4899887084960934e-05, 0.453125) (3.528567123413086e-05, 0.455078125) (3.562639236450195e-05, 0.45703125) (3.5920108795166013e-05, 0.458984375) (3.616477584838867e-05, 0.4609375) (3.635907363891601e-05, 0.462890625) (3.6502311706542966e-05, 0.46484375) (3.659440612792968e-05, 0.466796875) (3.663605499267578e-05, 0.46875) (3.6628158569335934e-05, 0.470703125) (3.657170867919922e-05, 0.47265625) (3.646809005737305e-05, 0.474609375) (3.6318962097167966e-05, 0.4765625) (3.6126163482666016e-05, 0.478515625) (3.589177703857422e-05, 0.48046875) (3.5617912292480466e-05, 0.482421875) (3.530654144287109e-05, 0.484375) (3.4959747314453127e-05, 0.486328125) (3.457972717285156e-05, 0.48828125) (3.416869735717773e-05, 0.490234375) (3.372895812988281e-05, 0.4921875) (3.3262783050537106e-05, 0.494140625) (3.2772266387939455e-05, 0.49609375) (3.2259452819824217e-05, 0.498046875) (3.172635650634766e-05, 0.5) (3.11747817993164e-05, 0.501953125) (3.060637092590332e-05, 0.50390625) (3.0022472381591795e-05, 0.505859375) (2.9424129486083983e-05, 0.5078125) (2.8812187194824218e-05, 0.509765625) (2.818735122680664e-05, 0.51171875) (2.7550132751464842e-05, 0.513671875) (2.6900836944580077e-05, 0.515625) (2.6239612579345702e-05, 0.517578125) (2.556637954711914e-05, 0.51953125) (2.4880943298339843e-05, 0.521484375) (2.418302536010742e-05, 0.5234375) (2.3472047805786133e-05, 0.525390625) (2.2747167587280273e-05, 0.52734375) (2.2007289886474608e-05, 0.529296875) (2.1251054763793943e-05, 0.53125) (2.0476974487304688e-05, 0.533203125) (1.968349266052246e-05, 0.53515625) (1.8868942260742186e-05, 0.537109375) (1.8031591415405273e-05, 0.5390625) (1.716971969604492e-05, 0.541015625) (1.628164291381836e-05, 0.54296875) (1.5365760803222657e-05, 0.544921875) (1.4420616149902344e-05, 0.546875) (1.3444812774658202e-05, 0.548828125) (1.2437020301818847e-05, 0.55078125) (1.1395984649658203e-05, 0.552734375) (1.0320538520812988e-05, 0.5546875) (9.209661483764647e-06, 0.556640625) (8.062527656555175e-06, 0.55859375) (6.87849473953247e-06, 0.560546875) (5.657110214233398e-06, 0.5625) (4.398149490356445e-06, 0.564453125) (3.101642370223999e-06, 0.56640625) (1.7679107189178466e-06, 0.568359375) (3.9758747816085813e-07, 0.5703125) (-1.0084410905838013e-06, 0.572265625) (-2.4490647315979003e-06, 0.57421875) (-3.9229593276977535e-06, 0.576171875) (-5.4285936355590814e-06, 0.578125) (-6.964217185974121e-06, 0.580078125) (-8.52785587310791e-06, 0.58203125) (-1.0117347717285156e-05, 0.583984375) (-1.1730353355407715e-05, 0.5859375) (-1.336433982849121e-05, 0.587890625) (-1.5016569137573241e-05, 0.58984375) (-1.668408966064453e-05, 0.591796875) (-1.836376953125e-05, 0.59375) (-2.0052331924438476e-05, 0.595703125) (-2.174641990661621e-05, 0.59765625) (-2.3442609786987303e-05, 0.599609375) (-2.5137432098388672e-05, 0.6015625) (-2.6827375411987303e-05, 0.603515625) (-2.8508934020996094e-05, 0.60546875) (-3.0178607940673827e-05, 0.607421875) (-3.183293724060058e-05, 0.609375) (-3.3468475341796874e-05, 0.611328125) (-3.508180236816406e-05, 0.61328125) (-3.666949462890625e-05, 0.615234375) (-3.8228149414062496e-05, 0.6171875) (-3.9754455566406247e-05, 0.619140625) (-4.124519348144531e-05, 0.62109375) (-4.269728088378906e-05, 0.623046875) (-4.410776138305664e-05, 0.625) (-4.547387313842773e-05, 0.626953125) (-4.6793006896972655e-05, 0.62890625) (-4.806278228759765e-05, 0.630859375) (-4.928104019165039e-05, 0.6328125) (-5.044581604003906e-05, 0.634765625) (-5.155531311035156e-05, 0.63671875) (-5.2607883453369135e-05, 0.638671875) (-5.36020393371582e-05, 0.640625) (-5.453646850585937e-05, 0.642578125) (-5.541004943847656e-05, 0.64453125) (-5.6221862792968746e-05, 0.646484375) (-5.697118377685547e-05, 0.6484375) (-5.765750122070312e-05, 0.650390625) (-5.828055953979492e-05, 0.65234375) (-5.8840339660644526e-05, 0.654296875) (-5.933705902099609e-05, 0.65625) (-5.977117538452148e-05, 0.658203125) (-6.0143287658691406e-05, 0.66015625) (-6.045417022705078e-05, 0.662109375) (-6.070473480224609e-05, 0.6640625) (-6.0896041870117183e-05, 0.666015625) (-6.102928924560547e-05, 0.66796875) (-6.110582733154296e-05, 0.669921875) (-6.112715911865234e-05, 0.671875) (-6.109494781494141e-05, 0.673828125) (-6.101103591918945e-05, 0.67578125) (-6.087747192382812e-05, 0.677734375) (-6.0696456909179684e-05, 0.6796875) (-6.047035980224609e-05, 0.681640625) (-6.020166015625e-05, 0.68359375) (-5.9892902374267575e-05, 0.685546875) (-5.9546710968017575e-05, 0.6875) (-5.9165782928466796e-05, 0.689453125) (-5.8752853393554685e-05, 0.69140625) (-5.831073760986328e-05, 0.693359375) (-5.784230041503906e-05, 0.6953125) (-5.735053253173828e-05, 0.697265625) (-5.683852386474609e-05, 0.69921875) (-5.630953216552734e-05, 0.701171875) (-5.57669677734375e-05, 0.703125) (-5.521432876586914e-05, 0.705078125) (-5.4655220031738277e-05, 0.70703125) (-5.4093280792236324e-05, 0.708984375) (-5.353216171264648e-05, 0.7109375) (-5.297550964355469e-05, 0.712890625) (-5.242692565917969e-05, 0.71484375) (-5.188996124267578e-05, 0.716796875) (-5.1368087768554685e-05, 0.71875) (-5.086475372314453e-05, 0.720703125) (-5.038337707519531e-05, 0.72265625) (-4.992736053466797e-05, 0.724609375) (-4.9500099182128904e-05, 0.7265625) (-4.9104957580566405e-05, 0.728515625) (-4.874522018432617e-05, 0.73046875) (-4.842409515380859e-05, 0.732421875) (-4.8144638061523436e-05, 0.734375) (-4.7909763336181636e-05, 0.736328125) (-4.772220993041992e-05, 0.73828125) (-4.758452606201172e-05, 0.740234375) (-4.749908447265625e-05, 0.7421875) (-4.746808242797851e-05, 0.744140625) (-4.749358749389648e-05, 0.74609375) (-4.7577541351318355e-05, 0.748046875) (-4.77217903137207e-05, 0.75) (-4.792801666259765e-05, 0.751953125) (-4.819773864746094e-05, 0.75390625) (-4.853224945068359e-05, 0.755859375) (-4.893257141113281e-05, 0.7578125) (-4.9399433135986325e-05, 0.759765625) (-4.99332046508789e-05, 0.76171875) (-5.053388977050781e-05, 0.763671875) (-5.120110702514648e-05, 0.765625) (-5.1934120178222653e-05, 0.767578125) (-5.273188781738281e-05, 0.76953125) (-5.359310913085937e-05, 0.771484375) (-5.451624298095703e-05, 0.7734375) (-5.549955749511719e-05, 0.775390625) (-5.6541110992431635e-05, 0.77734375) (-5.763877487182617e-05, 0.779296875) (-5.879022979736328e-05, 0.78125) (-5.9992973327636714e-05, 0.783203125) (-6.124430084228515e-05, 0.78515625) (-6.254130554199219e-05, 0.787109375) (-6.3880859375e-05, 0.7890625) (-6.525968933105469e-05, 0.791015625) (-6.667443084716797e-05, 0.79296875) (-6.812162780761718e-05, 0.794921875) (-6.959781646728516e-05, 0.796875) (-7.109950256347656e-05, 0.798828125) (-7.262316894531249e-05, 0.80078125) (-7.416528320312499e-05, 0.802734375) (-7.572227478027344e-05, 0.8046875) (-7.729049682617188e-05, 0.806640625) (-7.886627197265624e-05, 0.80859375) (-8.044578552246094e-05, 0.810546875) (-8.20251693725586e-05, 0.8125) (-8.360047912597656e-05, 0.814453125) (-8.516783142089843e-05, 0.81640625) (-8.672344207763672e-05, 0.818359375) (-8.826366424560546e-05, 0.8203125) (-8.978504943847656e-05, 0.822265625) (-9.128439331054687e-05, 0.82421875) (-9.275875854492187e-05, 0.826171875) (-9.420545959472656e-05, 0.828125) (-9.562207794189453e-05, 0.830078125) (-9.700640106201171e-05, 0.83203125) (-9.83564224243164e-05, 0.833984375) (-9.967030334472656e-05, 0.8359375) (-0.00010094636535644531, 0.837890625) (-0.00010218307495117188, 0.83984375) (-0.0001033791275024414, 0.841796875) (-0.00010453340911865234, 0.84375) (-0.00010564494323730469, 0.845703125) (-0.00010671298217773437, 0.84765625) (-0.00010773687744140625, 0.849609375) (-0.00010871613311767577, 0.8515625) (-0.00010965039062499999, 0.853515625) (-0.00011053936767578124, 0.85546875) (-0.00011138272094726562, 0.857421875) (-0.00011218020629882812, 0.859375) (-0.0001129316177368164, 0.861328125) (-0.00011363676452636718, 0.86328125) (-0.00011429562377929687, 0.865234375) (-0.0001149083251953125, 0.8671875) (-0.00011547515869140625, 0.869140625) (-0.00011599662780761718, 0.87109375) (-0.00011647349548339843, 0.873046875) (-0.00011690666961669922, 0.875) (-0.0001172973175048828, 0.876953125) (-0.00011764671325683594, 0.87890625) (-0.00011795623779296874, 0.880859375) (-0.00011822727966308593, 0.8828125) (-0.00011846122741699218, 0.884765625) (-0.00011865953063964844, 0.88671875) (-0.00011882359313964844, 0.888671875) (-0.00011895481872558593, 0.890625) (-0.00011905463409423827, 0.892578125) (-0.00011912438964843749, 0.89453125) (-0.00011916548919677734, 0.896484375) (-0.0001191792755126953, 0.8984375) (-0.00011916709899902344, 0.900390625) (-0.0001191302490234375, 0.90234375) (-0.00011906999206542968, 0.904296875) (-0.00011898753356933594, 0.90625) (-0.00011888400268554688, 0.908203125) (-0.00011876064300537108, 0.91015625) (-0.00011861871337890625, 0.912109375) (-0.0001184595489501953, 0.9140625) (-0.00011828463745117187, 0.916015625) (-0.00011809561157226562, 0.91796875) (-0.00011789421081542968, 0.919921875) (-0.00011768228912353515, 0.921875) (-0.00011746187591552734, 0.923828125) (-0.00011723497009277343, 0.92578125) (-0.00011700355529785156, 0.927734375) (-0.00011676962280273437, 0.9296875) (-0.00011653500366210937, 0.931640625) (-0.00011630143737792969, 0.93359375) (-0.0001160705337524414, 0.935546875) (-0.00011584383392333984, 0.9375) (-0.00011562268829345703, 0.939453125) (-0.00011540828704833984, 0.94140625) (-0.00011520172119140625, 0.943359375) (-0.00011500392150878906, 0.9453125) (-0.00011481568908691405, 0.947265625) (-0.0001146376953125, 0.94921875) (-0.00011447051239013672, 0.951171875) (-0.00011431446838378906, 0.953125) (-0.00011416983795166015, 0.955078125) (-0.00011403674316406249, 0.95703125) (-0.00011391531372070313, 0.958984375) (-0.00011380569458007812, 0.9609375) (-0.0001137079849243164, 0.962890625) (-0.00011362226867675781, 0.96484375) (-0.00011354852294921875, 0.966796875) (-0.00011348673248291015, 0.96875) (-0.00011343678283691406, 0.970703125) (-0.00011339840698242187, 0.97265625) (-0.00011337107849121094, 0.974609375) (-0.00011335391235351562, 0.9765625) (-0.00011334563446044922, 0.978515625) (-0.00011334469604492187, 0.98046875) (-0.00011334935760498046, 0.982421875) (-0.00011335769653320312, 0.984375) (-0.00011336749267578125, 0.986328125) (-0.00011337625122070311, 0.98828125) (-0.00011338134002685546, 0.990234375) (-0.00011337997436523437, 0.9921875) (-0.00011336933898925781, 0.994140625) (-0.00011334654998779296, 0.99609375) (-0.00011330838775634765, 0.998046875) (-0.00011325152587890625, 1.0) (-0.00011317261505126952, 1.001953125) (-0.00011306826782226562, 1.00390625) (-0.00011293523406982421, 1.005859375) (-0.00011277040863037108, 1.0078125) (-0.00011257064819335937, 1.009765625) (-0.00011233279418945311, 1.01171875) (-0.00011205390167236327, 1.013671875) (-0.00011173126983642578, 1.015625) (-0.00011136235046386718, 1.017578125) (-0.0001109446792602539, 1.01953125) (-0.00011047559356689453, 1.021484375) (-0.00010995230102539062, 1.0234375) (-0.0001093720474243164, 1.025390625) (-0.00010873223876953125, 1.02734375) (-0.00010803052520751953, 1.029296875) (-0.00010726463317871093, 1.03125) (-0.00010643221282958984, 1.033203125) (-0.00010553135681152343, 1.03515625) (-0.00010456089782714843, 1.037109375) (-0.00010352039337158202, 1.0390625) (-0.00010241049194335937, 1.041015625) (-0.0001012321319580078, 1.04296875) (-9.998611450195313e-05, 1.044921875) (-9.867361450195312e-05, 1.046875) (-9.729652404785155e-05, 1.048828125) (-9.585689544677734e-05, 1.05078125) (-9.43568115234375e-05, 1.052734375) (-9.279803466796875e-05, 1.0546875) (-9.118145751953125e-05, 1.056640625) (-8.950843811035156e-05, 1.05859375) (-8.778168487548828e-05, 1.060546875) (-8.600493621826171e-05, 1.0625) (-8.418229675292969e-05, 1.064453125) (-8.231786346435547e-05, 1.06640625) (-8.041548156738281e-05, 1.068359375) (-7.847926330566406e-05, 1.0703125) (-7.651464843749999e-05, 1.072265625) (-7.452760314941405e-05, 1.07421875) (-7.252359008789062e-05, 1.076171875) (-7.050656127929688e-05, 1.078125) (-6.847922515869141e-05, 1.080078125) (-6.644586944580077e-05, 1.08203125) (-6.441293334960937e-05, 1.083984375) (-6.239034271240234e-05, 1.0859375) (-6.039016723632812e-05, 1.087890625) (-5.8421764373779294e-05, 1.08984375) (-5.649147796630859e-05, 1.091796875) (-5.460384750366211e-05, 1.09375) (-5.276247024536133e-05, 1.095703125) (-5.0968647003173826e-05, 1.09765625) (-4.921991729736328e-05, 1.099609375) (-4.750627899169922e-05, 1.1015625) (-4.5809936523437496e-05, 1.103515625) (-4.411286163330078e-05, 1.10546875) (-4.239898681640625e-05, 1.107421875) (-4.065753173828125e-05, 1.109375) (-3.887954330444336e-05, 1.111328125) (-3.705157470703125e-05, 1.11328125) (-3.515834808349609e-05, 1.115234375) (-3.318003845214844e-05, 1.1171875) (-3.109942245483398e-05, 1.119140625) (-2.8909780502319334e-05, 1.12109375) (-2.6611293792724608e-05, 1.123046875) (-2.4210041046142576e-05, 1.125) (-2.1720178604125974e-05, 1.126953125) (-1.916712951660156e-05, 1.12890625) (-1.6589622497558593e-05, 1.130859375) (-1.4051326751708984e-05, 1.1328125) (-1.1632259368896484e-05, 1.134765625) (-9.411844253540038e-06, 1.13671875) (-7.472440242767334e-06, 1.138671875) (-5.887606620788574e-06, 1.140625) (-4.7279157638549804e-06, 1.142578125) (-4.070568561553955e-06, 1.14453125) (-3.9887969493865965e-06, 1.146484375) (-4.552122592926025e-06, 1.1484375) (-5.813905715942383e-06, 1.150390625) (-7.802546501159667e-06, 1.15234375) (-1.0517332077026367e-05, 1.154296875) (-1.392713165283203e-05, 1.15625) (-1.7973768234252928e-05, 1.158203125) (-2.256905174255371e-05, 1.16015625) (-2.7609445571899414e-05, 1.162109375) (-3.2961959838867185e-05, 1.1640625) (-3.844795608520508e-05, 1.166015625) (-4.385767364501953e-05, 1.16796875) (-4.896426391601562e-05, 1.169921875) (-5.355084228515625e-05, 1.171875) (-5.7413246154785154e-05, 1.173828125) (-6.0353218078613276e-05, 1.17578125) (-6.210887145996094e-05, 1.177734375) (-6.233155441284179e-05, 1.1796875) (-6.079287719726562e-05, 1.181640625) (-5.743903350830078e-05, 1.18359375) (-5.236206817626953e-05, 1.185546875) (-4.582753372192383e-05, 1.1875) (-3.8080219268798825e-05, 1.189453125) (-2.9287780761718748e-05, 1.19140625) (-1.9795680999755857e-05, 1.193359375) (-1.019036293029785e-05, 1.1953125) (-8.104434013366699e-07, 1.197265625) (8.413177490234375e-06, 1.19921875) (1.784646224975586e-05, 1.201171875) (2.8239606857299803e-05, 1.203125) (4.033878707885742e-05, 1.205078125) (5.468586730957031e-05, 1.20703125) (7.196327209472655e-05, 1.208984375) (9.296424865722656e-05, 1.2109375) (0.00011668585205078125, 1.212890625) (0.00014020236206054688, 1.21484375) (0.00016089230346679687, 1.216796875) (0.00017665414428710938, 1.21875) (0.00018891978454589842, 1.220703125) (0.00020168885803222657, 1.22265625) (0.00021446011352539062, 1.224609375) (0.0002222276611328125, 1.2265625) (0.0002156179962158203, 1.228515625) (0.00018378823852539062, 1.23046875) (0.00012372278594970703, 1.232421875) (3.904370880126953e-05, 1.234375) (-6.266377258300782e-05, 1.236328125) (-0.00016921044921875, 1.23828125) (-0.00027025930786132813, 1.240234375) (-0.000355150390625, 1.2421875) (-0.0004115825500488281, 1.244140625) (-0.0004350083312988281, 1.24609375) (-0.0004264906005859375, 1.248046875) (-0.00039394732666015624, 1.25) (-0.0003526206359863281, 1.251953125) (-0.00031208724975585934, 1.25390625) (-0.0002764941711425781, 1.255859375) (-0.00024582568359375, 1.2578125) (-0.00021459970092773436, 1.259765625) (-0.00018065907287597655, 1.26171875) (-0.00014544300842285156, 1.263671875) (-0.00011118309020996093, 1.265625) (-8.183251190185547e-05, 1.267578125) (-5.9444309234619135e-05, 1.26953125) (-4.346615982055664e-05, 1.271484375) (-3.294517135620117e-05, 1.2734375) (-2.6750247955322266e-05, 1.275390625) (-2.4129205703735352e-05, 1.27734375) (-2.473285675048828e-05, 1.279296875) (-2.781254196166992e-05, 1.28125) (-3.189322280883789e-05, 1.283203125) (-3.5415050506591794e-05, 1.28515625) (-3.753429412841797e-05, 1.287109375) (-3.8010482788085934e-05, 1.2890625) (-3.690394592285156e-05, 1.291015625) (-3.4335235595703125e-05, 1.29296875) (-3.0374515533447265e-05, 1.294921875) (-2.5239334106445313e-05, 1.296875) (-1.9634075164794923e-05, 1.298828125) (-1.4500385284423828e-05, 1.30078125) (-1.0352382659912109e-05, 1.302734375) (-7.3180651664733884e-06, 1.3046875) (-5.291947364807129e-06, 1.306640625) (-4.015590190887451e-06, 1.30859375) (-3.3159620761871335e-06, 1.310546875) (-3.0533459186553955e-06, 1.3125) (-2.9143755435943604e-06, 1.314453125) (-2.4813663959503174e-06, 1.31640625) (-1.5028938055038452e-06, 1.318359375) (1.1713540554046631e-07, 1.3203125) (2.3576529026031492e-06, 1.322265625) (5.086979866027832e-06, 1.32421875) (8.219894409179686e-06, 1.326171875) (1.1711835861206054e-05, 1.328125) (1.548219871520996e-05, 1.330078125) (1.9432435989379883e-05, 1.33203125) (2.3470287322998046e-05, 1.333984375) (2.751528549194336e-05, 1.3359375) (3.1509334564208985e-05, 1.337890625) (3.54139289855957e-05, 1.33984375) (3.918451309204101e-05, 1.341796875) (4.2770179748535154e-05, 1.34375) (4.6128662109375e-05, 1.345703125) (4.922634124755859e-05, 1.34765625) (5.204664611816406e-05, 1.349609375) (5.4587638854980464e-05, 1.3515625) (5.685402679443359e-05, 1.353515625) (5.885975646972656e-05, 1.35546875) (6.062214279174805e-05, 1.357421875) (6.216221618652344e-05, 1.359375) (6.350069808959961e-05, 1.361328125) (6.465565490722656e-05, 1.36328125) (6.565023040771484e-05, 1.365234375) (6.650950622558593e-05, 1.3671875) (6.726192474365235e-05, 1.369140625) (6.793977355957031e-05, 1.37109375) (6.85693359375e-05, 1.373046875) (6.917143249511719e-05, 1.375) (6.976487731933593e-05, 1.376953125) (7.036514282226562e-05, 1.37890625) (7.098316192626953e-05, 1.380859375) (7.162708282470702e-05, 1.3828125) (7.230030059814453e-05, 1.384765625) (7.300106048583984e-05, 1.38671875) (7.372919464111328e-05, 1.388671875) (7.448517608642578e-05, 1.390625) (7.527009582519532e-05, 1.392578125) (7.608692932128906e-05, 1.39453125) (7.69366455078125e-05, 1.396484375) (7.781861877441406e-05, 1.3984375) (7.873136901855469e-05, 1.400390625) (7.967234802246094e-05, 1.40234375) (8.063996887207031e-05, 1.404296875) (8.163389587402344e-05, 1.40625) (8.265333557128905e-05, 1.408203125) (8.36971435546875e-05, 1.41015625) (8.476473999023438e-05, 1.412109375) (8.585562133789063e-05, 1.4140625) (8.697023010253906e-05, 1.416015625) (8.811003112792968e-05, 1.41796875) (8.927491760253906e-05, 1.419921875) (9.046347045898437e-05, 1.421875) (9.167369842529297e-05, 1.423828125) (9.290290069580078e-05, 1.42578125) (9.414845275878906e-05, 1.427734375) (9.540797424316406e-05, 1.4296875) (9.667838287353515e-05, 1.431640625) (9.795623779296874e-05, 1.43359375) (9.923841094970703e-05, 1.435546875) (0.00010052207946777344, 1.4375) (0.00010180474853515625, 1.439453125) (0.00010308423614501953, 1.44140625) (0.00010435814666748047, 1.443359375) (0.00010562397766113281, 1.4453125) (0.00010687939453125, 1.447265625) (0.00010812226867675781, 1.44921875) (0.00010935085296630859, 1.451171875) (0.0001105636978149414, 1.453125) (0.00011175960540771484, 1.455078125) (0.00011293762207031249, 1.45703125) (0.00011409722137451171, 1.458984375) (0.00011523824310302734, 1.4609375) (0.00011636095428466796, 1.462890625) (0.00011746590423583984, 1.46484375) (0.00011855368041992186, 1.466796875) (0.00011962478637695312, 1.46875) (0.00012067987060546874, 1.470703125) (0.0001217195816040039, 1.47265625) (0.0001227446594238281, 1.474609375) (0.00012375587463378906, 1.4765625) (0.00012475387573242187, 1.478515625) (0.00012573915863037108, 1.48046875) (0.0001267123031616211, 1.482421875) (0.00012767394256591797, 1.484375) (0.00012862460327148437, 1.486328125) (0.0001295646514892578, 1.48828125) (0.00013049424743652343, 1.490234375) (0.00013141326904296874, 1.4921875) (0.00013232147216796875, 1.494140625) (0.0001332184600830078, 1.49609375) (0.00013410357666015623, 1.498046875) (0.00013497586059570311, 1.5) (0.00013583412170410156, 1.501953125) (0.00013667697143554688, 1.50390625) (0.00013750292968749998, 1.505859375) (0.00013831033325195313, 1.5078125) (0.0001390973205566406, 1.509765625) (0.00013986175537109374, 1.51171875) (0.0001406011962890625, 1.513671875) (0.00014131297302246094, 1.515625) (0.00014199401855468749, 1.517578125) (0.00014264111328124999, 1.51953125) (0.00014325062561035157, 1.521484375) (0.00014381871032714843, 1.5234375) (0.00014434127807617188, 1.525390625) (0.0001448141174316406, 1.52734375) (0.00014523292541503905, 1.529296875) (0.0001455934600830078, 1.53125) (0.00014589144897460938, 1.533203125) (0.00014612271118164062, 1.53515625) (0.00014628300476074218, 1.537109375) (0.00014636830139160155, 1.5390625) (0.00014637466430664063, 1.541015625) (0.00014629843139648437, 1.54296875) (0.00014613609313964844, 1.544921875) (0.0001458844757080078, 1.546875) (0.0001455407257080078, 1.548828125) (0.00014510235595703125, 1.55078125) (0.00014456742858886718, 1.552734375) (0.0001439344024658203, 1.5546875) (0.0001432022247314453, 1.556640625) (0.00014237014770507813, 1.55859375) (0.00014143786621093749, 1.560546875) (0.00014040545654296873, 1.5625) (0.00013927328491210937, 1.564453125) (0.00013804208374023437, 1.56640625) (0.000136712890625, 1.568359375) (0.00013528701782226563, 1.5703125) (0.00013376617431640623, 1.572265625) (0.00013215255737304688, 1.57421875) (0.00013044876098632812, 1.576171875) (0.0001286578674316406, 1.578125) (0.0001267834014892578, 1.580078125) (0.00012482941436767577, 1.58203125) (0.00012280028533935547, 1.583984375) (0.00012070086669921875, 1.5859375) (0.00011853631591796875, 1.587890625) (0.00011631214141845703, 1.58984375) (0.0001140341339111328, 1.591796875) (0.0001117083511352539, 1.59375) (0.00010934108734130859, 1.595703125) (0.00010693888854980468, 1.59765625) (0.00010450851440429686, 1.599609375) (0.00010205694580078124, 1.6015625) (9.959120178222656e-05, 1.603515625) (9.711834716796874e-05, 1.60546875) (9.464543151855468e-05, 1.607421875) (9.217933654785156e-05, 1.609375) (8.972675323486328e-05, 1.611328125) (8.729412841796874e-05, 1.61328125) (8.488760375976561e-05, 1.615234375) (8.251302337646484e-05, 1.6171875) (8.017596435546874e-05, 1.619140625) (7.788175201416015e-05, 1.62109375) (7.563552856445313e-05, 1.623046875) (7.34422378540039e-05, 1.625) (7.130661010742187e-05, 1.626953125) (6.923316192626953e-05, 1.62890625) (6.722620391845703e-05, 1.630859375) (6.52897720336914e-05, 1.6328125) (6.342754364013672e-05, 1.634765625) (6.164283752441406e-05, 1.63671875) (5.9938568115234375e-05, 1.638671875) (5.8317199707031244e-05, 1.640625) (5.678081130981445e-05, 1.642578125) (5.533104705810547e-05, 1.64453125) (5.396917724609375e-05, 1.646484375) (5.269605255126953e-05, 1.6484375) (5.1512149810791015e-05, 1.650390625) (5.041753387451172e-05, 1.65234375) (4.941187286376953e-05, 1.654296875) (4.8494384765625e-05, 1.65625) (4.7663810729980465e-05, 1.658203125) (4.691840362548828e-05, 1.66015625) (4.6255958557128905e-05, 1.662109375) (4.5673828125e-05, 1.6640625) (4.516899108886718e-05, 1.666015625) (4.473809051513672e-05, 1.66796875) (4.4377540588378903e-05, 1.669921875) (4.408356475830078e-05, 1.671875) (4.385227584838867e-05, 1.673828125) (4.367967224121093e-05, 1.67578125) (4.3561668395996094e-05, 1.677734375) (4.349408721923828e-05, 1.6796875) (4.347259521484375e-05, 1.681640625) (4.349268341064453e-05, 1.68359375) (4.354964828491211e-05, 1.685546875) (4.363861846923828e-05, 1.6875) (4.375454330444336e-05, 1.689453125) (4.389225006103515e-05, 1.69140625) (4.404644775390625e-05, 1.693359375) (4.4211837768554684e-05, 1.6953125) (4.438312530517578e-05, 1.697265625) (4.455511474609375e-05, 1.69921875) (4.472269439697265e-05, 1.701171875) (4.4880859375e-05, 1.703125) (4.502471542358398e-05, 1.705078125) (4.514949035644531e-05, 1.70703125) (4.525054931640625e-05, 1.708984375) (4.532342910766601e-05, 1.7109375) (4.5363857269287105e-05, 1.712890625) (4.536779403686523e-05, 1.71484375) (4.533147048950195e-05, 1.716796875) (4.5251483917236324e-05, 1.71875) (4.512480926513672e-05, 1.720703125) (4.4948856353759765e-05, 1.72265625) (4.4721466064453125e-05, 1.724609375) (4.444087219238281e-05, 1.7265625) (4.41057014465332e-05, 1.728515625) (4.371493530273437e-05, 1.73046875) (4.3267868041992186e-05, 1.732421875) (4.276411437988281e-05, 1.734375) (4.220353698730469e-05, 1.736328125) (4.15863037109375e-05, 1.73828125) (4.091286468505859e-05, 1.740234375) (4.0184020996093746e-05, 1.7421875) (3.940095901489258e-05, 1.744140625) (3.856528854370117e-05, 1.74609375) (3.767904281616211e-05, 1.748046875) (3.674465179443359e-05, 1.75) (3.576492691040039e-05, 1.751953125) (3.4743026733398436e-05, 1.75390625) (3.368244171142578e-05, 1.755859375) (3.258689880371094e-05, 1.7578125) (3.146033096313477e-05, 1.759765625) (3.030678939819336e-05, 1.76171875) (2.9130451202392578e-05, 1.763671875) (2.7935596466064453e-05, 1.765625) (2.6726593017578122e-05, 1.767578125) (2.550786209106445e-05, 1.76953125) (2.428382873535156e-05, 1.771484375) (2.3058876037597656e-05, 1.7734375) (2.1837318420410154e-05, 1.775390625) (2.0623348236083984e-05, 1.77734375) (1.942099380493164e-05, 1.779296875) (1.8234066009521483e-05, 1.78125) (1.7066082000732423e-05, 1.783203125) (1.5920257568359375e-05, 1.78515625) (1.4799482345581054e-05, 1.787109375) (1.3706339836120604e-05, 1.7890625) (1.2643111228942871e-05, 1.791015625) (1.161176300048828e-05, 1.79296875) (1.061393928527832e-05, 1.794921875) (9.650953292846679e-06, 1.796875) (8.723793029785157e-06, 1.798828125) (7.833100795745849e-06, 1.80078125) (6.9791517257690425e-06, 1.802734375) (6.1617951393127435e-06, 1.8046875) (5.380407333374023e-06, 1.806640625) (4.633861064910888e-06, 1.80859375) (3.9205331802368165e-06, 1.810546875) (3.2383174896240234e-06, 1.8125) (2.584639072418213e-06, 1.814453125) (1.9564740657806396e-06, 1.81640625) (1.3503780364990233e-06, 1.818359375) (7.62545645236969e-07, 1.8203125) (1.8889032304286955e-07, 1.822265625) (-3.7488359212875365e-07, 1.82421875) (-9.332307577133178e-07, 1.826171875) (-1.4907243251800536e-06, 1.828125) (-2.0520148277282714e-06, 1.830078125) (-2.6217708587646484e-06, 1.83203125) (-3.2046039104461668e-06, 1.833984375) (-3.8050103187561035e-06, 1.8359375) (-4.427334308624267e-06, 1.837890625) (-5.07573127746582e-06, 1.83984375) (-5.7541384696960444e-06, 1.841796875) (-6.46621561050415e-06, 1.84375) (-7.215289115905762e-06, 1.845703125) (-8.004312515258788e-06, 1.84765625) (-8.835847854614258e-06, 1.849609375) (-9.712061882019043e-06, 1.8515625) (-1.0634708404541015e-05, 1.853515625) (-1.1605104446411131e-05, 1.85546875) (-1.26240816116333e-05, 1.857421875) (-1.3691983222961425e-05, 1.859375) (-1.4808652877807616e-05, 1.861328125) (-1.5973427772521972e-05, 1.86328125) (-1.718510627746582e-05, 1.865234375) (-1.8441905975341797e-05, 1.8671875) (-1.9741397857666015e-05, 1.869140625) (-2.1080459594726563e-05, 1.87109375) (-2.245526885986328e-05, 1.873046875) (-2.386130142211914e-05, 1.875) (-2.52933235168457e-05, 1.876953125) (-2.674540328979492e-05, 1.87890625) (-2.8210937499999997e-05, 1.880859375) (-2.9682708740234373e-05, 1.8828125) (-3.1152984619140624e-05, 1.884765625) (-3.2613632202148434e-05, 1.88671875) (-3.4056243896484376e-05, 1.888671875) (-3.547217559814453e-05, 1.890625) (-3.685262298583984e-05, 1.892578125) (-3.8188751220703124e-05, 1.89453125) (-3.9471736907958986e-05, 1.896484375) (-4.069287872314453e-05, 1.8984375) (-4.1843639373779296e-05, 1.900390625) (-4.291567230224609e-05, 1.90234375) (-4.390085983276367e-05, 1.904296875) (-4.4791393280029296e-05, 1.90625) (-4.557986450195312e-05, 1.908203125) (-4.625931549072266e-05, 1.91015625) (-4.6823272705078126e-05, 1.912109375) (-4.7265830993652344e-05, 1.9140625) (-4.758164596557617e-05, 1.916015625) (-4.776596450805664e-05, 1.91796875) (-4.7814735412597654e-05, 1.919921875) (-4.772459411621093e-05, 1.921875) (-4.7492816925048826e-05, 1.923828125) (-4.711738204956054e-05, 1.92578125) (-4.659696578979492e-05, 1.927734375) (-4.5931003570556636e-05, 1.9296875) (-4.511978149414062e-05, 1.931640625) (-4.4164531707763667e-05, 1.93359375) (-4.306751251220703e-05, 1.935546875) (-4.183197784423828e-05, 1.9375) (-4.046221160888672e-05, 1.939453125) (-3.896353530883789e-05, 1.94140625) (-3.734233093261719e-05, 1.943359375) (-3.560597991943359e-05, 1.9453125) (-3.376271820068359e-05, 1.947265625) (-3.182145690917969e-05, 1.94921875) (-2.979158592224121e-05, 1.951171875) (-2.768296432495117e-05, 1.953125) (-2.55058479309082e-05, 1.955078125) (-2.3270776748657225e-05, 1.95703125) (-2.0988460540771483e-05, 1.958984375) (-1.8669696807861327e-05, 1.9609375) (-1.6325309753417967e-05, 1.962890625) (-1.396611976623535e-05, 1.96484375) (-1.1602936744689941e-05, 1.966796875) (-9.24642276763916e-06, 1.96875) (-6.906929016113281e-06, 1.970703125) (-4.594437599182128e-06, 1.97265625) (-2.3184823989868165e-06, 1.974609375) (-8.803673088550567e-08, 1.9765625) (2.0885109901428223e-06, 1.978515625) (4.203347206115722e-06, 1.98046875) (6.249312400817871e-06, 1.982421875) (8.219919204711913e-06, 1.984375) (1.010926628112793e-05, 1.986328125) (1.1912049293518066e-05, 1.98828125) (1.3623559951782226e-05, 1.990234375) (1.523967170715332e-05, 1.9921875) (1.675702667236328e-05, 1.994140625) (1.8173273086547852e-05, 1.99609375) (1.9487173080444337e-05, 1.998046875) (2.0698474884033204e-05, 2.0) (2.180794906616211e-05, 2.001953125) (2.281745719909668e-05, 2.00390625) (2.373003005981445e-05, 2.005859375) (2.4549903869628905e-05, 2.0078125) (2.528232192993164e-05, 2.009765625) (2.5933128356933593e-05, 2.01171875) (2.6508453369140625e-05, 2.013671875) (2.7014854431152342e-05, 2.015625) (2.7459335327148436e-05, 2.017578125) (2.784918212890625e-05, 2.01953125) (2.8191904067993162e-05, 2.021484375) (2.8495109558105468e-05, 2.0234375) (2.8766393661499024e-05, 2.025390625) (2.9013418197631833e-05, 2.02734375) (2.9244071960449216e-05, 2.029296875) (2.9466239929199218e-05, 2.03125) (2.9687519073486327e-05, 2.033203125) (2.991527557373047e-05, 2.03515625) (3.0156293869018554e-05, 2.037109375) (3.0416385650634763e-05, 2.0390625) (3.070049667358398e-05, 2.041015625) (3.1012592315673824e-05, 2.04296875) (3.135560417175293e-05, 2.044921875) (3.1731746673583983e-05, 2.046875) (3.214284896850586e-05, 2.048828125) (3.259040069580078e-05, 2.05078125) (3.307578659057617e-05, 2.052734375) (3.360055160522461e-05, 2.0546875) (3.4166419982910155e-05, 2.056640625) (3.4775279998779294e-05, 2.05859375) (3.542857360839844e-05, 2.060546875) (3.612725830078125e-05, 2.0625) (3.687110137939453e-05, 2.064453125) (3.765788650512695e-05, 2.06640625) (3.848462677001953e-05, 2.068359375) (3.934774017333984e-05, 2.0703125) (4.0243003845214844e-05, 2.072265625) (4.116751098632812e-05, 2.07421875) (4.2119495391845704e-05, 2.076171875) (4.30966796875e-05, 2.078125) (4.4096664428710936e-05, 2.080078125) (4.51175422668457e-05, 2.08203125) (4.615693664550781e-05, 2.083984375) (4.721196365356445e-05, 2.0859375) (4.82779312133789e-05, 2.087890625) (4.934391403198242e-05, 2.08984375) (5.0394359588623044e-05, 2.091796875) (5.141421508789062e-05, 2.09375) (5.239221954345703e-05, 2.095703125) (5.33233757019043e-05, 2.09765625) (5.420391845703125e-05, 2.099609375) (5.5029918670654296e-05, 2.1015625) (5.579901885986328e-05, 2.103515625) (5.650980758666992e-05, 2.10546875) (5.716663360595703e-05, 2.107421875) (5.777914428710937e-05, 2.109375) (5.8356597900390624e-05, 2.111328125) (5.890594482421875e-05, 2.11328125) (5.9432723999023435e-05, 2.115234375) (5.994069671630859e-05, 2.1171875) (6.0435626983642576e-05, 2.119140625) (6.0938392639160156e-05, 2.12109375) (6.147866821289063e-05, 2.123046875) (6.20787353515625e-05, 2.125) (6.274417877197266e-05, 2.126953125) (6.345862197875976e-05, 2.12890625) (6.420577239990234e-05, 2.130859375) (6.497351074218749e-05, 2.1328125) (6.575741577148437e-05, 2.134765625) (6.655879211425781e-05, 2.13671875) (6.733824157714843e-05, 2.138671875) (6.802859497070312e-05, 2.140625) (6.856152343749999e-05, 2.142578125) (6.885307312011718e-05, 2.14453125) (6.882583618164062e-05, 2.146484375) (6.843287658691406e-05, 2.1484375) (6.758502197265625e-05, 2.150390625) (6.614099884033203e-05, 2.15234375) (6.406369018554687e-05, 2.154296875) (6.141080093383788e-05, 2.15625) (5.835795211791992e-05, 2.158203125) (5.526558303833008e-05, 2.16015625) (5.241252899169922e-05, 2.162109375) (4.995240020751953e-05, 2.1640625) (4.8119537353515625e-05, 2.166015625) (4.708387756347656e-05, 2.16796875) (4.6740402221679686e-05, 2.169921875) (4.681109237670898e-05, 2.171875) (4.6686767578124996e-05, 2.173828125) (4.545276641845703e-05, 2.17578125) (4.252006530761718e-05, 2.177734375) (3.7495128631591794e-05, 2.1796875) (2.9917512893676757e-05, 2.181640625) (1.9767183303833008e-05, 2.18359375) (7.592328071594238e-06, 2.185546875) (-5.632413864135742e-06, 2.1875) (-1.824580192565918e-05, 2.189453125) (-2.8330894470214844e-05, 2.19140625) (-3.4429317474365236e-05, 2.193359375) (-3.501004028320312e-05, 2.1953125) (-2.8504577636718748e-05, 2.197265625) (-1.3997901916503906e-05, 2.19921875) (9.017431259155272e-06, 2.201171875) (4.007108688354492e-05, 2.203125) (7.745242309570312e-05, 2.205078125) (0.0001194892578125, 2.20703125) (0.0001632500305175781, 2.208984375) (0.00020495693969726562, 2.2109375) (0.00024234498596191405, 2.212890625) (0.0002722563781738281, 2.21484375) (0.0002937268371582031, 2.216796875) (0.00030689709472656246, 2.21875) (0.0003068253784179687, 2.220703125) (0.0002902052001953125, 2.22265625) (0.00025297096252441405, 2.224609375) (0.00019273829650878906, 2.2265625) (0.00011713421630859374, 2.228515625) (3.218077850341797e-05, 2.23046875) (-5.5169166564941405e-05, 2.232421875) (-0.00013838688659667967, 2.234375) (-0.00021820217895507813, 2.236328125) (-0.00028930377197265624, 2.23828125) (-0.00034589605712890626, 2.240234375) (-0.0003838048095703125, 2.2421875) (-0.00039642559814453125, 2.244140625) (-0.00038646954345703124, 2.24609375) (-0.0003593567199707031, 2.248046875) (-0.0003200443115234375, 2.25) (-0.00027590194702148434, 2.251953125) (-0.00022910771179199217, 2.25390625) (-0.0001814984130859375, 2.255859375) (-0.0001362779846191406, 2.2578125) (-9.528694152832031e-05, 2.259765625) (-6.198067474365234e-05, 2.26171875) (-3.850170516967773e-05, 2.263671875) (-2.4623016357421874e-05, 2.265625) (-1.9682666778564453e-05, 2.267578125) (-2.1657968521118163e-05, 2.26953125) (-2.7959669113159178e-05, 2.271484375) (-3.646597671508789e-05, 2.2734375) (-4.479017639160156e-05, 2.275390625) (-5.089384841918945e-05, 2.27734375) (-5.38076057434082e-05, 2.279296875) (-5.309104156494141e-05, 2.28125) (-4.882378387451172e-05, 2.283203125) (-4.1747806549072266e-05, 2.28515625) (-3.2800899505615234e-05, 2.287109375) (-2.304849624633789e-05, 2.2890625) (-1.38527774810791e-05, 2.291015625) (-6.232205390930176e-06, 2.29296875) (-6.26064658164978e-07, 2.294921875) (2.783240795135498e-06, 2.296875) (4.132855415344238e-06, 2.298828125) (3.778538227081299e-06, 2.30078125) (2.0703582763671875e-06, 2.302734375) (-5.166544914245605e-07, 2.3046875) (-3.342610120773315e-06, 2.306640625) (-5.940146923065185e-06, 2.30859375) (-8.060178756713867e-06, 2.310546875) (-9.558989524841309e-06, 2.3125) (-1.0450666427612305e-05, 2.314453125) (-1.0773784637451171e-05, 2.31640625) (-1.0511301040649414e-05, 2.318359375) (-9.696480751037597e-06, 2.3203125) (-8.40657901763916e-06, 2.322265625) (-6.694849014282226e-06, 2.32421875) (-4.610923290252685e-06, 2.326171875) (-2.200092792510986e-06, 2.328125) (5.226259231567383e-07, 2.330078125) (3.5212228298187255e-06, 2.33203125) (6.721566677093506e-06, 2.333984375) (1.0047639846801757e-05, 2.3359375) (1.3406003952026367e-05, 2.337890625) (1.66945686340332e-05, 2.33984375) (1.984430694580078e-05, 2.341796875) (2.2805423736572265e-05, 2.34375) (2.553896331787109e-05, 2.345703125) (2.8024642944335936e-05, 2.34765625) (3.024686813354492e-05, 2.349609375) (3.21922607421875e-05, 2.3515625) (3.386336135864258e-05, 2.353515625) (3.527638244628906e-05, 2.35546875) (3.644839477539062e-05, 2.357421875) (3.7400245666503905e-05, 2.359375) (3.815140533447265e-05, 2.361328125) (3.871820831298828e-05, 2.36328125) (3.912691497802734e-05, 2.365234375) (3.940983963012695e-05, 2.3671875) (3.9603420257568356e-05, 2.369140625) (3.974641418457031e-05, 2.37109375) (3.9866149902343746e-05, 2.373046875) (3.997947692871094e-05, 2.375) (4.00994873046875e-05, 2.376953125) (4.023528671264648e-05, 2.37890625) (4.039353942871093e-05, 2.380859375) (4.058034515380859e-05, 2.3828125) (4.0796104431152345e-05, 2.384765625) (4.103530502319336e-05, 2.38671875) (4.129547882080078e-05, 2.388671875) (4.1576560974121095e-05, 2.390625) (4.1879737854003906e-05, 2.392578125) (4.2208549499511716e-05, 2.39453125) (4.256407165527344e-05, 2.396484375) (4.294457244873047e-05, 2.3984375) (4.334844970703125e-05, 2.400390625) (4.377471542358398e-05, 2.40234375) (4.422353363037109e-05, 2.404296875) (4.469643783569336e-05, 2.40625) (4.519474411010742e-05, 2.408203125) (4.5719093322753903e-05, 2.41015625) (4.6270660400390626e-05, 2.412109375) (4.685105133056641e-05, 2.4140625) (4.746237182617187e-05, 2.416015625) (4.810718536376953e-05, 2.41796875) (4.8786460876464844e-05, 2.419921875) (4.949957275390625e-05, 2.421875) (5.024532318115234e-05, 2.423828125) (5.102193450927734e-05, 2.42578125) (5.182749938964843e-05, 2.427734375) (5.2660247802734374e-05, 2.4296875) (5.3517902374267576e-05, 2.431640625) (5.439771270751953e-05, 2.43359375) (5.5297374725341796e-05, 2.435546875) (5.621503829956055e-05, 2.4375) (5.714908981323242e-05, 2.439453125) (5.80982551574707e-05, 2.44140625) (5.9061141967773436e-05, 2.443359375) (6.0036155700683594e-05, 2.4453125) (6.102183532714843e-05, 2.447265625) (6.201691436767578e-05, 2.44921875) (6.302010345458984e-05, 2.451171875) (6.403005981445312e-05, 2.453125) (6.504535675048828e-05, 2.455078125) (6.606447601318359e-05, 2.45703125) (6.708589172363281e-05, 2.458984375) (6.810824584960937e-05, 2.4609375) (6.913018035888672e-05, 2.462890625) (7.015017700195312e-05, 2.46484375) (7.116670227050781e-05, 2.466796875) (7.217819213867187e-05, 2.46875) (7.318313598632812e-05, 2.470703125) (7.418022155761718e-05, 2.47265625) (7.516821289062499e-05, 2.474609375) (7.614593505859374e-05, 2.4765625) (7.711230468749999e-05, 2.478515625) (7.806642913818359e-05, 2.48046875) (7.900756072998047e-05, 2.482421875) (7.993524932861328e-05, 2.484375) (8.084909057617187e-05, 2.486328125) (8.174867248535156e-05, 2.48828125) (8.263358306884766e-05, 2.490234375) (8.350331115722656e-05, 2.4921875) (8.435731506347656e-05, 2.494140625) (8.519496917724609e-05, 2.49609375) (8.601546478271483e-05, 2.498046875) (8.681771087646484e-05, 2.5) (8.760047912597655e-05, 2.501953125) (8.836236572265625e-05, 2.50390625) (8.910195159912109e-05, 2.505859375) (8.981781005859374e-05, 2.5078125) (9.050849151611327e-05, 2.509765625) (9.117244720458983e-05, 2.51171875) (9.180815887451172e-05, 2.513671875) (9.241410064697265e-05, 2.515625) (9.298873901367187e-05, 2.517578125) (9.35305938720703e-05, 2.51953125) (9.40382080078125e-05, 2.521484375) (9.45100860595703e-05, 2.5234375) (9.494479370117187e-05, 2.525390625) (9.534091949462891e-05, 2.52734375) (9.569715881347656e-05, 2.529296875) (9.601231384277343e-05, 2.53125) (9.628522491455077e-05, 2.533203125) (9.651472473144531e-05, 2.53515625) (9.669960784912108e-05, 2.537109375) (9.683859252929686e-05, 2.5390625) (9.693033599853516e-05, 2.541015625) (9.697345733642578e-05, 2.54296875) (9.696648406982422e-05, 2.544921875) (9.690792846679687e-05, 2.546875) (9.679634857177734e-05, 2.548828125) (9.663038635253906e-05, 2.55078125) (9.640888214111328e-05, 2.552734375) (9.613094329833983e-05, 2.5546875) (9.579594421386718e-05, 2.556640625) (9.540345764160156e-05, 2.55859375) (9.495327758789062e-05, 2.560546875) (9.44454116821289e-05, 2.5625) (9.388002777099609e-05, 2.564453125) (9.32574462890625e-05, 2.56640625) (9.257806396484375e-05, 2.568359375) (9.184233856201171e-05, 2.5703125) (9.105082702636718e-05, 2.572265625) (9.02041778564453e-05, 2.57421875) (8.930318450927735e-05, 2.576171875) (8.834880065917968e-05, 2.578125) (8.734209442138672e-05, 2.580078125) (8.628428649902343e-05, 2.58203125) (8.517669677734375e-05, 2.583984375) (8.402071380615234e-05, 2.5859375) (8.281782531738281e-05, 2.587890625) (8.156960296630859e-05, 2.58984375) (8.027769470214843e-05, 2.591796875) (7.894384002685547e-05, 2.59375) (7.756991577148438e-05, 2.595703125) (7.615802001953125e-05, 2.59765625) (7.471046447753905e-05, 2.599609375) (7.322989654541015e-05, 2.6015625) (7.171923065185547e-05, 2.603515625) (7.018165588378906e-05, 2.60546875) (6.862056732177734e-05, 2.607421875) (6.703954315185546e-05, 2.609375) (6.544217681884765e-05, 2.611328125) (6.383212280273437e-05, 2.61328125) (6.221296691894531e-05, 2.615234375) (6.0588195800781245e-05, 2.6171875) (5.896112442016601e-05, 2.619140625) (5.733498001098633e-05, 2.62109375) (5.571290588378906e-05, 2.623046875) (5.4097980499267573e-05, 2.625) (5.249328231811523e-05, 2.626953125) (5.09018440246582e-05, 2.62890625) (4.9326671600341795e-05, 2.630859375) (4.777072143554687e-05, 2.6328125) (4.623691177368164e-05, 2.634765625) (4.472808837890625e-05, 2.63671875) (4.324699783325195e-05, 2.638671875) (4.179625701904297e-05, 2.640625) (4.037837600708008e-05, 2.642578125) (3.899576187133789e-05, 2.64453125) (3.765074920654297e-05, 2.646484375) (3.634561538696289e-05, 2.6484375) (3.508258056640625e-05, 2.650390625) (3.3863758087158204e-05, 2.65234375) (3.269111251831055e-05, 2.654296875) (3.1566425323486326e-05, 2.65625) (3.0491226196289062e-05, 2.658203125) (2.9466737747192382e-05, 2.66015625) (2.8493825912475583e-05, 2.662109375) (2.7572948455810546e-05, 2.6640625) (2.6704128265380858e-05, 2.666015625) (2.588699913024902e-05, 2.66796875) (2.5120845794677734e-05, 2.669921875) (2.4404661178588867e-05, 2.671875) (2.3737194061279297e-05, 2.673828125) (2.3116989135742186e-05, 2.67578125) (2.254242706298828e-05, 2.677734375) (2.201175308227539e-05, 2.6796875) (2.1523094177246094e-05, 2.681640625) (2.1074474334716797e-05, 2.68359375) (2.0663795471191404e-05, 2.685546875) (2.0288818359375e-05, 2.6875) (1.994716453552246e-05, 2.689453125) (1.9636335372924804e-05, 2.69140625) (1.9353736877441406e-05, 2.693359375) (1.9096714019775388e-05, 2.6953125) (1.8862552642822265e-05, 2.697265625) (1.8648475646972657e-05, 2.69921875) (1.8451658248901367e-05, 2.701171875) (1.826923370361328e-05, 2.703125) (1.8098289489746094e-05, 2.705078125) (1.793585205078125e-05, 2.70703125) (1.777887535095215e-05, 2.708984375) (1.762423324584961e-05, 2.7109375) (1.7468734741210936e-05, 2.712890625) (1.7309162139892576e-05, 2.71484375) (1.714234161376953e-05, 2.716796875) (1.6965175628662107e-05, 2.71875) (1.6774698257446288e-05, 2.720703125) (1.6568117141723633e-05, 2.72265625) (1.6342845916748047e-05, 2.724609375) (1.6096553802490235e-05, 2.7265625) (1.582719039916992e-05, 2.728515625) (1.5532986640930173e-05, 2.73046875) (1.521244716644287e-05, 2.732421875) (1.4864322662353515e-05, 2.734375) (1.44876070022583e-05, 2.736328125) (1.4081524848937988e-05, 2.73828125) (1.3645538330078125e-05, 2.740234375) (1.3179322242736816e-05, 2.7421875) (1.2682741165161132e-05, 2.744140625) (1.215582275390625e-05, 2.74609375) (1.159873867034912e-05, 2.748046875) (1.1011795043945313e-05, 2.75) (1.0395431518554687e-05, 2.751953125) (9.75018310546875e-06, 2.75390625) (9.076671600341796e-06, 2.755859375) (8.375579833984375e-06, 2.7578125) (7.64763832092285e-06, 2.759765625) (6.893640518188476e-06, 2.76171875) (6.114459991455078e-06, 2.763671875) (5.311046123504639e-06, 2.765625) (4.484426498413086e-06, 2.767578125) (3.63570237159729e-06, 2.76953125) (2.7660412788391114e-06, 2.771484375) (1.8766846656799315e-06, 2.7734375) (9.689576029777527e-07, 2.775390625) (4.425027966499329e-08, 2.77734375) (-8.960041999816894e-07, 2.779296875) (-1.8503549098968505e-06, 2.78125) (-2.817349910736084e-06, 2.783203125) (-3.795539855957031e-06, 2.78515625) (-4.783491134643555e-06, 2.787109375) (-5.7798109054565425e-06, 2.7890625) (-6.7831888198852535e-06, 2.791015625) (-7.7924222946167e-06, 2.79296875) (-8.806447982788086e-06, 2.794921875) (-9.824350357055663e-06, 2.796875) (-1.084537124633789e-05, 2.798828125) (-1.1868919372558593e-05, 2.80078125) (-1.2894563674926758e-05, 2.802734375) (-1.392202377319336e-05, 2.8046875) (-1.4951129913330078e-05, 2.806640625) (-1.5981796264648437e-05, 2.80859375) (-1.7013954162597655e-05, 2.810546875) (-1.8047517776489258e-05, 2.8125) (-1.90823917388916e-05, 2.814453125) (-2.0118432998657226e-05, 2.81640625) (-2.1155467987060545e-05, 2.818359375) (-2.2193260192871093e-05, 2.8203125) (-2.3231460571289062e-05, 2.822265625) (-2.4269611358642578e-05, 2.82421875) (-2.530714225769043e-05, 2.826171875) (-2.6343414306640625e-05, 2.828125) (-2.737766647338867e-05, 2.830078125) (-2.8409015655517578e-05, 2.83203125) (-2.943640899658203e-05, 2.833984375) (-3.045863342285156e-05, 2.8359375) (-3.1474403381347656e-05, 2.837890625) (-3.248239135742187e-05, 2.83984375) (-3.348126220703125e-05, 2.841796875) (-3.446963119506836e-05, 2.84375) (-3.544609069824218e-05, 2.845703125) (-3.6409210205078126e-05, 2.84765625) (-3.735754776000976e-05, 2.849609375) (-3.8289691925048824e-05, 2.8515625) (-3.92042121887207e-05, 2.853515625) (-4.0099613189697264e-05, 2.85546875) (-4.097427368164062e-05, 2.857421875) (-4.182643508911133e-05, 2.859375) (-4.265420150756836e-05, 2.861328125) (-4.345557785034179e-05, 2.86328125) (-4.422850036621093e-05, 2.865234375) (-4.497084045410156e-05, 2.8671875) (-4.568037033081054e-05, 2.869140625) (-4.635480499267578e-05, 2.87109375) (-4.6991916656494136e-05, 2.873046875) (-4.7589618682861325e-05, 2.875) (-4.814597702026367e-05, 2.876953125) (-4.865919113159179e-05, 2.87890625) (-4.9127601623535155e-05, 2.880859375) (-4.9549713134765625e-05, 2.8828125) (-4.992436218261719e-05, 2.884765625) (-5.0250816345214844e-05, 2.88671875) (-5.052872848510742e-05, 2.888671875) (-5.075803756713867e-05, 2.890625) (-5.093904495239258e-05, 2.892578125) (-5.1072479248046875e-05, 2.89453125) (-5.115954208374023e-05, 2.896484375) (-5.120193099975586e-05, 2.8984375) (-5.120161437988281e-05, 2.900390625) (-5.116072082519531e-05, 2.90234375) (-5.1081478118896485e-05, 2.904296875) (-5.096635437011719e-05, 2.90625) (-5.0818096160888666e-05, 2.908203125) (-5.063972473144531e-05, 2.91015625) (-5.043447113037109e-05, 2.912109375) (-5.020561599731445e-05, 2.9140625) (-4.995656967163086e-05, 2.916015625) (-4.9690887451171876e-05, 2.91796875) (-4.941236495971679e-05, 2.919921875) (-4.9125080108642574e-05, 2.921875) (-4.8833251953125e-05, 2.923828125) (-4.8541156768798824e-05, 2.92578125) (-4.8253143310546874e-05, 2.927734375) (-4.797361755371094e-05, 2.9296875) (-4.770719146728515e-05, 2.931640625) (-4.745870590209961e-05, 2.93359375) (-4.7233062744140626e-05, 2.935546875) (-4.7034896850585934e-05, 2.9375) (-4.686875534057617e-05, 2.939453125) (-4.673905944824219e-05, 2.94140625) (-4.6650054931640625e-05, 2.943359375) (-4.6605819702148435e-05, 2.9453125) (-4.6609897613525385e-05, 2.947265625) (-4.666497039794922e-05, 2.94921875) (-4.6773197174072264e-05, 2.951171875) (-4.6936447143554685e-05, 2.953125) (-4.71559944152832e-05, 2.955078125) (-4.743241882324218e-05, 2.95703125) (-4.776543807983398e-05, 2.958984375) (-4.815392684936523e-05, 2.9609375) (-4.8596736907958984e-05, 2.962890625) (-4.909305191040039e-05, 2.96484375) (-4.9641899108886716e-05, 2.966796875) (-5.024164581298828e-05, 2.96875) (-5.088999938964844e-05, 2.970703125) (-5.1584228515624994e-05, 2.97265625) (-5.2321701049804684e-05, 2.974609375) (-5.309991455078125e-05, 2.9765625) (-5.3915260314941404e-05, 2.978515625) (-5.4762695312499995e-05, 2.98046875) (-5.5635963439941404e-05, 2.982421875) (-5.652837371826172e-05, 2.984375) (-5.743392562866211e-05, 2.986328125) (-5.8347225189208984e-05, 2.98828125) (-5.926273345947265e-05, 2.990234375) (-6.017428588867187e-05, 2.9921875) (-6.107543945312499e-05, 2.994140625) (-6.195939636230468e-05, 2.99609375) (-6.282083892822265e-05, 2.998046875) (-6.365609741210937e-05, 3.0) (-6.445963287353515e-05, 3.001953125) (-6.522358703613281e-05, 3.00390625) (-6.593712615966796e-05, 3.005859375) (-6.658865356445312e-05, 3.0078125) (-6.717181396484375e-05, 3.009765625) (-6.768716430664062e-05, 3.01171875) (-6.813874053955077e-05, 3.013671875) (-6.852854919433593e-05, 3.015625) (-6.885755157470703e-05, 3.017578125) (-6.912722778320312e-05, 3.01953125) (-6.934304809570312e-05, 3.021484375) (-6.9514404296875e-05, 3.0234375) (-6.964556884765625e-05, 3.025390625) (-6.9732421875e-05, 3.02734375) (-6.976161956787109e-05, 3.029296875) (-6.971875e-05, 3.03125) (-6.959819030761718e-05, 3.033203125) (-6.940371704101562e-05, 3.03515625) (-6.914808654785156e-05, 3.037109375) (-6.884374237060546e-05, 3.0390625) (-6.849376678466797e-05, 3.041015625) (-6.809136962890624e-05, 3.04296875) (-6.762741088867188e-05, 3.044921875) (-6.709976959228515e-05, 3.046875) (-6.650608825683594e-05, 3.048828125) (-6.58380889892578e-05, 3.05078125) (-6.507544708251953e-05, 3.052734375) (-6.419195556640624e-05, 3.0546875) (-6.317900085449219e-05, 3.056640625) (-6.205427551269531e-05, 3.05859375) (-6.0857902526855467e-05, 3.060546875) (-5.962855529785156e-05, 3.0625) (-5.8389808654785155e-05, 3.064453125) (-5.715284729003906e-05, 3.06640625) (-5.591784286499023e-05, 3.068359375) (-5.4689968109130857e-05, 3.0703125) (-5.348491668701172e-05, 3.072265625) (-5.2321002960205075e-05, 3.07421875) (-5.1212730407714844e-05, 3.076171875) (-5.0168304443359375e-05, 3.078125) (-4.920021057128906e-05, 3.080078125) (-4.833691787719726e-05, 3.08203125) (-4.76310806274414e-05, 3.083984375) (-4.7137939453125e-05, 3.0859375) (-4.688273239135742e-05, 3.087890625) (-4.685329437255859e-05, 3.08984375) (-4.7006587982177734e-05, 3.091796875) (-4.730165100097656e-05, 3.09375) (-4.771361541748047e-05, 3.095703125) (-4.8219039916992184e-05, 3.09765625) (-4.879206085205078e-05, 3.099609375) (-4.939772796630859e-05, 3.1015625) (-4.9992782592773434e-05, 3.103515625) (-5.05458869934082e-05, 3.10546875) (-5.1040245056152344e-05, 3.107421875) (-5.1457244873046874e-05, 3.109375) (-5.17724609375e-05, 3.111328125) (-5.194328689575195e-05, 3.11328125) (-5.1898212432861324e-05, 3.115234375) (-5.157403564453125e-05, 3.1171875) (-5.0952789306640626e-05, 3.119140625) (-5.005453872680664e-05, 3.12109375) (-4.892522048950195e-05, 3.123046875) (-4.761882019042968e-05, 3.125) (-4.616823577880859e-05, 3.126953125) (-4.4611827850341796e-05, 3.12890625) (-4.3036342620849605e-05, 3.130859375) (-4.155429077148437e-05, 3.1328125) (-4.028151702880859e-05, 3.134765625) (-3.932558441162109e-05, 3.13671875) (-3.876864624023437e-05, 3.138671875) (-3.866379165649414e-05, 3.140625) (-3.9106220245361324e-05, 3.142578125) (-4.024944305419922e-05, 3.14453125) (-4.21550178527832e-05, 3.146484375) (-4.478663635253906e-05, 3.1484375) (-4.79813232421875e-05, 3.150390625) (-5.1395080566406247e-05, 3.15234375) (-5.474093627929687e-05, 3.154296875) (-5.788927841186523e-05, 3.15625) (-6.0620109558105466e-05, 3.158203125) (-6.262850952148437e-05, 3.16015625) (-6.386639404296875e-05, 3.162109375) (-6.441182708740234e-05, 3.1640625) (-6.462049865722656e-05, 3.166015625) (-6.535197448730468e-05, 3.16796875) (-6.717951202392578e-05, 3.169921875) (-7.025892639160156e-05, 3.171875) (-7.48921661376953e-05, 3.173828125) (-8.125323486328125e-05, 3.17578125) (-8.896676635742187e-05, 3.177734375) (-9.750475311279296e-05, 3.1796875) (-0.00010576132202148437, 3.181640625) (-0.00011170423889160156, 3.18359375) (-0.00011373060607910156, 3.185546875) (-0.00011068357849121093, 3.1875) (-0.00010128202056884765, 3.189453125) (-8.454138183593749e-05, 3.19140625) (-5.988972854614258e-05, 3.193359375) (-2.6991609573364258e-05, 3.1953125) (1.3546246528625488e-05, 3.197265625) (5.8705062866210936e-05, 3.19921875) (0.00010439107513427734, 3.201171875) (0.00014709185791015624, 3.203125) (0.0001840745849609375, 3.205078125) (0.00021609967041015624, 3.20703125) (0.00024566937255859374, 3.208984375) (0.0002715511169433594, 3.2109375) (0.0002891547241210937, 3.212890625) (0.0002897244873046875, 3.21484375) (0.0002628419494628906, 3.216796875) (0.0002052767333984375, 3.21875) (0.00011967840576171874, 3.220703125) (1.340523910522461e-05, 3.22265625) (-0.0001005519027709961, 3.224609375) (-0.0002112206573486328, 3.2265625) (-0.00030803808593749996, 3.228515625) (-0.00037980941772460935, 3.23046875) (-0.00042158843994140625, 3.232421875) (-0.0004324918212890625, 3.234375) (-0.00041678475952148435, 3.236328125) (-0.0003843421020507812, 3.23828125) (-0.00034543276977539063, 3.240234375) (-0.00030941903686523435, 3.2421875) (-0.0002823153381347656, 3.244140625) (-0.00026725854492187497, 3.24609375) (-0.00026242803955078126, 3.248046875) (-0.0002613712158203125, 3.25) (-0.00025909381103515625, 3.251953125) (-0.00025044972229003906, 3.25390625) (-0.00023419412231445312, 3.255859375) (-0.0002145606994628906, 3.2578125) (-0.00019383712768554688, 3.259765625) (-0.00017368417358398436, 3.26171875) (-0.00015491000366210937, 3.263671875) (-0.0001357995910644531, 3.265625) (-0.00011647273254394531, 3.267578125) (-9.879486083984375e-05, 3.26953125) (-8.39416046142578e-05, 3.271484375) (-7.291957092285155e-05, 3.2734375) (-6.602139282226563e-05, 3.275390625) (-6.237382507324218e-05, 3.27734375) (-6.127156066894532e-05, 3.279296875) (-6.236414718627929e-05, 3.28125) (-6.481031799316407e-05, 3.283203125) (-6.74551544189453e-05, 3.28515625) (-6.955979919433593e-05, 3.287109375) (-7.06737060546875e-05, 3.2890625) (-7.083142852783203e-05, 3.291015625) (-7.070098876953124e-05, 3.29296875) (-7.064529418945312e-05, 3.294921875) (-7.066851043701172e-05, 3.296875) (-7.089895629882813e-05, 3.298828125) (-7.145406341552734e-05, 3.30078125) (-7.235246276855468e-05, 3.302734375) (-7.360922241210937e-05, 3.3046875) (-7.499777984619141e-05, 3.306640625) (-7.603205871582031e-05, 3.30859375) (-7.644541931152343e-05, 3.310546875) (-7.616983032226562e-05, 3.3125) (-7.518474578857421e-05, 3.314453125) (-7.35800323486328e-05, 3.31640625) (-7.143452453613281e-05, 3.318359375) (-6.878720092773437e-05, 3.3203125) (-6.575519561767578e-05, 3.322265625) (-6.251586151123047e-05, 3.32421875) (-5.9197998046875e-05, 3.326171875) (-5.589147567749023e-05, 3.328125) (-5.266133117675781e-05, 3.330078125) (-4.953691864013672e-05, 3.33203125) (-4.6569461822509766e-05, 3.333984375) (-4.382518768310547e-05, 3.3359375) (-4.135020446777344e-05, 3.337890625) (-3.9179256439208985e-05, 3.33984375) (-3.731966781616211e-05, 3.341796875) (-3.575099182128906e-05, 3.34375) (-3.4453704833984374e-05, 3.345703125) (-3.3405250549316404e-05, 3.34765625) (-3.256370162963867e-05, 3.349609375) (-3.1879791259765626e-05, 3.3515625) (-3.1299125671386715e-05, 3.353515625) (-3.0758096694946286e-05, 3.35546875) (-3.0225296020507812e-05, 3.357421875) (-2.9701995849609375e-05, 3.359375) (-2.918085479736328e-05, 3.361328125) (-2.865320587158203e-05, 3.36328125) (-2.8106525421142577e-05, 3.365234375) (-2.7517913818359373e-05, 3.3671875) (-2.6877399444580077e-05, 3.369140625) (-2.6186412811279297e-05, 3.37109375) (-2.54450569152832e-05, 3.373046875) (-2.4656646728515622e-05, 3.375) (-2.382375144958496e-05, 3.376953125) (-2.294516181945801e-05, 3.37890625) (-2.203481674194336e-05, 3.380859375) (-2.111712837219238e-05, 3.3828125) (-2.0215507507324216e-05, 3.384765625) (-1.9359498977661133e-05, 3.38671875) (-1.8554069519042967e-05, 3.388671875) (-1.777617835998535e-05, 3.390625) (-1.7012382507324218e-05, 3.392578125) (-1.6253461837768554e-05, 3.39453125) (-1.5492084503173827e-05, 3.396484375) (-1.4730983734130859e-05, 3.3984375) (-1.3965349197387695e-05, 3.400390625) (-1.3181184768676758e-05, 3.40234375) (-1.2375470161437988e-05, 3.404296875) (-1.15531644821167e-05, 3.40625) (-1.0718487739562988e-05, 3.408203125) (-9.879340171813964e-06, 3.41015625) (-9.034915924072266e-06, 3.412109375) (-8.174962997436524e-06, 3.4140625) (-7.2922439575195306e-06, 3.416015625) (-6.378734588623046e-06, 3.41796875) (-5.4361944198608395e-06, 3.419921875) (-4.479081630706787e-06, 3.421875) (-3.517392873764038e-06, 3.423828125) (-2.5578203201293944e-06, 3.42578125) (-1.6073157787322997e-06, 3.427734375) (-6.695053577423096e-07, 3.4296875) (2.4951905012130737e-07, 3.431640625) (1.1394309997558593e-06, 3.43359375) (1.997358202934265e-06, 3.435546875) (2.8274245262145997e-06, 3.4375) (3.63254976272583e-06, 3.439453125) (4.416456699371338e-06, 3.44140625) (5.179949283599853e-06, 3.443359375) (5.919468879699707e-06, 3.4453125) (6.633560180664062e-06, 3.447265625) (7.322306632995605e-06, 3.44921875) (7.986744880676269e-06, 3.451171875) (8.629966735839843e-06, 3.453125) (9.254605293273926e-06, 3.455078125) (9.862453460693358e-06, 3.45703125) (1.0456586837768554e-05, 3.458984375) (1.1040884017944336e-05, 3.4609375) (1.1619583129882812e-05, 3.462890625) (1.2197830200195311e-05, 3.46484375) (1.2778958320617675e-05, 3.466796875) (1.3364192962646483e-05, 3.46875) (1.395536708831787e-05, 3.470703125) (1.4554614067077636e-05, 3.47265625) (1.5164333343505858e-05, 3.474609375) (1.578765392303467e-05, 3.4765625) (1.6427120208740233e-05, 3.478515625) (1.7084465026855467e-05, 3.48046875) (1.7761995315551757e-05, 3.482421875) (1.8462421417236326e-05, 3.484375) (1.918789482116699e-05, 3.486328125) (1.9940177917480467e-05, 3.48828125) (2.072011947631836e-05, 3.490234375) (2.1527482986450194e-05, 3.4921875) (2.236166000366211e-05, 3.494140625) (2.3221679687499998e-05, 3.49609375) (2.4105918884277343e-05, 3.498046875) (2.501226234436035e-05, 3.5) (2.5938182830810544e-05, 3.501953125) (2.688069725036621e-05, 3.50390625) (2.7836585998535154e-05, 3.505859375) (2.8802373886108397e-05, 3.5078125) (2.9774126052856443e-05, 3.509765625) (3.074745750427246e-05, 3.51171875) (3.171754455566406e-05, 3.513671875) (3.267911911010742e-05, 3.515625) (3.362654113769531e-05, 3.517578125) (3.4553871154785156e-05, 3.51953125) (3.545484924316406e-05, 3.521484375) (3.6323009490966794e-05, 3.5234375) (3.715182113647461e-05, 3.525390625) (3.793473434448242e-05, 3.52734375) (3.8665309906005856e-05, 3.529296875) (3.933725357055664e-05, 3.53125) (3.994429397583008e-05, 3.533203125) (4.048018646240234e-05, 3.53515625) (4.093885040283203e-05, 3.537109375) (4.1314369201660155e-05, 3.5390625) (4.16010513305664e-05, 3.541015625) (4.179355621337891e-05, 3.54296875) (4.188676452636719e-05, 3.544921875) (4.187588500976562e-05, 3.546875) (4.1756797790527344e-05, 3.548828125) (4.1526092529296876e-05, 3.55078125) (4.1181137084960934e-05, 3.552734375) (4.0720130920410157e-05, 3.5546875) (4.014197158813476e-05, 3.556640625) (3.944624328613281e-05, 3.55859375) (3.863333129882812e-05, 3.560546875) (3.7704368591308595e-05, 3.5625) (3.66611328125e-05, 3.564453125) (3.550606536865234e-05, 3.56640625) (3.424225616455078e-05, 3.568359375) (3.2873466491699214e-05, 3.5703125) (3.140423393249511e-05, 3.572265625) (2.9839881896972655e-05, 3.57421875) (2.8186508178710935e-05, 3.576171875) (2.6450952529907224e-05, 3.578125) (2.4640724182128904e-05, 3.580078125) (2.2763944625854492e-05, 3.58203125) (2.082927322387695e-05, 3.583984375) (1.88458251953125e-05, 3.5859375) (1.6823057174682616e-05, 3.587890625) (1.4770718574523925e-05, 3.58984375) (1.2698789596557616e-05, 3.591796875) (1.0617461204528808e-05, 3.59375) (8.537147521972656e-06, 3.595703125) (6.468454360961914e-06, 3.59765625) (4.422126770019531e-06, 3.599609375) (2.408990383148193e-06, 3.6015625) (4.398597776889801e-07, 3.603515625) (-1.4745609760284422e-06, 3.60546875) (-3.3237688541412353e-06, 3.607421875) (-5.097588539123535e-06, 3.609375) (-6.786314487457275e-06, 3.611328125) (-8.380789756774901e-06, 3.61328125) (-9.872466087341309e-06, 3.615234375) (-1.125343608856201e-05, 3.6171875) (-1.2516434669494629e-05, 3.619140625) (-1.3654851913452148e-05, 3.62109375) (-1.4662746429443358e-05, 3.623046875) (-1.5534854888916016e-05, 3.625) (-1.6266601562499998e-05, 3.626953125) (-1.6854133605957032e-05, 3.62890625) (-1.7294368743896485e-05, 3.630859375) (-1.7585062026977537e-05, 3.6328125) (-1.7724849700927734e-05, 3.634765625) (-1.7713260650634764e-05, 3.63671875) (-1.755072021484375e-05, 3.638671875) (-1.7238521575927735e-05, 3.640625) (-1.6778783798217774e-05, 3.642578125) (-1.617441177368164e-05, 3.64453125) (-1.5429005622863768e-05, 3.646484375) (-1.4546804428100586e-05, 3.6484375) (-1.3532630920410156e-05, 3.650390625) (-1.2391857147216796e-05, 3.65234375) (-1.1130402565002441e-05, 3.654296875) (-9.754721641540527e-06, 3.65625) (-8.271806716918945e-06, 3.658203125) (-6.689159393310547e-06, 3.66015625) (-5.014763832092285e-06, 3.662109375) (-3.2570371627807618e-06, 3.6640625) (-1.42476224899292e-06, 3.666015625) (4.7299161553382874e-07, 3.66796875) (2.4269773960113523e-06, 3.669921875) (4.427872657775879e-06, 3.671875) (6.4663615226745605e-06, 3.673828125) (8.533199310302735e-06, 3.67578125) (1.0619256973266601e-05, 3.677734375) (1.2715550422668457e-05, 3.6796875) (1.4813272476196288e-05, 3.681640625) (1.6903823852539063e-05, 3.68359375) (1.8978837966918945e-05, 3.685546875) (2.1030202865600587e-05, 3.6875) (2.3050107955932616e-05, 3.689453125) (2.5031120300292966e-05, 3.69140625) (2.696623992919922e-05, 3.693359375) (2.8848995208740232e-05, 3.6953125) (3.0673480987548824e-05, 3.697265625) (3.243437576293945e-05, 3.69921875) (3.4126972198486325e-05, 3.701171875) (3.574713516235351e-05, 3.703125) (3.7291332244873045e-05, 3.705078125) (3.875658798217773e-05, 3.70703125) (4.014042663574219e-05, 3.708984375) (4.144086456298828e-05, 3.7109375) (4.265634155273437e-05, 3.712890625) (4.378577423095703e-05, 3.71484375) (4.482854461669922e-05, 3.716796875) (4.578453063964843e-05, 3.71875) (4.665411758422851e-05, 3.720703125) (4.743817520141601e-05, 3.72265625) (4.813807678222656e-05, 3.724609375) (4.875564575195312e-05, 3.7265625) (4.929317474365234e-05, 3.728515625) (4.9753326416015625e-05, 3.73046875) (5.013911437988281e-05, 3.732421875) (5.0453804016113276e-05, 3.734375) (5.0700885772705074e-05, 3.736328125) (5.0884044647216794e-05, 3.73828125) (5.100714874267578e-05, 3.740234375) (5.1074230194091794e-05, 3.7421875) (5.1089469909667965e-05, 3.744140625) (5.1057182312011715e-05, 3.74609375) (5.0981769561767574e-05, 3.748046875) (5.086769866943359e-05, 3.75) (5.071949005126953e-05, 3.751953125) (5.0541610717773434e-05, 3.75390625) (5.033842086791992e-05, 3.755859375) (5.011409759521484e-05, 3.7578125) (4.987257385253906e-05, 3.759765625) (4.9617523193359374e-05, 3.76171875) (4.935235214233398e-05, 3.763671875) (4.9080177307128904e-05, 3.765625) (4.880381774902344e-05, 3.767578125) (4.852583312988281e-05, 3.76953125) (4.824850082397461e-05, 3.771484375) (4.797386932373047e-05, 3.7734375) (4.770375442504883e-05, 3.775390625) (4.7439723968505856e-05, 3.77734375) (4.718306732177734e-05, 3.779296875) (4.693478012084961e-05, 3.78125) (4.6695526123046875e-05, 3.783203125) (4.646566390991211e-05, 3.78515625) (4.6245262145996095e-05, 3.787109375) (4.6034076690673824e-05, 3.7890625) (4.583161926269531e-05, 3.791015625) (4.5637123107910154e-05, 3.79296875) (4.544965744018554e-05, 3.794921875) (4.526809310913086e-05, 3.796875) (4.50911979675293e-05, 3.798828125) (4.49176025390625e-05, 3.80078125) (4.4745811462402345e-05, 3.802734375) (4.457416534423828e-05, 3.8046875) (4.440089797973633e-05, 3.806640625) (4.422409057617187e-05, 3.80859375) (4.4041748046875e-05, 3.810546875) (4.385174942016601e-05, 3.8125) (4.3651939392089845e-05, 3.814453125) (4.344011306762695e-05, 3.81640625) (4.321413421630859e-05, 3.818359375) (4.297195434570312e-05, 3.8203125) (4.271167373657226e-05, 3.822265625) (4.2431556701660154e-05, 3.82421875) (4.213003921508789e-05, 3.826171875) (4.180574798583984e-05, 3.828125) (4.145749664306641e-05, 3.830078125) (4.108430480957031e-05, 3.83203125) (4.0685401916503904e-05, 3.833984375) (4.026019668579102e-05, 3.8359375) (3.980833053588867e-05, 3.837890625) (3.932966613769531e-05, 3.83984375) (3.8824340820312496e-05, 3.841796875) (3.8292778015136716e-05, 3.84375) (3.7735710144042966e-05, 3.845703125) (3.715418243408203e-05, 3.84765625) (3.654951477050781e-05, 3.849609375) (3.5923271179199215e-05, 3.8515625) (3.527726364135742e-05, 3.853515625) (3.461347198486328e-05, 3.85546875) (3.3934032440185545e-05, 3.857421875) (3.324118041992187e-05, 3.859375) (3.2537223815917965e-05, 3.861328125) (3.1824541091918944e-05, 3.86328125) (3.1105581283569335e-05, 3.865234375) (3.0382871627807614e-05, 3.8671875) (2.9659029006958007e-05, 3.869140625) (2.8936744689941404e-05, 3.87109375) (2.8218769073486326e-05, 3.873046875) (2.7507905960083008e-05, 3.875) (2.68070011138916e-05, 3.876953125) (2.6118888854980466e-05, 3.87890625) (2.5446372985839842e-05, 3.880859375) (2.4792205810546874e-05, 3.8828125) (2.4159019470214842e-05, 3.884765625) (2.354935073852539e-05, 3.88671875) (2.296564483642578e-05, 3.888671875) (2.2410236358642575e-05, 3.890625) (2.1885345458984374e-05, 3.892578125) (2.139307975769043e-05, 3.89453125) (2.093539810180664e-05, 3.896484375) (2.051409912109375e-05, 3.8984375) (2.0130786895751954e-05, 3.900390625) (1.9786792755126952e-05, 3.90234375) (1.948314094543457e-05, 3.904296875) (1.9220518112182615e-05, 3.90625) (1.8999223709106445e-05, 3.908203125) (1.8819154739379883e-05, 3.91015625) (1.867985153198242e-05, 3.912109375) (1.8580472946166993e-05, 3.9140625) (1.8519861221313475e-05, 3.916015625) (1.8496625900268555e-05, 3.91796875) (1.8509140014648437e-05, 3.919921875) (1.8555604934692384e-05, 3.921875) (1.8634111404418945e-05, 3.923828125) (1.8742595672607422e-05, 3.92578125) (1.8878898620605466e-05, 3.927734375) (1.9040771484374998e-05, 3.9296875) (1.922580337524414e-05, 3.931640625) (1.9431489944458008e-05, 3.93359375) (1.9655296325683593e-05, 3.935546875) (1.9894611358642577e-05, 3.9375) (2.0146799087524415e-05, 3.939453125) (2.040926933288574e-05, 3.94140625) (2.0679409027099608e-05, 3.943359375) (2.0954654693603515e-05, 3.9453125) (2.1232601165771483e-05, 3.947265625) (2.151084518432617e-05, 3.94921875) (2.1786991119384766e-05, 3.951171875) (2.2058698654174805e-05, 3.953125) (2.2323593139648437e-05, 3.955078125) (2.2579280853271485e-05, 3.95703125) (2.2823450088500976e-05, 3.958984375) (2.3053817749023435e-05, 3.9609375) (2.32681827545166e-05, 3.962890625) (2.3464651107788085e-05, 3.96484375) (2.3641597747802732e-05, 3.966796875) (2.3797748565673826e-05, 3.96875) (2.393232536315918e-05, 3.970703125) (2.4045026779174802e-05, 3.97265625) (2.4136066436767577e-05, 3.974609375) (2.420625305175781e-05, 3.9765625) (2.4256855010986327e-05, 3.978515625) (2.4289459228515625e-05, 3.98046875) (2.430611801147461e-05, 3.982421875) (2.4309173583984372e-05, 3.984375) (2.430118942260742e-05, 3.986328125) (2.428509521484375e-05, 3.98828125) (2.4263938903808594e-05, 3.990234375) (2.424094772338867e-05, 3.9921875) (2.421973991394043e-05, 3.994140625) (2.420409393310547e-05, 3.99609375) (2.4197784423828124e-05, 3.998046875) (2.420473861694336e-05, 4.0) (2.422888946533203e-05, 4.001953125) (2.427398681640625e-05, 4.00390625) (2.4343946456909177e-05, 4.005859375) (2.444253158569336e-05, 4.0078125) (2.4573051452636717e-05, 4.009765625) (2.4738822937011717e-05, 4.01171875) (2.494309616088867e-05, 4.013671875) (2.5188941955566403e-05, 4.015625) (2.5479593276977538e-05, 4.017578125) (2.581829071044922e-05, 4.01953125) (2.620801544189453e-05, 4.021484375) (2.6651784896850584e-05, 4.0234375) (2.7152557373046873e-05, 4.025390625) (2.7712800979614258e-05, 4.02734375) (2.8334766387939452e-05, 4.029296875) (2.9020275115966795e-05, 4.03125) (2.9770355224609372e-05, 4.033203125) (3.0585357666015626e-05, 4.03515625) (3.146474266052246e-05, 4.037109375) (3.2406890869140625e-05, 4.0390625) (3.340955352783203e-05, 4.041015625) (3.446998596191406e-05, 4.04296875) (3.558435821533203e-05, 4.044921875) (3.674811553955078e-05, 4.046875) (3.795610427856445e-05, 4.048828125) (3.920265960693359e-05, 4.05078125) (4.048252868652344e-05, 4.052734375) (4.179083251953125e-05, 4.0546875) (4.3122398376464844e-05, 4.056640625) (4.4471645355224604e-05, 4.05859375) (4.5833114624023435e-05, 4.060546875) (4.7201366424560545e-05, 4.0625) (4.8571228027343745e-05, 4.064453125) (4.9937797546386714e-05, 4.06640625) (5.129524993896484e-05, 4.068359375) (5.263676834106445e-05, 4.0703125) (5.39554214477539e-05, 4.072265625) (5.524494171142578e-05, 4.07421875) (5.6499725341796875e-05, 4.076171875) (5.77160530090332e-05, 4.078125) (5.889179611206054e-05, 4.080078125) (6.002352142333984e-05, 4.08203125) (6.110737991333008e-05, 4.083984375) (6.213799667358399e-05, 4.0859375) (6.310730743408203e-05, 4.087890625) (6.40089111328125e-05, 4.08984375) (6.483793640136719e-05, 4.091796875) (6.558792114257813e-05, 4.09375) (6.625282287597656e-05, 4.095703125) (6.683081817626953e-05, 4.09765625) (6.732337951660155e-05, 4.099609375) (6.774227142333983e-05, 4.1015625) (6.810940551757812e-05, 4.103515625) (6.844398498535156e-05, 4.10546875) (6.876603698730468e-05, 4.107421875) (6.909248352050781e-05, 4.109375) (6.943182373046874e-05, 4.111328125) (6.979579162597655e-05, 4.11328125) (7.019635772705078e-05, 4.115234375) (7.064176940917968e-05, 4.1171875) (7.114460754394531e-05, 4.119140625) (7.171311950683593e-05, 4.12109375) (7.234192657470703e-05, 4.123046875) (7.302938842773438e-05, 4.125) (7.377442932128907e-05, 4.126953125) (7.455755615234375e-05, 4.12890625) (7.535564422607422e-05, 4.130859375) (7.61163330078125e-05, 4.1328125) (7.674555206298827e-05, 4.134765625) (7.715992736816406e-05, 4.13671875) (7.728045654296875e-05, 4.138671875) (7.703958129882812e-05, 4.140625) (7.64100570678711e-05, 4.142578125) (7.535594940185547e-05, 4.14453125) (7.381929016113281e-05, 4.146484375) (7.176517486572265e-05, 4.1484375) (6.915895080566406e-05, 4.150390625) (6.597438812255859e-05, 4.15234375) (6.22710952758789e-05, 4.154296875) (5.807816314697265e-05, 4.15625) (5.335544586181641e-05, 4.158203125) (4.819244384765625e-05, 4.16015625) (4.275679397583008e-05, 4.162109375) (3.732096099853515e-05, 4.1640625) (3.2405296325683594e-05, 4.166015625) (2.8475292205810544e-05, 4.16796875) (2.571813583374023e-05, 4.169921875) (2.4331901550292968e-05, 4.171875) (2.4515220642089843e-05, 4.173828125) (2.614272689819336e-05, 4.17578125) (2.9024032592773436e-05, 4.177734375) (3.270185089111328e-05, 4.1796875) (3.6062015533447265e-05, 4.181640625) (3.813105773925781e-05, 4.18359375) (3.8526458740234374e-05, 4.185546875) (3.704372787475586e-05, 4.1875) (3.385821151733398e-05, 4.189453125) (2.9759357452392576e-05, 4.19140625) (2.5461347579956054e-05, 4.193359375) (2.218625259399414e-05, 4.1953125) (2.236385726928711e-05, 4.197265625) (2.8336742401123044e-05, 4.19921875) (4.191479110717773e-05, 4.201171875) (6.333636093139648e-05, 4.203125) (9.046177673339844e-05, 4.205078125) (0.00012076446533203125, 4.20703125) (0.00015193167114257812, 4.208984375) (0.00018470657348632812, 4.2109375) (0.00022266119384765624, 4.212890625) (0.00026540264892578125, 4.21484375) (0.00030912329101562497, 4.216796875) (0.00034346469116210935, 4.21875) (0.00035155978393554683, 4.220703125) (0.00032399212646484375, 4.22265625) (0.00025883819580078125, 4.224609375) (0.0001614356689453125, 4.2265625) (4.77845230102539e-05, 4.228515625) (-6.817649841308593e-05, 4.23046875) (-0.00017563607788085938, 4.232421875) (-0.0002625926513671875, 4.234375) (-0.00032426345825195313, 4.236328125) (-0.00035954037475585936, 4.23828125) (-0.00036900460815429687, 4.240234375) (-0.00036160873413085937, 4.2421875) (-0.00034399179077148435, 4.244140625) (-0.00031866967773437496, 4.24609375) (-0.00029085699462890624, 4.248046875) (-0.00026030413818359374, 4.25) (-0.00022902536010742185, 4.251953125) (-0.00020334841918945312, 4.25390625) (-0.00018210160827636718, 4.255859375) (-0.0001651455383300781, 4.2578125) (-0.00015152796936035155, 4.259765625) (-0.00013666064453125, 4.26171875) (-0.00012199767303466796, 4.263671875) (-0.00010885771942138671, 4.265625) (-9.656231689453125e-05, 4.267578125) (-8.583679962158202e-05, 4.26953125) (-7.519456481933594e-05, 4.271484375) (-6.331120300292968e-05, 4.2734375) (-5.0744205474853516e-05, 4.275390625) (-3.795162200927734e-05, 4.27734375) (-2.561236763000488e-05, 4.279296875) (-1.4483772277832031e-05, 4.28125) (-4.916298866271973e-06, 4.283203125) (2.785068988800049e-06, 4.28515625) (8.384501457214355e-06, 4.287109375) (1.1883974075317383e-05, 4.2890625) (1.3479288101196289e-05, 4.291015625) (1.3473225593566895e-05, 4.29296875) (1.2148886680603026e-05, 4.294921875) (9.768423080444336e-06, 4.296875) (6.594148159027099e-06, 4.298828125) (2.8776712417602537e-06, 4.30078125) (-1.138658046722412e-06, 4.302734375) (-5.242552757263183e-06, 4.3046875) (-9.252549171447753e-06, 4.306640625) (-1.3006284713745117e-05, 4.30859375) (-1.6358165740966797e-05, 4.310546875) (-1.919254684448242e-05, 4.3125) (-2.1434759140014646e-05, 4.314453125) (-2.3047584533691407e-05, 4.31640625) (-2.4019607543945313e-05, 4.318359375) (-2.436240768432617e-05, 4.3203125) (-2.4111217498779295e-05, 4.322265625) (-2.3319955825805662e-05, 4.32421875) (-2.2064889907836912e-05, 4.326171875) (-2.043406295776367e-05, 4.328125) (-1.8511730194091796e-05, 4.330078125) (-1.6382146835327148e-05, 4.33203125) (-1.413059902191162e-05, 4.333984375) (-1.1843700408935547e-05, 4.3359375) (-9.622169494628905e-06, 4.337890625) (-7.5700039863586424e-06, 4.33984375) (-5.763927459716796e-06, 4.341796875) (-4.256112575531006e-06, 4.34375) (-3.0785470008850097e-06, 4.345703125) (-2.2421045303344724e-06, 4.34765625) (-1.7533705234527587e-06, 4.349609375) (-1.6113427877426148e-06, 4.3515625) (-1.7950373888015747e-06, 4.353515625) (-2.2716012001037595e-06, 4.35546875) (-3.004734992980957e-06, 4.357421875) (-3.956349849700928e-06, 4.359375) (-5.094057083129883e-06, 4.361328125) (-6.3894271850585935e-06, 4.36328125) (-7.807452201843262e-06, 4.365234375) (-9.310111045837402e-06, 4.3671875) (-1.0855987548828124e-05, 4.369140625) (-1.2401156425476073e-05, 4.37109375) (-1.391403579711914e-05, 4.373046875) (-1.537319564819336e-05, 4.375) (-1.676132583618164e-05, 4.376953125) (-1.806752014160156e-05, 4.37890625) (-1.928287124633789e-05, 4.380859375) (-2.040032958984375e-05, 4.3828125) (-2.1421142578125e-05, 4.384765625) (-2.235196876525879e-05, 4.38671875) (-2.319673728942871e-05, 4.388671875) (-2.395796775817871e-05, 4.390625) (-2.4636402130126953e-05, 4.392578125) (-2.5230484008789063e-05, 4.39453125) (-2.5742462158203124e-05, 4.396484375) (-2.6176834106445312e-05, 4.3984375) (-2.6537445068359375e-05, 4.400390625) (-2.6828800201416015e-05, 4.40234375) (-2.7054147720336914e-05, 4.404296875) (-2.7215496063232422e-05, 4.40625) (-2.7315885543823243e-05, 4.408203125) (-2.7358722686767578e-05, 4.41015625) (-2.7346580505371094e-05, 4.412109375) (-2.7282089233398435e-05, 4.4140625) (-2.716729736328125e-05, 4.416015625) (-2.7003585815429686e-05, 4.41796875) (-2.679425811767578e-05, 4.419921875) (-2.6543972015380857e-05, 4.421875) (-2.6257612228393554e-05, 4.423828125) (-2.5940738677978515e-05, 4.42578125) (-2.5598745346069333e-05, 4.427734375) (-2.523663330078125e-05, 4.4296875) (-2.48598518371582e-05, 4.431640625) (-2.4474025726318357e-05, 4.43359375) (-2.408387756347656e-05, 4.435546875) (-2.369348907470703e-05, 4.4375) (-2.3306400299072264e-05, 4.439453125) (-2.2925357818603514e-05, 4.44140625) (-2.2552928924560547e-05, 4.443359375) (-2.219136047363281e-05, 4.4453125) (-2.1842094421386717e-05, 4.447265625) (-2.1505973815917968e-05, 4.44921875) (-2.1183465957641602e-05, 4.451171875) (-2.087457275390625e-05, 4.453125) (-2.0579051971435545e-05, 4.455078125) (-2.0296470642089842e-05, 4.45703125) (-2.002592658996582e-05, 4.458984375) (-1.9766248703002928e-05, 4.4609375) (-1.9516281127929686e-05, 4.462890625) (-1.927470779418945e-05, 4.46484375) (-1.9040149688720702e-05, 4.466796875) (-1.8811128616333007e-05, 4.46875) (-1.858587646484375e-05, 4.470703125) (-1.836237907409668e-05, 4.47265625) (-1.8138580322265623e-05, 4.474609375) (-1.7912277221679688e-05, 4.4765625) (-1.768115234375e-05, 4.478515625) (-1.7442863464355467e-05, 4.48046875) (-1.7194931030273437e-05, 4.482421875) (-1.6934833526611326e-05, 4.484375) (-1.6660209655761718e-05, 4.486328125) (-1.6368841171264648e-05, 4.48828125) (-1.605868148803711e-05, 4.490234375) (-1.5727919578552245e-05, 4.4921875) (-1.5374902725219726e-05, 4.494140625) (-1.499820327758789e-05, 4.49609375) (-1.4596863746643066e-05, 4.498046875) (-1.4170421600341796e-05, 4.5) (-1.3718894958496093e-05, 4.501953125) (-1.3242877960205077e-05, 4.50390625) (-1.2743453979492187e-05, 4.505859375) (-1.2222213745117188e-05, 4.5078125) (-1.1681360244750977e-05, 4.509765625) (-1.112364387512207e-05, 4.51171875) (-1.0552215576171875e-05, 4.513671875) (-9.970580101013183e-06, 4.515625) (-9.382471084594726e-06, 4.517578125) (-8.791757583618164e-06, 4.51953125) (-8.202476501464844e-06, 4.521484375) (-7.618763446807861e-06, 4.5234375) (-7.044783592224121e-06, 4.525390625) (-6.484740257263183e-06, 4.52734375) (-5.9428391456604e-06, 4.529296875) (-5.423284530639649e-06, 4.53125) (-4.9303321838378905e-06, 4.533203125) (-4.468279361724854e-06, 4.53515625) (-4.041425704956055e-06, 4.537109375) (-3.654047966003418e-06, 4.5390625) (-3.3103466033935544e-06, 4.541015625) (-3.014386177062988e-06, 4.54296875) (-2.7701132297515867e-06, 4.544921875) (-2.5813283920288087e-06, 4.546875) (-2.451641321182251e-06, 4.548828125) (-2.384455680847168e-06, 4.55078125) (-2.3829245567321776e-06, 4.552734375) (-2.4499168395996094e-06, 4.5546875) (-2.5880193710327146e-06, 4.556640625) (-2.7995085716247557e-06, 4.55859375) (-3.086266756057739e-06, 4.560546875) (-3.449723482131958e-06, 4.5625) (-3.890780925750732e-06, 4.564453125) (-4.409754753112793e-06, 4.56640625) (-5.006377696990966e-06, 4.568359375) (-5.679811477661132e-06, 4.5703125) (-6.428650379180908e-06, 4.572265625) (-7.250952720642089e-06, 4.57421875) (-8.144302368164063e-06, 4.576171875) (-9.105868339538574e-06, 4.578125) (-1.0132498741149901e-05, 4.580078125) (-1.1220790863037108e-05, 4.58203125) (-1.23671236038208e-05, 4.583984375) (-1.356767463684082e-05, 4.5859375) (-1.4818424224853515e-05, 4.587890625) (-1.6115148544311523e-05, 4.58984375) (-1.745345115661621e-05, 4.591796875) (-1.882876968383789e-05, 4.59375) (-2.023637580871582e-05, 4.595703125) (-2.1671398162841795e-05, 4.59765625) (-2.312883186340332e-05, 4.599609375) (-2.4603557586669922e-05, 4.6015625) (-2.6090404510498044e-05, 4.603515625) (-2.758416748046875e-05, 4.60546875) (-2.9079616546630858e-05, 4.607421875) (-3.057148742675781e-05, 4.609375) (-3.205447769165039e-05, 4.611328125) (-3.352324676513672e-05, 4.61328125) (-3.497246170043945e-05, 4.615234375) (-3.6396827697753904e-05, 4.6171875) (-3.779114532470703e-05, 4.619140625) (-3.9150318145751954e-05, 4.62109375) (-4.0469474792480466e-05, 4.623046875) (-4.1743995666503906e-05, 4.625) (-4.296961975097656e-05, 4.626953125) (-4.4142509460449215e-05, 4.62890625) (-4.525925064086914e-05, 4.630859375) (-4.631683349609375e-05, 4.6328125) (-4.731263732910156e-05, 4.634765625) (-4.824437713623047e-05, 4.63671875) (-4.9110118865966795e-05, 4.638671875) (-4.9908203125e-05, 4.640625) (-5.063722610473632e-05, 4.642578125) (-5.129598236083984e-05, 4.64453125) (-5.1883491516113276e-05, 4.646484375) (-5.239899063110351e-05, 4.6484375) (-5.284193801879882e-05, 4.650390625) (-5.32120361328125e-05, 4.65234375) (-5.350924682617187e-05, 4.654296875) (-5.373373413085937e-05, 4.65625) (-5.388589859008789e-05, 4.658203125) (-5.396632385253906e-05, 4.66015625) (-5.397577667236328e-05, 4.662109375) (-5.3915233612060545e-05, 4.6640625) (-5.378585815429687e-05, 4.666015625) (-5.3589035034179684e-05, 4.66796875) (-5.332641220092773e-05, 4.669921875) (-5.299991607666015e-05, 4.671875) (-5.261179733276367e-05, 4.673828125) (-5.216465377807617e-05, 4.67578125) (-5.1661430358886716e-05, 4.677734375) (-5.110537338256836e-05, 4.6796875) (-5.0499984741210936e-05, 4.681640625) (-4.9848968505859375e-05, 4.68359375) (-4.915612411499023e-05, 4.685546875) (-4.842534255981445e-05, 4.6875) (-4.766048431396484e-05, 4.689453125) (-4.6865383148193354e-05, 4.69140625) (-4.604384613037109e-05, 4.693359375) (-4.519963073730468e-05, 4.6953125) (-4.433646392822265e-05, 4.697265625) (-4.3458106994628905e-05, 4.69921875) (-4.256833648681641e-05, 4.701171875) (-4.167094039916992e-05, 4.703125) (-4.0769752502441404e-05, 4.705078125) (-3.9868579864501954e-05, 4.70703125) (-3.8971187591552735e-05, 4.708984375) (-3.80812873840332e-05, 4.7109375) (-3.720252990722656e-05, 4.712890625) (-3.633848571777343e-05, 4.71484375) (-3.549266052246094e-05, 4.716796875) (-3.46684455871582e-05, 4.71875) (-3.386917114257812e-05, 4.720703125) (-3.309813690185547e-05, 4.72265625) (-3.235861968994141e-05, 4.724609375) (-3.1653800964355466e-05, 4.7265625) (-3.098672866821289e-05, 4.728515625) (-3.0360225677490232e-05, 4.73046875) (-2.977679634094238e-05, 4.732421875) (-2.9238658905029297e-05, 4.734375) (-2.8747673034667966e-05, 4.736328125) (-2.8305236816406248e-05, 4.73828125) (-2.7912277221679687e-05, 4.740234375) (-2.756926727294922e-05, 4.7421875) (-2.727623748779297e-05, 4.744140625) (-2.7032890319824217e-05, 4.74609375) (-2.6838642120361328e-05, 4.748046875) (-2.669264221191406e-05, 4.75) (-2.6593795776367186e-05, 4.751953125) (-2.6540746688842772e-05, 4.75390625) (-2.653184127807617e-05, 4.755859375) (-2.656520652770996e-05, 4.7578125) (-2.6638717651367187e-05, 4.759765625) (-2.6749952316284178e-05, 4.76171875) (-2.689624786376953e-05, 4.763671875) (-2.707461166381836e-05, 4.765625) (-2.7281763076782224e-05, 4.767578125) (-2.7514326095581054e-05, 4.76953125) (-2.7768890380859373e-05, 4.771484375) (-2.8041910171508787e-05, 4.7734375) (-2.8329776763916015e-05, 4.775390625) (-2.862879180908203e-05, 4.77734375) (-2.8935108184814453e-05, 4.779296875) (-2.9244939804077147e-05, 4.78125) (-2.9554534912109373e-05, 4.783203125) (-2.985994720458984e-05, 4.78515625) (-3.0157100677490232e-05, 4.787109375) (-3.044190979003906e-05, 4.7890625) (-3.071032333374023e-05, 4.791015625) (-3.09584789276123e-05, 4.79296875) (-3.118285369873047e-05, 4.794921875) (-3.1380014419555666e-05, 4.796875) (-3.154668807983398e-05, 4.798828125) (-3.1680038452148436e-05, 4.80078125) (-3.177763366699219e-05, 4.802734375) (-3.183750534057617e-05, 4.8046875) (-3.185818099975586e-05, 4.806640625) (-3.183844947814941e-05, 4.80859375) (-3.177736282348633e-05, 4.810546875) (-3.1674322128295896e-05, 4.8125) (-3.152903747558594e-05, 4.814453125) (-3.1341629028320314e-05, 4.81640625) (-3.1112697601318355e-05, 4.818359375) (-3.084309768676758e-05, 4.8203125) (-3.053396797180175e-05, 4.822265625) (-3.0186861038208007e-05, 4.82421875) (-2.9803613662719726e-05, 4.826171875) (-2.9386573791503904e-05, 4.828125) (-2.89385986328125e-05, 4.830078125) (-2.8462591171264647e-05, 4.83203125) (-2.7961442947387694e-05, 4.833984375) (-2.7438312530517576e-05, 4.8359375) (-2.6896549224853515e-05, 4.837890625) (-2.6339645385742186e-05, 4.83984375) (-2.5771406173706052e-05, 4.841796875) (-2.5195419311523436e-05, 4.84375) (-2.4614973068237303e-05, 4.845703125) (-2.4033777236938477e-05, 4.84765625) (-2.345589828491211e-05, 4.849609375) (-2.288513946533203e-05, 4.8515625) (-2.2325138092041014e-05, 4.853515625) (-2.177929878234863e-05, 4.85546875) (-2.1250507354736326e-05, 4.857421875) (-2.074215316772461e-05, 4.859375) (-2.0258251190185546e-05, 4.861328125) (-1.9802064895629883e-05, 4.86328125) (-1.937617492675781e-05, 4.865234375) (-1.8983144760131834e-05, 4.8671875) (-1.862516975402832e-05, 4.869140625) (-1.8304481506347655e-05, 4.87109375) (-1.8023651123046875e-05, 4.873046875) (-1.7783716201782226e-05, 4.875) (-1.758416938781738e-05, 4.876953125) (-1.742441940307617e-05, 4.87890625) (-1.7303398132324218e-05, 4.880859375) (-1.7220340728759766e-05, 4.8828125) (-1.7175182342529297e-05, 4.884765625) (-1.716685104370117e-05, 4.88671875) (-1.7193405151367187e-05, 4.888671875) (-1.725308036804199e-05, 4.890625) (-1.7343521118164062e-05, 4.892578125) (-1.7463485717773438e-05, 4.89453125) (-1.7613643646240234e-05, 4.896484375) (-1.7791088104248045e-05, 4.8984375) (-1.7990070343017576e-05, 4.900390625) (-1.8204700469970703e-05, 4.90234375) (-1.8427074432373047e-05, 4.904296875) (-1.8654850006103516e-05, 4.90625) (-1.8892658233642578e-05, 4.908203125) (-1.914158248901367e-05, 4.91015625) (-1.939976119995117e-05, 4.912109375) (-1.966731262207031e-05, 4.9140625) (-1.9943506240844724e-05, 4.916015625) (-2.0230480194091797e-05, 4.91796875) (-2.0535415649414063e-05, 4.919921875) (-2.0855813980102538e-05, 4.921875) (-2.1180471420288084e-05, 4.923828125) (-2.149858856201172e-05, 4.92578125) (-2.1796377182006835e-05, 4.927734375) (-2.2069171905517577e-05, 4.9296875) (-2.2322446823120117e-05, 4.931640625) (-2.255900192260742e-05, 4.93359375) (-2.278242874145508e-05, 4.935546875) (-2.2988489151000975e-05, 4.9375) (-2.3160806655883788e-05, 4.939453125) (-2.3291212081909178e-05, 4.94140625) (-2.3380287170410156e-05, 4.943359375) (-2.3419742584228514e-05, 4.9453125) (-2.3398347854614256e-05, 4.947265625) (-2.3300804138183593e-05, 4.94921875) (-2.3101230621337888e-05, 4.951171875) (-2.27995491027832e-05, 4.953125) (-2.242196464538574e-05, 4.955078125) (-2.19897346496582e-05, 4.95703125) (-2.152570343017578e-05, 4.958984375) (-2.104091453552246e-05, 4.9609375) (-2.052931213378906e-05, 4.962890625) (-1.9992809295654296e-05, 4.96484375) (-1.9438215255737303e-05, 4.966796875) (-1.8874784469604492e-05, 4.96875) (-1.8320762634277345e-05, 4.970703125) (-1.7785348892211915e-05, 4.97265625) (-1.7265560150146483e-05, 4.974609375) (-1.6774471282958983e-05, 4.9765625) (-1.6334808349609373e-05, 4.978515625) (-1.5971763610839843e-05, 4.98046875) (-1.572254943847656e-05, 4.982421875) (-1.5590293884277345e-05, 4.984375) (-1.5541061401367188e-05, 4.986328125) (-1.555017852783203e-05, 4.98828125) (-1.559486961364746e-05, 4.990234375) (-1.5660877227783204e-05, 4.9921875) (-1.5751171112060545e-05, 4.994140625) (-1.585788154602051e-05, 4.99609375) (-1.596279525756836e-05, 4.998046875) (-1.605499267578125e-05, 5.0) (-1.6124881744384765e-05, 5.001953125) (-1.616767883300781e-05, 5.00390625) (-1.6188480377197264e-05, 5.005859375) (-1.6175682067871092e-05, 5.0078125) (-1.610426902770996e-05, 5.009765625) (-1.5950307846069337e-05, 5.01171875) (-1.5682592391967772e-05, 5.013671875) (-1.5295482635498046e-05, 5.015625) (-1.4813228607177734e-05, 5.017578125) (-1.4251159667968749e-05, 5.01953125) (-1.3620389938354492e-05, 5.021484375) (-1.2929726600646972e-05, 5.0234375) (-1.2177589416503906e-05, 5.025390625) (-1.1370206832885742e-05, 5.02734375) (-1.0523735046386719e-05, 5.029296875) (-9.643101692199707e-06, 5.03125) (-8.72509765625e-06, 5.033203125) (-7.766789436340332e-06, 5.03515625) (-6.761314392089844e-06, 5.037109375) (-5.71245527267456e-06, 5.0390625) (-4.635395526885986e-06, 5.041015625) (-3.543391227722168e-06, 5.04296875) (-2.451066970825195e-06, 5.044921875) (-1.3634926080703734e-06, 5.046875) (-2.7285438776016235e-07, 5.048828125) (8.23973536491394e-07, 5.05078125) (1.926759958267212e-06, 5.052734375) (3.036720275878906e-06, 5.0546875) (4.1524205207824706e-06, 5.056640625) (5.275170803070068e-06, 5.05859375) (6.4102087020874024e-06, 5.060546875) (7.5550270080566405e-06, 5.0625) (8.70030117034912e-06, 5.064453125) (9.83804702758789e-06, 5.06640625) (1.0960769653320312e-05, 5.068359375) (1.2064432144165038e-05, 5.0703125) (1.3150223731994629e-05, 5.072265625) (1.4219251632690429e-05, 5.07421875) (1.527142906188965e-05, 5.076171875) (1.630510711669922e-05, 5.078125) (1.7317110061645507e-05, 5.080078125) (1.8305324554443357e-05, 5.08203125) (1.9265785217285154e-05, 5.083984375) (2.0192325592041015e-05, 5.0859375) (2.1076766967773436e-05, 5.087890625) (2.1906845092773437e-05, 5.08984375) (2.267413902282715e-05, 5.091796875) (2.3377471923828124e-05, 5.09375) (2.4017629623413086e-05, 5.095703125) (2.4597221374511718e-05, 5.09765625) (2.5119186401367185e-05, 5.099609375) (2.558510398864746e-05, 5.1015625) (2.600094985961914e-05, 5.103515625) (2.6377574920654295e-05, 5.10546875) (2.672675895690918e-05, 5.107421875) (2.706529426574707e-05, 5.109375) (2.740989303588867e-05, 5.111328125) (2.7773952484130857e-05, 5.11328125) (2.8180606842041015e-05, 5.115234375) (2.865509033203125e-05, 5.1171875) (2.9220869064331053e-05, 5.119140625) (2.9910953521728514e-05, 5.12109375) (3.0741111755371093e-05, 5.123046875) (3.17015380859375e-05, 5.125) (3.2786231994628905e-05, 5.126953125) (3.3982284545898434e-05, 5.12890625) (3.527493286132812e-05, 5.130859375) (3.6665557861328125e-05, 5.1328125) (3.812628173828125e-05, 5.134765625) (3.9591857910156247e-05, 5.13671875) (4.099029541015625e-05, 5.138671875) (4.222817230224609e-05, 5.140625) (4.320448684692383e-05, 5.142578125) (4.384615707397461e-05, 5.14453125) (4.404277038574219e-05, 5.146484375) (4.365119171142578e-05, 5.1484375) (4.2637474060058595e-05, 5.150390625) (4.104228210449218e-05, 5.15234375) (3.8999755859375e-05, 5.154296875) (3.677828979492187e-05, 5.15625) (3.457720184326172e-05, 5.158203125) (3.2483539581298825e-05, 5.16015625) (3.060400772094726e-05, 5.162109375) (2.9030990600585936e-05, 5.1640625) (2.7626699447631835e-05, 5.166015625) (2.6109123229980467e-05, 5.16796875) (2.4066694259643555e-05, 5.169921875) (2.094138717651367e-05, 5.171875) (1.6500755310058592e-05, 5.173828125) (1.0897095680236816e-05, 5.17578125) (4.404287815093994e-06, 5.177734375) (-2.5786740779876708e-06, 5.1796875) (-9.318484306335449e-06, 5.181640625) (-1.4895566940307616e-05, 5.18359375) (-1.8314571380615234e-05, 5.185546875) (-1.848917007446289e-05, 5.1875) (-1.4905293464660644e-05, 5.189453125) (-7.675021171569825e-06, 5.19140625) (3.0367424488067624e-06, 5.193359375) (1.6944217681884764e-05, 5.1953125) (3.342844390869141e-05, 5.197265625) (5.2127357482910154e-05, 5.19921875) (7.280981445312499e-05, 5.201171875) (9.508738708496093e-05, 5.203125) (0.00011941468811035155, 5.205078125) (0.00014515309143066406, 5.20703125) (0.0001696387939453125, 5.208984375) (0.00019117143249511718, 5.2109375) (0.00020835629272460937, 5.212890625) (0.00022335826110839844, 5.21484375) (0.00024295596313476562, 5.216796875) (0.0002683675537109375, 5.21875) (0.0002957861938476562, 5.220703125) (0.0003147214660644531, 5.22265625) (0.00030675830078124997, 5.224609375) (0.0002631806640625, 5.2265625) (0.00018425424194335938, 5.228515625) (7.578953552246093e-05, 5.23046875) (-4.59144287109375e-05, 5.232421875) (-0.00016767868041992187, 5.234375) (-0.00028015380859375, 5.236328125) (-0.00036968856811523434, 5.23828125) (-0.000425886962890625, 5.240234375) (-0.0004447139892578125, 5.2421875) (-0.0004253954162597656, 5.244140625) (-0.0003780754699707031, 5.24609375) (-0.00032216259765625, 5.248046875) (-0.00026974853515625, 5.25) (-0.00022893699645996094, 5.251953125) (-0.0002016613006591797, 5.25390625) (-0.0001775604248046875, 5.255859375) (-0.0001516277160644531, 5.2578125) (-0.00012275001525878905, 5.259765625) (-9.124915313720702e-05, 5.26171875) (-6.5129150390625e-05, 5.263671875) (-4.703770065307617e-05, 5.265625) (-3.5917812347412105e-05, 5.267578125) (-2.970609664916992e-05, 5.26953125) (-2.318710708618164e-05, 5.271484375) (-1.7460456848144532e-05, 5.2734375) (-1.4449894905090331e-05, 5.275390625) (-1.6035697937011717e-05, 5.27734375) (-2.4787452697753905e-05, 5.279296875) (-3.578262710571289e-05, 5.28125) (-4.5226947784423823e-05, 5.283203125) (-5.067443466186523e-05, 5.28515625) (-4.846778106689453e-05, 5.287109375) (-4.1521518707275385e-05, 5.2890625) (-3.251684951782226e-05, 5.291015625) (-2.2470884323120116e-05, 5.29296875) (-1.4528766632080077e-05, 5.294921875) (-8.705989837646485e-06, 5.296875) (-4.047786235809326e-06, 5.298828125) (-9.64722216129303e-07, 5.30078125) (8.894232511520386e-07, 5.302734375) (1.6452449560165404e-06, 5.3046875) (8.693963289260864e-07, 5.306640625) (-1.2278425693511962e-06, 5.30859375) (-3.724668025970459e-06, 5.310546875) (-6.076126098632812e-06, 5.3125) (-8.02482795715332e-06, 5.314453125) (-9.330836296081543e-06, 5.31640625) (-1.0103649139404296e-05, 5.318359375) (-1.0460189819335937e-05, 5.3203125) (-1.0229947090148926e-05, 5.322265625) (-9.325379371643066e-06, 5.32421875) (-7.965832710266114e-06, 5.326171875) (-6.302608489990234e-06, 5.328125) (-4.445191860198975e-06, 5.330078125) (-2.5333521366119383e-06, 5.33203125) (-5.373291969299316e-07, 5.333984375) (1.5623221397399902e-06, 5.3359375) (3.6605184078216553e-06, 5.337890625) (5.654023170471191e-06, 5.33984375) (7.488924980163574e-06, 5.341796875) (9.122308731079101e-06, 5.34375) (1.0547510147094726e-05, 5.345703125) (1.178378677368164e-05, 5.34765625) (1.2810688972473144e-05, 5.349609375) (1.3608816146850585e-05, 5.3515625) (1.4183834075927735e-05, 5.353515625) (1.4547430038452148e-05, 5.35546875) (1.4725502014160155e-05, 5.357421875) (1.4748344421386719e-05, 5.359375) (1.46353120803833e-05, 5.361328125) (1.4400459289550781e-05, 5.36328125) (1.4063928604125976e-05, 5.365234375) (1.3650778770446777e-05, 5.3671875) (1.3192165374755858e-05, 5.369140625) (1.272672939300537e-05, 5.37109375) (1.2286064147949218e-05, 5.373046875) (1.1890380859374999e-05, 5.375) (1.1554516792297363e-05, 5.376953125) (1.1287906646728516e-05, 5.37890625) (1.1097286224365234e-05, 5.380859375) (1.0989349365234375e-05, 5.3828125) (1.0966297149658203e-05, 5.384765625) (1.1023405075073242e-05, 5.38671875) (1.1154651641845703e-05, 5.388671875) (1.1355993270874023e-05, 5.390625) (1.1624920845031738e-05, 5.392578125) (1.1961222648620606e-05, 5.39453125) (1.2363933563232421e-05, 5.396484375) (1.28287935256958e-05, 5.3984375) (1.3350245475769043e-05, 5.400390625) (1.3922478675842285e-05, 5.40234375) (1.45401611328125e-05, 5.404296875) (1.5199191093444824e-05, 5.40625) (1.589555549621582e-05, 5.408203125) (1.662471580505371e-05, 5.41015625) (1.738250160217285e-05, 5.412109375) (1.8165332794189453e-05, 5.4140625) (1.8970386505126952e-05, 5.416015625) (1.9795886993408202e-05, 5.41796875) (2.0639585494995118e-05, 5.419921875) (2.1498085021972654e-05, 5.421875) (2.2367742538452147e-05, 5.423828125) (2.3244651794433594e-05, 5.42578125) (2.412487983703613e-05, 5.427734375) (2.5004972457885742e-05, 5.4296875) (2.5881420135498045e-05, 5.431640625) (2.675048828125e-05, 5.43359375) (2.760910415649414e-05, 5.435546875) (2.8454927444458006e-05, 5.4375) (2.9286128997802732e-05, 5.439453125) (3.01015567779541e-05, 5.44140625) (3.090043830871582e-05, 5.443359375) (3.1682126998901364e-05, 5.4453125) (3.2446445465087886e-05, 5.447265625) (3.3193729400634766e-05, 5.44921875) (3.3924545288085934e-05, 5.451171875) (3.463969802856445e-05, 5.453125) (3.534022903442383e-05, 5.455078125) (3.602734375e-05, 5.45703125) (3.6702491760253905e-05, 5.458984375) (3.7367530822753906e-05, 5.4609375) (3.802453231811523e-05, 5.462890625) (3.8675655364990234e-05, 5.46484375) (3.9323265075683594e-05, 5.466796875) (3.9969818115234374e-05, 5.46875) (4.0617858886718746e-05, 5.470703125) (4.127006912231445e-05, 5.47265625) (4.192903900146484e-05, 5.474609375) (4.2597213745117186e-05, 5.4765625) (4.327684783935547e-05, 5.478515625) (4.397004318237304e-05, 5.48046875) (4.467870712280273e-05, 5.482421875) (4.5404632568359375e-05, 5.484375) (4.6149391174316403e-05, 5.486328125) (4.6914291381835935e-05, 5.48828125) (4.770045471191406e-05, 5.490234375) (4.850875854492187e-05, 5.4921875) (4.933984375e-05, 5.494140625) (5.019414520263672e-05, 5.49609375) (5.107169723510742e-05, 5.498046875) (5.19720458984375e-05, 5.5) (5.289433670043945e-05, 5.501953125) (5.3837284088134764e-05, 5.50390625) (5.479920959472656e-05, 5.505859375) (5.5778129577636713e-05, 5.5078125) (5.677173233032226e-05, 5.509765625) (5.777738952636718e-05, 5.51171875) (5.8792297363281245e-05, 5.513671875) (5.981348419189453e-05, 5.515625) (6.083781433105468e-05, 5.517578125) (6.186204528808593e-05, 5.51953125) (6.288274765014648e-05, 5.521484375) (6.38962745666504e-05, 5.5234375) (6.48987579345703e-05, 5.525390625) (6.588610076904297e-05, 5.52734375) (6.685400390624999e-05, 5.529296875) (6.77979965209961e-05, 5.53125) (6.87134552001953e-05, 5.533203125) (6.959563446044921e-05, 5.53515625) (7.043974304199219e-05, 5.537109375) (7.124098205566406e-05, 5.5390625) (7.199462890625e-05, 5.541015625) (7.269602966308594e-05, 5.54296875) (7.334063720703125e-05, 5.544921875) (7.392402648925781e-05, 5.546875) (7.444186401367188e-05, 5.548828125) (7.488993835449218e-05, 5.55078125) (7.526417541503906e-05, 5.552734375) (7.556069183349609e-05, 5.5546875) (7.577582550048828e-05, 5.556640625) (7.590612030029296e-05, 5.55859375) (7.594849395751953e-05, 5.560546875) (7.59001693725586e-05, 5.5625) (7.575880432128906e-05, 5.564453125) (7.552249145507812e-05, 5.56640625) (7.518975830078125e-05, 5.568359375) (7.475957489013671e-05, 5.5703125) (7.42313003540039e-05, 5.572265625) (7.360464477539063e-05, 5.57421875) (7.287969970703125e-05, 5.576171875) (7.205690002441406e-05, 5.578125) (7.113699340820312e-05, 5.580078125) (7.012110900878906e-05, 5.58203125) (6.901075744628906e-05, 5.583984375) (6.780786132812499e-05, 5.5859375) (6.651482391357421e-05, 5.587890625) (6.513458251953125e-05, 5.58984375) (6.367063140869141e-05, 5.591796875) (6.212698364257812e-05, 5.59375) (6.0508163452148434e-05, 5.595703125) (5.88192024230957e-05, 5.59765625) (5.706556701660156e-05, 5.599609375) (5.52531623840332e-05, 5.6015625) (5.33882827758789e-05, 5.603515625) (5.1477539062499996e-05, 5.60546875) (4.952784729003906e-05, 5.607421875) (4.7546424865722656e-05, 5.609375) (4.554076766967773e-05, 5.611328125) (4.3518627166748045e-05, 5.61328125) (4.1487987518310544e-05, 5.615234375) (3.9456977844238276e-05, 5.6171875) (3.7433837890625e-05, 5.619140625) (3.5426807403564453e-05, 5.62109375) (3.344408798217773e-05, 5.623046875) (3.1493757247924804e-05, 5.625) (2.958368682861328e-05, 5.626953125) (2.7721467971801756e-05, 5.62890625) (2.591438293457031e-05, 5.630859375) (2.416937255859375e-05, 5.6328125) (2.2493045806884764e-05, 5.634765625) (2.0891677856445312e-05, 5.63671875) (1.9371192932128906e-05, 5.638671875) (1.7937166213989256e-05, 5.640625) (1.6594772338867188e-05, 5.642578125) (1.5348787307739256e-05, 5.64453125) (1.4203542709350585e-05, 5.646484375) (1.3162881851196289e-05, 5.6484375) (1.2230094909667968e-05, 5.650390625) (1.1407859802246093e-05, 5.65234375) (1.0698196411132812e-05, 5.654296875) (1.0102467536926269e-05, 5.65625) (9.621360778808593e-06, 5.658203125) (9.25490379333496e-06, 5.66015625) (9.002456665039062e-06, 5.662109375) (8.862722396850585e-06, 5.6640625) (8.833763122558594e-06, 5.666015625) (8.913028717041016e-06, 5.66796875) (9.097371101379394e-06, 5.669921875) (9.383063316345214e-06, 5.671875) (9.765792846679687e-06, 5.673828125) (1.0240694046020507e-05, 5.67578125) (1.0802372932434082e-05, 5.677734375) (1.1444969177246093e-05, 5.6796875) (1.2162226676940918e-05, 5.681640625) (1.2947563171386719e-05, 5.68359375) (1.3794143676757812e-05, 5.685546875) (1.4694961547851561e-05, 5.6875) (1.564291000366211e-05, 5.689453125) (1.6630863189697266e-05, 5.69140625) (1.7651748657226562e-05, 5.693359375) (1.869858169555664e-05, 5.6953125) (1.9764503479003906e-05, 5.697265625) (2.084278106689453e-05, 5.69921875) (2.192684555053711e-05, 5.701171875) (2.3010313034057617e-05, 5.703125) (2.408699607849121e-05, 5.705078125) (2.5150953292846678e-05, 5.70703125) (2.6196468353271484e-05, 5.708984375) (2.7218101501464842e-05, 5.7109375) (2.8210710525512693e-05, 5.712890625) (2.9169506072998047e-05, 5.71484375) (3.009008979797363e-05, 5.716796875) (3.0968475341796874e-05, 5.71875) (3.1801092147827145e-05, 5.720703125) (3.258481216430664e-05, 5.72265625) (3.331696319580078e-05, 5.724609375) (3.3995338439941405e-05, 5.7265625) (3.461821365356445e-05, 5.728515625) (3.518435668945312e-05, 5.73046875) (3.569297790527344e-05, 5.732421875) (3.614376449584961e-05, 5.734375) (3.653685760498047e-05, 5.736328125) (3.687286376953125e-05, 5.73828125) (3.715284729003906e-05, 5.740234375) (3.737829971313476e-05, 5.7421875) (3.755109405517578e-05, 5.744140625) (3.767343902587891e-05, 5.74609375) (3.774783325195312e-05, 5.748046875) (3.777700424194336e-05, 5.75) (3.776386260986328e-05, 5.751953125) (3.7711410522460933e-05, 5.75390625) (3.762270355224609e-05, 5.755859375) (3.7500724792480465e-05, 5.7578125) (3.7348426818847656e-05, 5.759765625) (3.716864776611328e-05, 5.76171875) (3.69641227722168e-05, 5.763671875) (3.673749160766601e-05, 5.765625) (3.6491256713867185e-05, 5.767578125) (3.6227802276611326e-05, 5.76953125) (3.594941711425781e-05, 5.771484375) (3.5658302307128904e-05, 5.7734375) (3.535658264160156e-05, 5.775390625) (3.504629135131836e-05, 5.77734375) (3.472933578491211e-05, 5.779296875) (3.440749359130859e-05, 5.78125) (3.4082416534423825e-05, 5.783203125) (3.375559616088867e-05, 5.78515625) (3.342838668823242e-05, 5.787109375) (3.310198211669922e-05, 5.7890625) (3.277738189697265e-05, 5.791015625) (3.2455436706542964e-05, 5.79296875) (3.213682556152344e-05, 5.794921875) (3.1822074890136716e-05, 5.796875) (3.1511547088623045e-05, 5.798828125) (3.120542526245117e-05, 5.80078125) (3.0903682708740234e-05, 5.802734375) (3.0606075286865234e-05, 5.8046875) (3.0312175750732422e-05, 5.806640625) (3.00213623046875e-05, 5.80859375) (2.973287010192871e-05, 5.810546875) (2.944583511352539e-05, 5.8125) (2.9159313201904295e-05, 5.814453125) (2.8872385025024413e-05, 5.81640625) (2.8584205627441404e-05, 5.818359375) (2.829409408569336e-05, 5.8203125) (2.800155258178711e-05, 5.822265625) (2.770630645751953e-05, 5.82421875) (2.740828514099121e-05, 5.826171875) (2.7107624053955077e-05, 5.828125) (2.680465507507324e-05, 5.830078125) (2.649987983703613e-05, 5.83203125) (2.6193941116333008e-05, 5.833984375) (2.5887584686279296e-05, 5.8359375) (2.5581630706787108e-05, 5.837890625) (2.52769718170166e-05, 5.83984375) (2.4974573135375976e-05, 5.841796875) (2.467545700073242e-05, 5.84375) (2.4380695343017578e-05, 5.845703125) (2.409138298034668e-05, 5.84765625) (2.380862045288086e-05, 5.849609375) (2.3533477783203124e-05, 5.8515625) (2.3266998291015625e-05, 5.853515625) (2.3010198593139646e-05, 5.85546875) (2.2764036178588866e-05, 5.857421875) (2.2529415130615234e-05, 5.859375) (2.2307209014892577e-05, 5.861328125) (2.2098289489746093e-05, 5.86328125) (2.1903566360473633e-05, 5.865234375) (2.1724025726318358e-05, 5.8671875) (2.156073760986328e-05, 5.869140625) (2.1414813995361328e-05, 5.87109375) (2.1287391662597656e-05, 5.873046875) (2.117962074279785e-05, 5.875) (2.109258270263672e-05, 5.876953125) (2.102723693847656e-05, 5.87890625) (2.0984367370605468e-05, 5.880859375) (2.096450614929199e-05, 5.8828125) (2.0967891693115234e-05, 5.884765625) (2.09945068359375e-05, 5.88671875) (2.1044021606445312e-05, 5.888671875) (2.1115825653076172e-05, 5.890625) (2.1209037780761717e-05, 5.892578125) (2.13224983215332e-05, 5.89453125) (2.145478057861328e-05, 5.896484375) (2.1604232788085935e-05, 5.8984375) (2.1768943786621092e-05, 5.900390625) (2.1946779251098632e-05, 5.90234375) (2.2135440826416014e-05, 5.904296875) (2.233245277404785e-05, 5.90625) (2.2535234451293944e-05, 5.908203125) (2.2741172790527344e-05, 5.91015625) (2.294763946533203e-05, 5.912109375) (2.315207290649414e-05, 5.9140625) (2.3352005004882813e-05, 5.916015625) (2.3545021057128906e-05, 5.91796875) (2.372879409790039e-05, 5.919921875) (2.390112495422363e-05, 5.921875) (2.4059848785400388e-05, 5.923828125) (2.420283317565918e-05, 5.92578125) (2.4327980041503906e-05, 5.927734375) (2.443311882019043e-05, 5.9296875) (2.4516056060791016e-05, 5.931640625) (2.4574718475341794e-05, 5.93359375) (2.460704803466797e-05, 5.935546875) (2.461105728149414e-05, 5.9375) (2.4584915161132812e-05, 5.939453125) (2.452693748474121e-05, 5.94140625) (2.4435604095458985e-05, 5.943359375) (2.4309682846069335e-05, 5.9453125) (2.4148136138916014e-05, 5.947265625) (2.395010948181152e-05, 5.94921875) (2.3715106964111328e-05, 5.951171875) (2.344289779663086e-05, 5.953125) (2.3133560180664063e-05, 5.955078125) (2.278757858276367e-05, 5.95703125) (2.240583801269531e-05, 5.958984375) (2.198966407775879e-05, 5.9609375) (2.1540931701660156e-05, 5.962890625) (2.1061946868896482e-05, 5.96484375) (2.0555309295654296e-05, 5.966796875) (2.0024005889892578e-05, 5.96875) (1.947122573852539e-05, 5.970703125) (1.8900245666503906e-05, 5.97265625) (1.831454849243164e-05, 5.974609375) (1.7717552185058593e-05, 5.9765625) (1.711264419555664e-05, 5.978515625) (1.6503376007080077e-05, 5.98046875) (1.5893351554870605e-05, 5.982421875) (1.5286094665527342e-05, 5.984375) (1.4685277938842772e-05, 5.986328125) (1.4094626426696777e-05, 5.98828125) (1.3517788887023926e-05, 5.990234375) (1.2958671569824218e-05, 5.9921875) (1.2421140670776367e-05, 5.994140625) (1.1908689498901367e-05, 5.99609375) (1.1424838066101074e-05, 5.998046875) (1.097300338745117e-05, 6.0) (1.055632209777832e-05, 6.001953125) (1.0177852630615235e-05, 6.00390625) (9.840534210205078e-06, 6.005859375) (9.546958923339844e-06, 6.0078125) (9.299728393554687e-06, 6.009765625) (9.10150146484375e-06, 6.01171875) (8.954463958740234e-06, 6.013671875) (8.860522270202635e-06, 6.015625) (8.821348190307616e-06, 6.017578125) (8.838092803955078e-06, 6.01953125) (8.91139030456543e-06, 6.021484375) (9.041248321533202e-06, 6.0234375) (9.226486206054687e-06, 6.025390625) (9.464935302734375e-06, 6.02734375) (9.753934860229491e-06, 6.029296875) (1.0090072631835936e-05, 6.03125) (1.046951675415039e-05, 6.033203125) (1.0888340950012206e-05, 6.03515625) (1.134259033203125e-05, 6.037109375) (1.1828750610351561e-05, 6.0390625) (1.2344064712524414e-05, 6.041015625) (1.2885950088500975e-05, 6.04296875) (1.3451833724975585e-05, 6.044921875) (1.403981304168701e-05, 6.046875) (1.4647371292114257e-05, 6.048828125) (1.5271180152893065e-05, 6.05078125) (1.5907490730285643e-05, 6.052734375) (1.655098533630371e-05, 6.0546875) (1.7196205139160154e-05, 6.056640625) (1.783935737609863e-05, 6.05859375) (1.8477798461914062e-05, 6.060546875) (1.910886001586914e-05, 6.0625) (1.9731985092163086e-05, 6.064453125) (2.0348049163818357e-05, 6.06640625) (2.0956012725830078e-05, 6.068359375) (2.1555625915527344e-05, 6.0703125) (2.2143993377685545e-05, 6.072265625) (2.2713108062744138e-05, 6.07421875) (2.325508689880371e-05, 6.076171875) (2.3761871337890625e-05, 6.078125) (2.4225511550903318e-05, 6.080078125) (2.4641716003417966e-05, 6.08203125) (2.5012929916381833e-05, 6.083984375) (2.5346162796020507e-05, 6.0859375) (2.565504455566406e-05, 6.087890625) (2.595805549621582e-05, 6.08984375) (2.6268671035766602e-05, 6.091796875) (2.6602579116821287e-05, 6.09375) (2.6971666336059568e-05, 6.095703125) (2.737916564941406e-05, 6.09765625) (2.783302116394043e-05, 6.099609375) (2.8337501525878905e-05, 6.1015625) (2.8894924163818356e-05, 6.103515625) (2.951698303222656e-05, 6.10546875) (3.0215515136718748e-05, 6.107421875) (3.099338150024414e-05, 6.109375) (3.1853092193603515e-05, 6.111328125) (3.279186248779297e-05, 6.11328125) (3.377809906005859e-05, 6.115234375) (3.476885986328125e-05, 6.1171875) (3.570804214477539e-05, 6.119140625) (3.651417541503906e-05, 6.12109375) (3.712895584106445e-05, 6.123046875) (3.750936126708984e-05, 6.125) (3.7602916717529296e-05, 6.126953125) (3.736443328857422e-05, 6.12890625) (3.673585510253906e-05, 6.130859375) (3.564643859863281e-05, 6.1328125) (3.404719924926758e-05, 6.134765625) (3.192310523986816e-05, 6.13671875) (2.923713684082031e-05, 6.138671875) (2.5941350936889647e-05, 6.140625) (2.2068737030029295e-05, 6.142578125) (1.77182502746582e-05, 6.14453125) (1.3144908905029297e-05, 6.146484375) (8.767086029052733e-06, 6.1484375) (4.9914655685424806e-06, 6.150390625) (2.1391358375549314e-06, 6.15234375) (4.3745794892311093e-07, 6.154296875) (3.623092174530029e-08, 6.15625) (8.473128080368041e-07, 6.158203125) (2.6100194454193115e-06, 6.16015625) (4.808999061584472e-06, 6.162109375) (6.537538051605224e-06, 6.1640625) (6.888269424438477e-06, 6.166015625) (5.15011978149414e-06, 6.16796875) (9.893814325332642e-07, 6.169921875) (-5.451870918273925e-06, 6.171875) (-1.3467108726501464e-05, 6.173828125) (-2.204806900024414e-05, 6.17578125) (-2.987002182006836e-05, 6.177734375) (-3.495405197143555e-05, 6.1796875) (-3.518386459350586e-05, 6.181640625) (-2.8524921417236327e-05, 6.18359375) (-1.352296733856201e-05, 6.185546875) (1.0091158866882323e-05, 6.1875) (4.156985092163086e-05, 6.189453125) (7.96542739868164e-05, 6.19140625) (0.00012241177368164062, 6.193359375) (0.00016678103637695311, 6.1953125) (0.00020901519775390624, 6.197265625) (0.00024468139648437496, 6.19921875) (0.0002695151672363281, 6.201171875) (0.0002807589721679687, 6.203125) (0.0002766211242675781, 6.205078125) (0.0002557210083007812, 6.20703125) (0.00021778686523437498, 6.208984375) (0.00016407096862792968, 6.2109375) (9.719574737548827e-05, 6.212890625) (2.1510923385620115e-05, 6.21484375) (-5.797509384155273e-05, 6.216796875) (-0.00013721200561523438, 6.21875) (-0.00021214010620117186, 6.220703125) (-0.00027833300781249996, 6.22265625) (-0.00033219122314453125, 6.224609375) (-0.00037114599609375, 6.2265625) (-0.0003939684448242187, 6.228515625) (-0.00040132220458984373, 6.23046875) (-0.0003946316528320312, 6.232421875) (-0.00037506869506835936, 6.234375) (-0.00034481234741210934, 6.236328125) (-0.0003070987854003906, 6.23828125) (-0.0002651736145019531, 6.240234375) (-0.00022237286376953125, 6.2421875) (-0.0001813743438720703, 6.244140625) (-0.0001438114013671875, 6.24609375) (-0.00011133879852294922, 6.248046875) (-8.56150894165039e-05, 6.25) (-6.718682098388671e-05, 6.251953125) (-5.5702594757080076e-05, 6.25390625) (-5.030556106567383e-05, 6.255859375) (-4.947181701660156e-05, 6.2578125) (-5.1883789062499996e-05, 6.259765625) (-5.644639587402344e-05, 6.26171875) (-6.153074645996093e-05, 6.263671875) (-6.563003540039062e-05, 6.265625) (-6.794513702392578e-05, 6.267578125) (-6.809294128417968e-05, 6.26953125) (-6.620526123046874e-05, 6.271484375) (-6.289952850341797e-05, 6.2734375) (-5.866445922851562e-05, 6.275390625) (-5.4061759948730466e-05, 6.27734375) (-5.0017189025878906e-05, 6.279296875) (-4.7203441619873044e-05, 6.28125) (-4.5923706054687495e-05, 6.283203125) (-4.62889404296875e-05, 6.28515625) (-4.8061065673828124e-05, 6.287109375) (-5.084125518798828e-05, 6.2890625) (-5.430966186523437e-05, 6.291015625) (-5.80544319152832e-05, 6.29296875) (-6.157320404052734e-05, 6.294921875) (-6.454228210449218e-05, 6.296875) (-6.6781005859375e-05, 6.298828125) (-6.820720672607421e-05, 6.30078125) (-6.888420104980468e-05, 6.302734375) (-6.888055419921875e-05, 6.3046875) (-6.823810577392578e-05, 6.306640625) (-6.704900360107422e-05, 6.30859375) (-6.542379760742187e-05, 6.310546875) (-6.345109558105468e-05, 6.3125) (-6.121250534057617e-05, 6.314453125) (-5.8776798248291016e-05, 6.31640625) (-5.6199890136718744e-05, 6.318359375) (-5.356063079833984e-05, 6.3203125) (-5.0958541870117186e-05, 6.322265625) (-4.848240661621094e-05, 6.32421875) (-4.620232009887695e-05, 6.326171875) (-4.416457366943359e-05, 6.328125) (-4.2393756866455074e-05, 6.330078125) (-4.090381622314453e-05, 6.33203125) (-3.970107650756836e-05, 6.333984375) (-3.8783817291259766e-05, 6.3359375) (-3.813629150390625e-05, 6.337890625) (-3.773436737060547e-05, 6.33984375) (-3.7554359436035155e-05, 6.341796875) (-3.757240295410156e-05, 6.34375) (-3.7765724182128905e-05, 6.345703125) (-3.8107746124267574e-05, 6.34765625) (-3.85654296875e-05, 6.349609375) (-3.9100250244140624e-05, 6.3515625) (-3.967155075073242e-05, 6.353515625) (-4.02457160949707e-05, 6.35546875) (-4.0797260284423825e-05, 6.357421875) (-4.1308456420898436e-05, 6.359375) (-4.176795959472656e-05, 6.361328125) (-4.2168102264404295e-05, 