(0.0001536553497314453, 0.0) (0.00016374447631835936, 0.001953125) (0.0001727220458984375, 0.00390625) (0.00018043341064453124, 0.005859375) (0.00018677030944824218, 0.0078125) (0.0001916593322753906, 0.009765625) (0.00019507064819335935, 0.01171875) (0.0001969747772216797, 0.013671875) (0.00019734458923339842, 0.015625) (0.00019618524169921875, 0.017578125) (0.00019350186157226563, 0.01953125) (0.00018929206848144532, 0.021484375) (0.00018358599853515625, 0.0234375) (0.00017644747924804686, 0.025390625) (0.00016799192810058592, 0.02734375) (0.00015842031860351563, 0.029296875) (0.0001479890899658203, 0.03125) (0.00013696295166015624, 0.033203125) (0.00012557684326171875, 0.03515625) (0.00011401728820800781, 0.037109375) (0.00010245170593261718, 0.0390625) (9.104399108886719e-05, 0.041015625) (7.994717407226562e-05, 0.04296875) (6.930868530273437e-05, 0.044921875) (5.9253482818603515e-05, 0.046875) (4.987602996826172e-05, 0.048828125) (4.1278892517089843e-05, 0.05078125) (3.3585201263427735e-05, 0.052734375) (2.6897159576416016e-05, 0.0546875) (2.127885055541992e-05, 0.056640625) (1.6747873306274414e-05, 0.05859375) (1.325169277191162e-05, 0.060546875) (1.0688406944274902e-05, 0.0625) (8.949108123779297e-06, 0.064453125) (7.931406021118164e-06, 0.06640625) (7.537522315979003e-06, 0.068359375) (7.658835411071777e-06, 0.0703125) (8.170360565185546e-06, 0.072265625) (8.933279037475586e-06, 0.07421875) (9.806648254394531e-06, 0.076171875) (1.067950439453125e-05, 0.078125) (1.1460977554321288e-05, 0.080078125) (1.2044605255126952e-05, 0.08203125) (1.2308168411254882e-05, 0.083984375) (1.214179515838623e-05, 0.0859375) (1.1459141731262206e-05, 0.087890625) (1.0209217071533203e-05, 0.08984375) (8.387764930725097e-06, 0.091796875) (6.00018835067749e-06, 0.09375) (3.0502762794494627e-06, 0.095703125) (-4.352864027023315e-07, 0.09765625) (-4.425472259521484e-06, 0.099609375) (-8.876721382141113e-06, 0.1015625) (-1.371647834777832e-05, 0.103515625) (-1.887928581237793e-05, 0.10546875) (-2.432238006591797e-05, 0.107421875) (-2.998560905456543e-05, 0.109375) (-3.581658935546875e-05, 0.111328125) (-4.1818046569824215e-05, 0.11328125) (-4.795695877075195e-05, 0.115234375) (-5.418889999389648e-05, 0.1171875) (-6.0530590057373044e-05, 0.119140625) (-6.695215606689453e-05, 0.12109375) (-7.335055541992187e-05, 0.123046875) (-7.972322845458984e-05, 0.125) (-8.609754943847655e-05, 0.126953125) (-9.227345275878905e-05, 0.12890625) (-9.809600067138671e-05, 0.130859375) (-0.00010374518585205078, 0.1328125) (-0.00010918473815917969, 0.134765625) (-0.0001143282470703125, 0.13671875) (-0.00011975382995605468, 0.138671875) (-0.0001245933837890625, 0.140625) (-0.00012768433380126954, 0.142578125) (-0.00013051931762695312, 0.14453125) (-0.00013357672119140623, 0.146484375) (-0.00013914700317382812, 0.1484375) (-0.00015163082885742186, 0.150390625) (-0.00016850367736816405, 0.15234375) (-0.00018572599792480467, 0.154296875) (-0.0001991961669921875, 0.15625) (-0.00020102307128906248, 0.158203125) (-0.00019203172302246092, 0.16015625) (-0.00017978387451171875, 0.162109375) (-0.0001693787841796875, 0.1640625) (-0.00016883551025390623, 0.166015625) (-0.0001804353485107422, 0.16796875) (-0.0001964322509765625, 0.169921875) (-0.00021215623474121092, 0.171875) (-0.00022301589965820312, 0.173828125) (-0.00022556811523437499, 0.17578125) (-0.0002243961181640625, 0.177734375) (-0.00022248602294921874, 0.1796875) (-0.00022072903442382812, 0.181640625) (-0.00022101342773437498, 0.18359375) (-0.00022190196228027344, 0.185546875) (-0.00022209074401855468, 0.1875) (-0.00022200640869140623, 0.189453125) (-0.0002214098663330078, 0.19140625) (-0.00022038906860351562, 0.193359375) (-0.00021926315307617186, 0.1953125) (-0.00021783451843261718, 0.197265625) (-0.00021593928527832032, 0.19921875) (-0.00021362962341308592, 0.201171875) (-0.00021089808654785154, 0.203125) (-0.0002077041015625, 0.205078125) (-0.0002040763702392578, 0.20703125) (-0.00020005238342285156, 0.208984375) (-0.00019564788818359375, 0.2109375) (-0.00019090859985351562, 0.212890625) (-0.00018588546752929688, 0.21484375) (-0.00018058058166503906, 0.216796875) (-0.00017500335693359373, 0.21875) (-0.0001691833801269531, 0.220703125) (-0.000163138427734375, 0.22265625) (-0.00015688906860351562, 0.224609375) (-0.00015046043395996092, 0.2265625) (-0.00014387042236328125, 0.228515625) (-0.00013713803100585937, 0.23046875) (-0.00013028916931152342, 0.232421875) (-0.00012334849548339844, 0.234375) (-0.00011633893585205077, 0.236328125) (-0.00010928411865234375, 0.23828125) (-0.00010220606231689453, 0.240234375) (-9.512624359130859e-05, 0.2421875) (-8.806655120849609e-05, 0.244140625) (-8.104816436767577e-05, 0.24609375) (-7.409146881103515e-05, 0.248046875) (-6.721623229980468e-05, 0.25) (-6.044139099121094e-05, 0.251953125) (-5.3785011291503906e-05, 0.25390625) (-4.7264289855957026e-05, 0.255859375) (-4.0895423889160156e-05, 0.2578125) (-3.46934814453125e-05, 0.259765625) (-2.8672422409057615e-05, 0.26171875) (-2.2844928741455076e-05, 0.263671875) (-1.7222173690795896e-05, 0.265625) (-1.181381607055664e-05, 0.267578125) (-6.6280350685119624e-06, 0.26953125) (-1.671500325202942e-06, 0.271484375) (3.0505275726318357e-06, 0.2734375) (7.534163951873779e-06, 0.275390625) (1.1776925086975097e-05, 0.27734375) (1.5777647018432617e-05, 0.279296875) (1.9536321640014648e-05, 0.28125) (2.3054094314575196e-05, 0.283203125) (2.6333251953125e-05, 0.28515625) (2.9377216339111325e-05, 0.287109375) (3.219057464599609e-05, 0.2890625) (3.477904510498047e-05, 0.291015625) (3.71494140625e-05, 0.29296875) (3.9309509277343745e-05, 0.294921875) (4.126812744140625e-05, 0.296875) (4.303498840332031e-05, 0.298828125) (4.462067794799804e-05, 0.30078125) (4.6036537170410154e-05, 0.302734375) (4.729456329345703e-05, 0.3046875) (4.8407360076904294e-05, 0.306640625) (4.9388000488281245e-05, 0.30859375) (5.025000762939453e-05, 0.310546875) (5.100726699829101e-05, 0.3125) (5.167392349243164e-05, 0.314453125) (5.226424407958984e-05, 0.31640625) (5.279248809814453e-05, 0.318359375) (5.327279663085937e-05, 0.3203125) (5.3719078063964843e-05, 0.322265625) (5.414488220214843e-05, 0.32421875) (5.4563278198242186e-05, 0.326171875) (5.498666381835937e-05, 0.328125) (5.5426704406738276e-05, 0.330078125) (5.5894287109374995e-05, 0.33203125) (5.6399459838867186e-05, 0.333984375) (5.69514045715332e-05, 0.3359375) (5.755839157104492e-05, 0.337890625) (5.822771835327148e-05, 0.33984375) (5.896572875976562e-05, 0.341796875) (5.977777862548828e-05, 0.34375) (6.066829299926758e-05, 0.345703125) (6.164067077636719e-05, 0.34765625) (6.269728851318359e-05, 0.349609375) (6.383948516845703e-05, 0.3515625) (6.506751251220702e-05, 0.353515625) (6.638058471679687e-05, 0.35546875) (6.777689361572265e-05, 0.357421875) (6.925362396240234e-05, 0.359375) (7.080693817138671e-05, 0.361328125) (7.24319839477539e-05, 0.36328125) (7.412294006347656e-05, 0.365234375) (7.587312316894531e-05, 0.3671875) (7.767499542236327e-05, 0.369140625) (7.952023315429687e-05, 0.37109375) (8.139978790283203e-05, 0.373046875) (8.330393218994141e-05, 0.375) (8.522244262695312e-05, 0.376953125) (8.714468383789062e-05, 0.37890625) (8.905976867675781e-05, 0.380859375) (9.095664978027344e-05, 0.3828125) (9.282431030273437e-05, 0.384765625) (9.465178680419921e-05, 0.38671875) (9.642837524414062e-05, 0.388671875) (9.81437530517578e-05, 0.390625) (9.97880859375e-05, 0.392578125) (0.00010135209655761718, 0.39453125) (0.00010282711791992187, 0.396484375) (0.0001042052001953125, 0.3984375) (0.00010547913360595702, 0.400390625) (0.000106642578125, 0.40234375) (0.00010769004821777344, 0.404296875) (0.00010861698913574218, 0.40625) (0.00010941970825195312, 0.408203125) (0.00011009544372558593, 0.41015625) (0.00011064235687255859, 0.412109375) (0.00011105956268310547, 0.4140625) (0.00011134709167480469, 0.416015625) (0.00011150587463378906, 0.41796875) (0.0001115376739501953, 0.419921875) (0.00011144512176513671, 0.421875) (0.00011123170471191406, 0.423828125) (0.00011090180206298828, 0.42578125) (0.00011046060943603515, 0.427734375) (0.00010991410827636718, 0.4296875) (0.00010926898956298827, 0.431640625) (0.00010853270721435546, 0.43359375) (0.00010771325683593749, 0.435546875) (0.00010681924438476562, 0.4375) (0.00010585967254638671, 0.439453125) (0.0001048438720703125, 0.44140625) (0.00010378131103515625, 0.443359375) (0.0001026815185546875, 0.4453125) (0.00010155401611328125, 0.447265625) (0.00010040819549560547, 0.44921875) (9.92531509399414e-05, 0.451171875) (9.809757232666015e-05, 0.453125) (9.694973754882812e-05, 0.455078125) (9.581726837158203e-05, 0.45703125) (9.470719909667968e-05, 0.458984375) (9.362575531005858e-05, 0.4609375) (9.257839202880859e-05, 0.462890625) (9.1569580078125e-05, 0.46484375) (9.060282135009765e-05, 0.466796875) (8.968064117431641e-05, 0.46875) (8.880457305908202e-05, 0.470703125) (8.797518157958984e-05, 0.47265625) (8.719206237792969e-05, 0.474609375) (8.645387268066405e-05, 0.4765625) (8.575831604003906e-05, 0.478515625) (8.510227966308593e-05, 0.48046875) (8.448184204101562e-05, 0.482421875) (8.389230346679687e-05, 0.484375) (8.332817077636718e-05, 0.486328125) (8.278318023681641e-05, 0.48828125) (8.22503433227539e-05, 0.490234375) (8.172199249267577e-05, 0.4921875) (8.118988800048827e-05, 0.494140625) (8.064529418945312e-05, 0.49609375) (8.00789794921875e-05, 0.498046875) (7.948133850097656e-05, 0.5) (7.884249877929686e-05, 0.501953125) (7.815245819091797e-05, 0.50390625) (7.740119934082031e-05, 0.505859375) (7.657872772216796e-05, 0.5078125) (7.56751708984375e-05, 0.509765625) (7.468077850341796e-05, 0.51171875) (7.358611297607421e-05, 0.513671875) (7.238211059570313e-05, 0.515625) (7.106022644042968e-05, 0.517578125) (6.961251831054688e-05, 0.51953125) (6.803172302246094e-05, 0.521484375) (6.631129455566406e-05, 0.5234375) (6.444557189941405e-05, 0.525390625) (6.242990493774413e-05, 0.52734375) (6.026068878173828e-05, 0.529296875) (5.793535232543945e-05, 0.53125) (5.545233154296875e-05, 0.533203125) (5.281100082397461e-05, 0.53515625) (5.001179122924805e-05, 0.537109375) (4.705616760253906e-05, 0.5390625) (4.394659423828125e-05, 0.541015625) (4.068643951416016e-05, 0.54296875) (3.727991485595703e-05, 0.544921875) (3.373200988769531e-05, 0.546875) (3.004855728149414e-05, 0.548828125) (2.6236219406127927e-05, 0.55078125) (2.230238342285156e-05, 0.552734375) (1.825505447387695e-05, 0.5546875) (1.4102663993835448e-05, 0.556640625) (9.854063034057617e-06, 0.55859375) (5.518497467041015e-06, 0.560546875) (1.1055397987365722e-06, 0.5625) (-3.3750016689300536e-06, 0.564453125) (-7.913202285766602e-06, 0.56640625) (-1.2499186515808105e-05, 0.568359375) (-1.712310791015625e-05, 0.5703125) (-2.1775028228759764e-05, 0.572265625) (-2.644497299194336e-05, 0.57421875) (-3.112306213378906e-05, 0.576171875) (-3.5799613952636716e-05, 0.578125) (-4.046530151367187e-05, 0.580078125) (-4.511124038696289e-05, 0.58203125) (-4.9728816986083984e-05, 0.583984375) (-5.430972671508789e-05, 0.5859375) (-5.884621810913086e-05, 0.587890625) (-6.333121490478515e-05, 0.58984375) (-6.775828552246094e-05, 0.591796875) (-7.212162017822266e-05, 0.59375) (-7.641577911376953e-05, 0.595703125) (-8.063565063476562e-05, 0.59765625) (-8.477679443359374e-05, 0.599609375) (-8.88355255126953e-05, 0.6015625) (-9.280891418457031e-05, 0.603515625) (-9.669459533691406e-05, 0.60546875) (-0.00010049059295654297, 0.607421875) (-0.00010419535064697265, 0.609375) (-0.00010780787658691405, 0.611328125) (-0.00011132778167724608, 0.61328125) (-0.00011475507354736328, 0.615234375) (-0.00011808992004394531, 0.6171875) (-0.00012133219909667968, 0.619140625) (-0.00012448170471191406, 0.62109375) (-0.00012753828430175782, 0.623046875) (-0.00013050172424316405, 0.625) (-0.00013337179565429686, 0.626953125) (-0.00013614793395996092, 0.62890625) (-0.00013882907104492188, 0.630859375) (-0.00014141372680664062, 0.6328125) (-0.00014390057373046873, 0.634765625) (-0.00014628842163085936, 0.63671875) (-0.00014857586669921873, 0.638671875) (-0.00015076129150390623, 0.640625) (-0.0001528425598144531, 0.642578125) (-0.00015481715393066405, 0.64453125) (-0.0001566826934814453, 0.646484375) (-0.0001584371337890625, 0.6484375) (-0.00016007829284667968, 0.650390625) (-0.00016160342407226563, 0.65234375) (-0.00016300978088378907, 0.654296875) (-0.00016429489135742187, 0.65625) (-0.00016545701599121092, 0.658203125) (-0.00016649562072753904, 0.66015625) (-0.00016741004943847656, 0.662109375) (-0.00016819891357421873, 0.6640625) (-0.00016886090087890623, 0.666015625) (-0.00016939527893066405, 0.66796875) (-0.00016980116271972655, 0.669921875) (-0.00017007775878906248, 0.671875) (-0.00017022294616699218, 0.673828125) (-0.0001702326965332031, 0.67578125) (-0.0001701038818359375, 0.677734375) (-0.00016983444213867187, 0.6796875) (-0.00016942338562011717, 0.681640625) (-0.000168871337890625, 0.68359375) (-0.00016817880249023437, 0.685546875) (-0.00016734677124023438, 0.6875) (-0.0001663787841796875, 0.689453125) (-0.00016528005981445313, 0.69140625) (-0.00016405682373046875, 0.693359375) (-0.00016271623229980467, 0.6953125) (-0.00016126156616210935, 0.697265625) (-0.00015969326782226562, 0.69921875) (-0.00015801556396484375, 0.701171875) (-0.00015623388671875, 0.703125) (-0.00015435833740234375, 0.705078125) (-0.00015240452575683593, 0.70703125) (-0.00015038168334960937, 0.708984375) (-0.0001482953338623047, 0.7109375) (-0.00014615475463867187, 0.712890625) (-0.0001439678955078125, 0.71484375) (-0.00014173974609375, 0.716796875) (-0.00013947148132324217, 0.71875) (-0.000137148193359375, 0.720703125) (-0.0001347445831298828, 0.72265625) (-0.00013224234008789063, 0.724609375) (-0.00012962716674804687, 0.7265625) (-0.00012689518737792968, 0.728515625) (-0.0001240501022338867, 0.73046875) (-0.00012108514404296874, 0.732421875) (-0.00011799360656738281, 0.734375) (-0.00011476925659179687, 0.736328125) (-0.00011140299987792968, 0.73828125) (-0.00010790444946289061, 0.740234375) (-0.00010429000854492187, 0.7421875) (-0.00010056156158447265, 0.744140625) (-9.67288589477539e-05, 0.74609375) (-9.281837463378906e-05, 0.748046875) (-8.887187194824219e-05, 0.75) (-8.497648620605469e-05, 0.751953125) (-8.124130249023438e-05, 0.75390625) (-7.774830627441406e-05, 0.755859375) (-7.456201171875e-05, 0.7578125) (-7.172231292724609e-05, 0.759765625) (-6.925550842285156e-05, 0.76171875) (-6.721249389648437e-05, 0.763671875) (-6.564874267578124e-05, 0.765625) (-6.460506439208984e-05, 0.767578125) (-6.40965347290039e-05, 0.76953125) (-6.409411621093749e-05, 0.771484375) (-6.45914306640625e-05, 0.7734375) (-6.563014221191406e-05, 0.775390625) (-6.71977081298828e-05, 0.77734375) (-6.91878433227539e-05, 0.779296875) (-7.132836151123046e-05, 0.78125) (-7.319135284423828e-05, 0.783203125) (-7.440281677246093e-05, 0.78515625) (-7.464225006103515e-05, 0.787109375) (-7.355314636230469e-05, 0.7890625) (-7.089805603027344e-05, 0.791015625) (-6.657713317871093e-05, 0.79296875) (-6.062442398071289e-05, 0.794921875) (-5.3622676849365234e-05, 0.796875) (-4.6353927612304685e-05, 0.798828125) (-3.926472473144531e-05, 0.80078125) (-3.323618316650391e-05, 0.802734375) (-2.9265466690063475e-05, 0.8046875) (-2.73836612701416e-05, 0.806640625) (-2.765964889526367e-05, 0.80859375) (-2.8950828552246092e-05, 0.810546875) (-2.746462631225586e-05, 0.8125) (-2.1496017456054687e-05, 0.814453125) (-1.0996217727661132e-05, 0.81640625) (3.536348819732666e-06, 0.818359375) (1.7095529556274413e-05, 0.8203125) (2.888448905944824e-05, 0.822265625) (4.468048858642578e-05, 0.82421875) (7.121366882324219e-05, 0.826171875) (0.0001200968780517578, 0.828125) (0.00019540255737304687, 0.830078125) (0.00028722265625, 0.83203125) (0.0003803551025390625, 0.833984375) (0.0004517606506347656, 0.8359375) (0.00048555987548828125, 0.837890625) (0.00048134869384765624, 0.83984375) (0.0004439960021972656, 0.841796875) (0.0003881349182128906, 0.84375) (0.00032526672363281247, 0.845703125) (0.0002574642333984375, 0.84765625) (0.00019003363037109374, 0.849609375) (0.0001234874267578125, 0.8515625) (6.041468811035156e-05, 0.853515625) (9.242738723754882e-06, 0.85546875) (-2.9526554107666013e-05, 0.857421875) (-5.4905059814453124e-05, 0.859375) (-6.702038574218749e-05, 0.861328125) (-7.057730865478515e-05, 0.86328125) (-6.491979980468749e-05, 0.865234375) (-5.009844589233398e-05, 0.8671875) (-2.8431480407714843e-05, 0.869140625) (-1.168990135192871e-06, 0.87109375) (2.755037498474121e-05, 0.873046875) (5.371693038940429e-05, 0.875) (7.587218475341796e-05, 0.876953125) (9.318061828613281e-05, 0.87890625) (0.0001058787841796875, 0.880859375) (0.00011484480285644531, 0.8828125) (0.00012069876098632811, 0.884765625) (0.00012431706237792968, 0.88671875) (0.0001269413604736328, 0.888671875) (0.0001297457580566406, 0.890625) (0.00013336358642578126, 0.892578125) (0.00013791836547851562, 0.89453125) (0.00014326336669921873, 0.896484375) (0.0001490455780029297, 0.8984375) (0.00015494967651367186, 0.900390625) (0.00016070919799804687, 0.90234375) (0.00016593438720703124, 0.904296875) (0.0001702493438720703, 0.90625) (0.00017352380371093748, 0.908203125) (0.00017580865478515625, 0.91015625) (0.00017726530456542967, 0.912109375) (0.00017815985107421875, 0.9140625) (0.00017870758056640624, 0.916015625) (0.00017906840515136718, 0.91796875) (0.00017942863464355467, 0.919921875) (0.00017993728637695313, 0.921875) (0.0001806889190673828, 0.923828125) (0.00018174755859374998, 0.92578125) (0.00018312699890136717, 0.927734375) (0.00018481222534179686, 0.9296875) (0.0001867998352050781, 0.931640625) (0.0001890884094238281, 0.93359375) (0.0001916713409423828, 0.935546875) (0.00019454710388183593, 0.9375) (0.00019769914245605468, 0.939453125) (0.00020110166931152344, 0.94140625) (0.0002047333984375, 0.943359375) (0.000208561279296875, 0.9453125) (0.00021255038452148436, 0.947265625) (0.00021666665649414061, 0.94921875) (0.00022087145996093748, 0.951171875) (0.0002251412658691406, 0.953125) (0.0002294658203125, 0.955078125) (0.00023383969116210935, 0.95703125) (0.00023826637268066405, 0.958984375) (0.00024275384521484374, 0.9609375) (0.00024730929565429686, 0.962890625) (0.00025194415283203125, 0.96484375) (0.00025667257690429685, 0.966796875) (0.00026150216674804684, 0.96875) (0.00026644049072265625, 0.970703125) (0.00027149462890625, 0.97265625) (0.00027666748046875, 0.974609375) (0.00028196514892578123, 0.9765625) (0.00028739410400390624, 0.978515625) (0.0002929592895507812, 0.98046875) (0.00029866595458984374, 0.982421875) (0.0003045155029296875, 0.984375) (0.0003105043334960937, 0.986328125) (0.0003166268310546875, 0.98828125) (0.000322875, 0.990234375) (0.00032923779296875, 0.9921875) (0.00033570269775390625, 0.994140625) (0.00034225421142578124, 0.99609375) (0.0003488739318847656, 0.998046875) (0.0003555442810058594, 1.0) (0.0003622479248046875, 1.001953125) (0.00036896673583984373, 1.00390625) (0.00037568243408203124, 1.005859375) (0.00038237518310546873, 1.0078125) (0.0003890236206054687, 1.009765625) (0.00039560629272460937, 1.01171875) (0.0004021015625, 1.013671875) (0.0004084866943359375, 1.015625) (0.00041473849487304684, 1.017578125) (0.00042083355712890623, 1.01953125) (0.0004267480773925781, 1.021484375) (0.0004324593811035156, 1.0234375) (0.00043794549560546874, 1.025390625) (0.00044318539428710933, 1.02734375) (0.0004481589660644531, 1.029296875) (0.0004528470458984375, 1.03125) (0.0004572313842773437, 1.033203125) (0.00046129501342773437, 1.03515625) (0.00046502227783203125, 1.037109375) (0.0004683988647460937, 1.0390625) (0.00047141186523437495, 1.041015625) (0.0004740496215820312, 1.04296875) (0.0004763020324707031, 1.044921875) (0.00047816070556640623, 1.046875) (0.00047961929321289063, 1.048828125) (0.0004806734008789062, 1.05078125) (0.00048132055664062496, 1.052734375) (0.0004815599670410156, 1.0546875) (0.00048139318847656247, 1.056640625) (0.00048082366943359375, 1.05859375) (0.0004798572387695312, 1.060546875) (0.0004785015869140625, 1.0625) (0.0004767666015625, 1.064453125) (0.0004746640930175781, 1.06640625) (0.0004722080078125, 1.068359375) (0.00046941415405273436, 1.0703125) (0.00046630023193359375, 1.072265625) (0.0004628856201171875, 1.07421875) (0.00045919104003906247, 1.076171875) (0.0004552387084960937, 1.078125) (0.0004510520629882812, 1.080078125) (0.0004466553039550781, 1.08203125) (0.00044207354736328124, 1.083984375) (0.0004373321838378906, 1.0859375) (0.0004324571838378906, 1.087890625) (0.00042747457885742186, 1.08984375) (0.0004224105224609375, 1.091796875) (0.0004172910766601562, 1.09375) (0.0004121419982910156, 1.095703125) (0.00040698876953125, 1.09765625) (0.00040185629272460933, 1.099609375) (0.00039676885986328125, 1.1015625) (0.00039175, 1.103515625) (0.0003868223876953125, 1.10546875) (0.0003820075988769531, 1.107421875) (0.0003773262329101562, 1.109375) (0.00037279760742187497, 1.111328125) (0.0003684397277832031, 1.11328125) (0.000364269287109375, 1.115234375) (0.00036030142211914063, 1.1171875) (0.0003565498352050781, 1.119140625) (0.0003530264587402344, 1.12109375) (0.0003497415161132812, 1.123046875) (0.0003467032775878906, 1.125) (0.00034391815185546876, 1.126953125) (0.00034139056396484375, 1.12890625) (0.0003391229248046875, 1.130859375) (0.00033711578369140623, 1.1328125) (0.0003353677673339844, 1.134765625) (0.0003338758850097656, 1.13671875) (0.00033263546752929687, 1.138671875) (0.000331640380859375, 1.140625) (0.000330883056640625, 1.142578125) (0.00033035482788085934, 1.14453125) (0.00033004583740234376, 1.146484375) (0.0003299451904296875, 1.1484375) (0.00033004107666015624, 1.150390625) (0.0003303207092285156, 1.15234375) (0.0003307706298828125, 1.154296875) (0.000331376708984375, 1.15625) (0.00033212426757812496, 1.158203125) (0.00033299835205078125, 1.16015625) (0.00033398352050781246, 1.162109375) (0.0003350643310546875, 1.1640625) (0.00033622515869140626, 1.166015625) (0.000337450439453125, 1.16796875) (0.000338724609375, 1.169921875) (0.0003400322265625, 1.171875) (0.0003413578796386719, 1.173828125) (0.00034268658447265623, 1.17578125) (0.0003440034484863281, 1.177734375) (0.00034529412841796875, 1.1796875) (0.0003465446166992187, 1.181640625) (0.00034774176025390626, 1.18359375) (0.00034887316894531247, 1.185546875) (0.00034992721557617186, 1.1875) (0.00035089346313476563, 1.189453125) (0.0003517625122070312, 1.19140625) (0.00035252593994140625, 1.193359375) (0.0003531765747070312, 1.1953125) (0.0003537081604003906, 1.197265625) (0.0003541156005859375, 1.19921875) (0.0003543948059082031, 1.201171875) (0.00035454251098632813, 1.203125) (0.0003545565185546875, 1.205078125) (0.0003544355773925781, 1.20703125) (0.00035417929077148435, 1.208984375) (0.0003537882385253906, 1.2109375) (0.00035326379394531247, 1.212890625) (0.00035260827636718746, 1.21484375) (0.0003518245849609375, 1.216796875) (0.0003509165649414062, 1.21875) (0.00034988842773437496, 1.220703125) (0.00034874508666992186, 1.22265625) (0.0003474917602539062, 1.224609375) (0.00034613427734374997, 1.2265625) (0.0003446786193847656, 1.228515625) (0.00034313131713867187, 1.23046875) (0.0003414993896484375, 1.232421875) (0.0003397900390625, 1.234375) (0.0003380108337402344, 1.236328125) (0.0003361699523925781, 1.23828125) (0.0003342755432128906, 1.240234375) (0.00033233602905273436, 1.2421875) (0.0003303600158691406, 1.244140625) (0.0003283558349609375, 1.24609375) (0.0003263318176269531, 1.248046875) (0.0003242959899902344, 1.25) (0.0003222560424804687, 1.251953125) (0.0003202193603515625, 1.25390625) (0.0003181927490234375, 1.255859375) (0.000316182861328125, 1.2578125) (0.00031419561767578126, 1.259765625) (0.0003122367248535156, 1.26171875) (0.00031031109619140626, 1.263671875) (0.00030842337036132814, 1.265625) (0.00030657733154296874, 1.267578125) (0.00030477630615234375, 1.26953125) (0.0003030228271484375, 1.271484375) (0.00030131878662109375, 1.2734375) (0.00029966534423828123, 1.275390625) (0.0002980630187988281, 1.27734375) (0.00029651171875, 1.279296875) (0.00029501083374023436, 1.28125) (0.0002935592651367187, 1.283203125) (0.00029215542602539064, 1.28515625) (0.00029079730224609374, 1.287109375) (0.0002894825439453125, 1.2890625) (0.000288208251953125, 1.291015625) (0.00028697113037109376, 1.29296875) (0.0002857674560546875, 1.294921875) (0.00028459301757812497, 1.296875) (0.00028344311523437497, 1.298828125) (0.00028231268310546873, 1.30078125) (0.00028119638061523437, 1.302734375) (0.00028008856201171874, 1.3046875) (0.00027898336791992186, 1.306640625) (0.00027787481689453124, 1.30859375) (0.00027675692749023437, 1.310546875) (0.00027562387084960934, 1.3125) (0.00027446966552734374, 1.314453125) (0.00027328863525390623, 1.31640625) (0.0002720750732421875, 1.318359375) (0.0002708236083984375, 1.3203125) (0.0002695289611816406, 1.322265625) (0.0002681862182617187, 1.32421875) (0.000266791015625, 1.326171875) (0.0002653393249511719, 1.328125) (0.0002638277893066406, 1.330078125) (0.0002622535400390625, 1.33203125) (0.00026061456298828126, 1.333984375) (0.00025890948486328124, 1.3359375) (0.00025713763427734376, 1.337890625) (0.0002552989501953125, 1.33984375) (0.0002533939971923828, 1.341796875) (0.0002514238891601562, 1.34375) (0.00024939022827148434, 1.345703125) (0.00024729522705078125, 1.34765625) (0.0002451416015625, 1.349609375) (0.0002429326934814453, 1.3515625) (0.00024067221069335937, 1.353515625) (0.0002383644561767578, 1.35546875) (0.00023601429748535156, 1.357421875) (0.00023362710571289062, 1.359375) (0.00023120863342285155, 1.361328125) (0.00022876515197753906, 1.36328125) (0.00022630303955078123, 1.365234375) (0.0002238289794921875, 1.3671875) (0.0002213498840332031, 1.369140625) (0.00021887294006347655, 1.37109375) (0.0002164053497314453, 1.373046875) (0.00021395440673828124, 1.375) (0.00021152752685546874, 1.376953125) (0.00020913214111328125, 1.37890625) (0.00020677574157714843, 1.380859375) (0.0002044658966064453, 1.3828125) (0.0002022099609375, 1.384765625) (0.00020001498413085936, 1.38671875) (0.0001978875732421875, 1.388671875) (0.0001958337707519531, 1.390625) (0.00019385914611816407, 1.392578125) (0.0001919686584472656, 1.39453125) (0.0001901667785644531, 1.396484375) (0.0001884571075439453, 1.3984375) (0.00018684255981445312, 1.400390625) (0.0001853255615234375, 1.40234375) (0.00018390805053710937, 1.404296875) (0.00018259165954589843, 1.40625) (0.00018137753295898435, 1.408203125) (0.00018026605224609373, 1.41015625) (0.00017925677490234374, 1.412109375) (0.00017834880065917968, 1.4140625) (0.0001775406494140625, 1.416015625) (0.00017683029174804686, 1.41796875) (0.0001762149963378906, 1.419921875) (0.0001756912841796875, 1.421875) (0.00017525523376464843, 1.423828125) (0.00017490277099609374, 1.42578125) (0.00017462965393066405, 1.427734375) (0.00017443138122558594, 1.4296875) (0.00017430316162109373, 1.431640625) (0.00017423974609374998, 1.43359375) (0.00017423577880859375, 1.435546875) (0.00017428581237792967, 1.4375) (0.00017438395690917968, 1.439453125) (0.00017452403259277344, 1.44140625) (0.00017469931030273436, 1.443359375) (0.00017490264892578125, 1.4453125) (0.00017512667846679688, 1.447265625) (0.00017536416625976562, 1.44921875) (0.0001756082763671875, 1.451171875) (0.000175852294921875, 1.453125) (0.00017608993530273436, 1.455078125) (0.0001763148498535156, 1.45703125) (0.00017652088928222655, 1.458984375) (0.00017670271301269532, 1.4609375) (0.0001768555450439453, 1.462890625) (0.00017697402954101562, 1.46484375) (0.00017705209350585936, 1.466796875) (0.00017708297729492187, 1.46875) (0.00017705902099609375, 1.470703125) (0.00017697352600097655, 1.47265625) (0.00017682069396972655, 1.474609375) (0.0001765942687988281, 1.4765625) (0.00017628839111328125, 1.478515625) (0.00017589822387695312, 1.48046875) (0.0001754204864501953, 1.482421875) (0.00017485459899902343, 1.484375) (0.00017420159912109374, 1.486328125) (0.00017346165466308592, 1.48828125) (0.00017263406372070313, 1.490234375) (0.00017171737670898437, 1.4921875) (0.00017071005249023438, 1.494140625) (0.00016961209106445313, 1.49609375) (0.00016842327880859374, 1.498046875) (0.00016714279174804688, 1.5) (0.00016577133178710937, 1.501953125) (0.00016431112670898436, 1.50390625) (0.00016276596069335935, 1.505859375) (0.00016114398193359375, 1.5078125) (0.00015945431518554686, 1.509765625) (0.00015770227050781248, 1.51171875) (0.00015589247131347656, 1.513671875) (0.000154023681640625, 1.515625) (0.0001520880126953125, 1.517578125) (0.0001500812072753906, 1.51953125) (0.0001480021209716797, 1.521484375) (0.0001458516845703125, 1.5234375) (0.00014363461303710937, 1.525390625) (0.00014135975646972657, 1.52734375) (0.0001390394287109375, 1.529296875) (0.0001366962890625, 1.53125) (0.00013435989379882813, 1.533203125) (0.0001320557861328125, 1.53515625) (0.00012981019592285157, 1.537109375) (0.00012764222717285154, 1.5390625) (0.0001255694122314453, 1.541015625) (0.00012361570739746094, 1.54296875) (0.00012179598999023437, 1.544921875) (0.00012013166046142578, 1.546875) (0.00011865580749511718, 1.548828125) (0.00011739704895019531, 1.55078125) (0.0001163744888305664, 1.552734375) (0.00011559342193603515, 1.5546875) (0.00011504331970214844, 1.556640625) (0.00011469853210449219, 1.55859375) (0.00011454525756835936, 1.560546875) (0.00011456365966796875, 1.5625) (0.00011470335388183593, 1.564453125) (0.0001149016876220703, 1.56640625) (0.00011507577514648437, 1.568359375) (0.00011513976287841796, 1.5703125) (0.00011500877380371093, 1.572265625) (0.00011461991882324218, 1.57421875) (0.00011390115356445312, 1.576171875) (0.00011271945190429686, 1.578125) (0.00011101799774169921, 1.580078125) (0.00010882481384277343, 1.58203125) (0.00010627418518066406, 1.583984375) (0.00010370648193359374, 1.5859375) (0.00010147709655761719, 1.587890625) (9.98302993774414e-05, 1.58984375) (9.906960296630859e-05, 1.591796875) (9.955367279052734e-05, 1.59375) (0.00010131770324707031, 1.595703125) (0.00010417312622070313, 1.59765625) (0.00010761737060546874, 1.599609375) (0.00011053043365478515, 1.6015625) (0.00011195280456542969, 1.603515625) (0.0001112496109008789, 1.60546875) (0.0001075772705078125, 1.607421875) (0.00010035072326660156, 1.609375) (8.988552856445312e-05, 1.611328125) (7.703286743164063e-05, 1.61328125) (6.347762680053711e-05, 1.615234375) (5.2085746765136714e-05, 1.6171875) (4.529411697387695e-05, 1.619140625) (4.514763641357422e-05, 1.62109375) (5.443778228759766e-05, 1.623046875) (7.521796417236328e-05, 1.625) (0.00010791999816894531, 1.626953125) (0.0001523390350341797, 1.62890625) (0.00020555288696289063, 1.630859375) (0.00026309735107421875, 1.6328125) (0.00032251690673828126, 1.634765625) (0.0003798648681640625, 1.63671875) (0.0004328431091308594, 1.638671875) (0.0004797949523925781, 1.640625) (0.0005144545288085937, 1.642578125) (0.0005341591796875, 1.64453125) (0.0005336920166015625, 1.646484375) (0.0005069288940429687, 1.6484375) (0.00045726974487304687, 1.650390625) (0.0003857012939453125, 1.65234375) (0.000299815185546875, 1.654296875) (0.0002148993682861328, 1.65625) (0.00013822859191894531, 1.658203125) (7.933290100097656e-05, 1.66015625) (4.1915370941162106e-05, 1.662109375) (1.857320785522461e-05, 1.6640625) (5.235873222351074e-06, 1.666015625) (-3.647615432739258e-06, 1.66796875) (-1.109846019744873e-05, 1.669921875) (-1.3178963661193847e-05, 1.671875) (-8.476374626159668e-06, 1.673828125) (2.8151664733886716e-06, 1.67578125) (1.8637748718261717e-05, 1.677734375) (3.4017467498779295e-05, 1.6796875) (4.61306266784668e-05, 1.681640625) (5.425643539428711e-05, 1.68359375) (5.8454437255859375e-05, 1.685546875) (5.974337005615234e-05, 1.6875) (5.8782955169677735e-05, 1.689453125) (5.5954921722412106e-05, 1.69140625) (5.22761344909668e-05, 1.693359375) (4.8910717010498044e-05, 1.6953125) (4.655984497070312e-05, 1.697265625) (4.549169158935547e-05, 1.69921875) (4.5550773620605466e-05, 1.701171875) (4.636393356323242e-05, 1.703125) (4.7653354644775385e-05, 1.705078125) (4.919301986694336e-05, 1.70703125) (5.062424850463867e-05, 1.708984375) (5.1527870178222654e-05, 1.7109375) (5.167280960083008e-05, 1.712890625) (5.101902389526367e-05, 1.71484375) (4.966906356811523e-05, 1.716796875) (4.782817840576172e-05, 1.71875) (4.567836761474609e-05, 1.720703125) (4.336000823974609e-05, 1.72265625) (4.103785705566406e-05, 1.724609375) (3.889089584350586e-05, 1.7265625) (3.702953338623047e-05, 1.728515625) (3.5518943786621094e-05, 1.73046875) (3.440189361572266e-05, 1.732421875) (3.367719268798828e-05, 1.734375) (3.335339736938476e-05, 1.736328125) (3.344831848144531e-05, 1.73828125) (3.3953189849853515e-05, 1.740234375) (3.4855209350585937e-05, 1.7421875) (3.6146469116210934e-05, 1.744140625) (3.7806064605712886e-05, 1.74609375) (3.980850982666015e-05, 1.748046875) (4.2130466461181636e-05, 1.75) (4.472988891601562e-05, 1.751953125) (4.755988311767578e-05, 1.75390625) (5.057817840576172e-05, 1.755859375) (5.3735267639160156e-05, 1.7578125) (5.6995540618896484e-05, 1.759765625) (6.0337089538574216e-05, 1.76171875) (6.373856735229492e-05, 1.763671875) (6.718757629394531e-05, 1.765625) (7.067770385742188e-05, 1.767578125) (7.420301818847656e-05, 1.76953125) (7.776453399658203e-05, 1.771484375) (8.136811828613281e-05, 1.7734375) (8.501403045654296e-05, 1.775390625) (8.870191955566405e-05, 1.77734375) (9.243282318115234e-05, 1.779296875) (9.620450592041016e-05, 1.78125) (0.0001000179672241211, 1.783203125) (0.00010387602996826171, 1.78515625) (0.00010777933502197265, 1.787109375) (0.00011172958374023437, 1.7890625) (0.00011572683715820312, 1.791015625) (0.000119767333984375, 1.79296875) (0.0001238457489013672, 1.794921875) (0.00012795511627197264, 1.796875) (0.00013208586120605468, 1.798828125) (0.00013622717285156249, 1.80078125) (0.00014036651611328124, 1.802734375) (0.00014448849487304688, 1.8046875) (0.00014857833862304688, 1.806640625) (0.00015262197875976562, 1.80859375) (0.00015660510253906248, 1.810546875) (0.00016051365661621093, 1.8125) (0.0001643330535888672, 1.814453125) (0.00016804757690429688, 1.81640625) (0.00017164147949218748, 1.818359375) (0.00017509921264648436, 1.8203125) (0.00017840449523925781, 1.822265625) (0.00018154032897949217, 1.82421875) (0.00018448956298828124, 1.826171875) (0.00018723446655273437, 1.828125) (0.00018975764465332031, 1.830078125) (0.00019204229736328123, 1.83203125) (0.0001940719757080078, 1.833984375) (0.00019583096313476563, 1.8359375) (0.0001973043975830078, 1.837890625) (0.00019847836303710936, 1.83984375) (0.00019933995056152344, 1.841796875) (0.000199877685546875, 1.84375) (0.00020008139038085938, 1.845703125) (0.00019994238281249998, 1.84765625) (0.00019945347595214842, 1.849609375) (0.00019860894775390625, 1.8515625) (0.00019740457153320312, 1.853515625) (0.00019583786010742186, 1.85546875) (0.00019390826416015625, 1.857421875) (0.00019161703491210936, 1.859375) (0.00018896737670898435, 1.861328125) (0.00018596453857421875, 1.86328125) (0.0001826155090332031, 1.865234375) (0.00017892953491210938, 1.8671875) (0.0001749176788330078, 1.869140625) (0.0001705928039550781, 1.87109375) (0.00016596946716308594, 1.873046875) (0.0001610637969970703, 1.875) (0.00015589328002929686, 1.876953125) (0.00015047666931152344, 1.87890625) (0.0001448338928222656, 1.880859375) (0.00013898580932617186, 1.8828125) (0.00013295449829101561, 1.884765625) (0.000126763069152832, 1.88671875) (0.00012043534088134765, 1.888671875) (0.00011399586486816406, 1.890625) (0.00010746961975097656, 1.892578125) (0.00010088187408447265, 1.89453125) (9.425802612304687e-05, 1.896484375) (8.762329864501953e-05, 1.8984375) (8.100240325927734e-05, 1.900390625) (7.44192886352539e-05, 1.90234375) (6.789705657958984e-05, 1.904296875) (6.145774459838868e-05, 1.90625) (5.5122291564941405e-05, 1.908203125) (4.891042709350586e-05, 1.91015625) (4.284046173095703e-05, 1.912109375) (3.692926025390625e-05, 1.9140625) (3.1192209243774416e-05, 1.916015625) (2.5643066406249997e-05, 1.91796875) (2.0293922424316404e-05, 1.919921875) (1.5155089378356932e-05, 1.921875) (1.0234939575195312e-05, 1.923828125) (5.539884567260742e-06, 1.92578125) (1.0743989944458006e-06, 1.927734375) (-3.1589446067810056e-06, 1.9296875) (-7.159363746643066e-06, 1.931640625) (-1.092778205871582e-05, 1.93359375) (-1.4466764450073242e-05, 1.935546875) (-1.778036880493164e-05, 1.9375) (-2.0873992919921876e-05, 1.939453125) (-2.375423240661621e-05, 1.94140625) (-2.6428796768188477e-05, 1.943359375) (-2.890644836425781e-05, 1.9453125) (-3.119701385498047e-05, 1.947265625) (-3.331128692626953e-05, 1.94921875) (-3.526087951660156e-05, 1.951171875) (-3.705806732177734e-05, 1.953125) (-3.871566009521484e-05, 1.955078125) (-4.0246814727783204e-05, 1.95703125) (-4.166494750976562e-05, 1.958984375) (-4.2983470916748045e-05, 1.9609375) (-4.421559143066406e-05, 1.962890625) (-4.537411499023437e-05, 1.96484375) (-4.6471351623535155e-05, 1.966796875) (-4.751900482177734e-05, 1.96875) (-4.852816009521484e-05, 1.970703125) (-4.950919342041015e-05, 1.97265625) (-5.04716567993164e-05, 1.974609375) (-5.1424179077148436e-05, 1.9765625) (-5.237446212768554e-05, 1.978515625) (-5.332918548583984e-05, 1.98046875) (-5.429399871826171e-05, 1.982421875) (-5.5273429870605465e-05, 1.984375) (-5.6270820617675776e-05, 1.986328125) (-5.72883071899414e-05, 1.98828125) (-5.832687377929687e-05, 1.990234375) (-5.938648986816406e-05, 1.9921875) (-6.0466209411621094e-05, 1.994140625) (-6.156427764892578e-05, 1.99609375) (-6.267820739746094e-05, 1.998046875) (-6.380484771728515e-05, 2.0) (-6.494053649902343e-05, 2.001953125) (-6.608114624023437e-05, 2.00390625) (-6.722219085693358e-05, 2.005859375) (-6.835882568359375e-05, 2.0078125) (-6.948582458496093e-05, 2.009765625) (-7.059768676757812e-05, 2.01171875) (-7.168865966796875e-05, 2.013671875) (-7.275291442871093e-05, 2.015625) (-7.378468322753906e-05, 2.017578125) (-7.477828979492187e-05, 2.01953125) (-7.572831726074219e-05, 2.021484375) (-7.662962341308594e-05, 2.0234375) (-7.747755432128906e-05, 2.025390625) (-7.826794433593749e-05, 2.02734375) (-7.899722290039063e-05, 2.029296875) (-7.966242980957031e-05, 2.03125) (-8.026116180419921e-05, 2.033203125) (-8.079167175292968e-05, 2.03515625) (-8.125283813476562e-05, 2.037109375) (-8.164432525634766e-05, 2.0390625) (-8.196652221679687e-05, 2.041015625) (-8.222065734863281e-05, 2.04296875) (-8.240868377685546e-05, 2.044921875) (-8.253338623046874e-05, 2.046875) (-8.25982894897461e-05, 2.048828125) (-8.26076889038086e-05, 2.05078125) (-8.256651306152344e-05, 2.052734375) (-8.24802017211914e-05, 2.0546875) (-8.235454559326171e-05, 2.056640625) (-8.219562530517578e-05, 2.05859375) (-8.200966644287108e-05, 2.060546875) (-8.180303192138672e-05, 2.0625) (-8.158211517333984e-05, 2.064453125) (-8.1353271484375e-05, 2.06640625) (-8.112281799316406e-05, 2.068359375) (-8.089698791503906e-05, 2.0703125) (-8.068186950683594e-05, 2.072265625) (-8.048343658447266e-05, 2.07421875) (-8.030744171142578e-05, 2.076171875) (-8.015936279296875e-05, 2.078125) (-8.004425048828125e-05, 2.080078125) (-7.996676635742187e-05, 2.08203125) (-7.993106079101562e-05, 2.083984375) (-7.994071960449219e-05, 2.0859375) (-7.999881744384765e-05, 2.087890625) (-8.010779571533203e-05, 2.08984375) (-8.026952362060547e-05, 2.091796875) (-8.048527526855468e-05, 2.09375) (-8.075578308105468e-05, 2.095703125) (-8.108119964599608e-05, 2.09765625) (-8.14610595703125e-05, 2.099609375) (-8.189430236816406e-05, 2.1015625) (-8.237921142578125e-05, 2.103515625) (-8.291345214843749e-05, 2.10546875) (-8.349407196044922e-05, 2.107421875) (-8.411746215820313e-05, 2.109375) (-8.477942657470703e-05, 2.111328125) (-8.547526550292968e-05, 2.11328125) (-8.619989013671875e-05, 2.115234375) (-8.694790649414062e-05, 2.1171875) (-8.771368408203125e-05, 2.119140625) (-8.849149322509765e-05, 2.12109375) (-8.927554321289062e-05, 2.123046875) (-9.006017303466796e-05, 2.125) (-9.083975219726562e-05, 2.126953125) (-9.160879516601561e-05, 2.12890625) (-9.236187744140624e-05, 2.130859375) (-9.30937042236328e-05, 2.1328125) (-9.379922485351562e-05, 2.134765625) (-9.447360229492186e-05, 2.13671875) (-9.511225128173828e-05, 2.138671875) (-9.571083068847656e-05, 2.140625) (-9.626531982421875e-05, 2.142578125) (-9.677204132080077e-05, 2.14453125) (-9.722772216796875e-05, 2.146484375) (-9.762957763671874e-05, 2.1484375) (-9.797531127929688e-05, 2.150390625) (-9.826305389404296e-05, 2.15234375) (-9.849136352539062e-05, 2.154296875) (-9.865909576416016e-05, 2.15625) (-9.876544189453124e-05, 2.158203125) (-9.881005859375e-05, 2.16015625) (-9.879302978515625e-05, 2.162109375) (-9.871478271484375e-05, 2.1640625) (-9.857591247558593e-05, 2.166015625) (-9.837722778320312e-05, 2.16796875) (-9.811989593505859e-05, 2.169921875) (-9.780563354492188e-05, 2.171875) (-9.743673706054687e-05, 2.173828125) (-9.701567840576171e-05, 2.17578125) (-9.654515075683593e-05, 2.177734375) (-9.602796173095703e-05, 2.1796875) (-9.546734619140624e-05, 2.181640625) (-9.486682891845702e-05, 2.18359375) (-9.422992706298827e-05, 2.185546875) (-9.356005859375e-05, 2.1875) (-9.286049652099609e-05, 2.189453125) (-9.213446807861327e-05, 2.19140625) (-9.138534545898437e-05, 2.193359375) (-9.061669921875e-05, 2.1953125) (-8.983189392089843e-05, 2.197265625) (-8.903411865234374e-05, 2.19921875) (-8.822665405273437e-05, 2.201171875) (-8.741271209716797e-05, 2.203125) (-8.659573364257812e-05, 2.205078125) (-8.577941894531249e-05, 2.20703125) (-8.496745300292968e-05, 2.208984375) (-8.416322326660156e-05, 2.2109375) (-8.336989593505859e-05, 2.212890625) (-8.259054565429687e-05, 2.21484375) (-8.18282470703125e-05, 2.216796875) (-8.108651733398437e-05, 2.21875) (-8.036896514892577e-05, 2.220703125) (-7.967881774902344e-05, 2.22265625) (-7.901889038085937e-05, 2.224609375) (-7.839234924316406e-05, 2.2265625) (-7.780340576171874e-05, 2.228515625) (-7.725706481933593e-05, 2.23046875) (-7.675907897949218e-05, 2.232421875) (-7.631477355957031e-05, 2.234375) (-7.592877960205077e-05, 2.236328125) (-7.560623168945313e-05, 2.23828125) (-7.535290527343749e-05, 2.240234375) (-7.517396545410156e-05, 2.2421875) (-7.507322692871093e-05, 2.244140625) (-7.505294799804687e-05, 2.24609375) (-7.51135482788086e-05, 2.248046875) (-7.525572204589844e-05, 2.25) (-7.548101806640625e-05, 2.251953125) (-7.57908935546875e-05, 2.25390625) (-7.618717956542969e-05, 2.255859375) (-7.667169952392578e-05, 2.2578125) (-7.72462921142578e-05, 2.259765625) (-7.791357421875e-05, 2.26171875) (-7.867582702636719e-05, 2.263671875) (-7.95330810546875e-05, 2.265625) (-8.048419952392578e-05, 2.267578125) (-8.152490997314453e-05, 2.26953125) (-8.264723205566406e-05, 2.271484375) (-8.384625244140625e-05, 2.2734375) (-8.511751556396484e-05, 2.275390625) (-8.645787811279297e-05, 2.27734375) (-8.787081909179687e-05, 2.279296875) (-8.935835266113281e-05, 2.28125) (-9.091890716552733e-05, 2.283203125) (-9.255216217041015e-05, 2.28515625) (-9.425342559814453e-05, 2.287109375) (-9.60082550048828e-05, 2.2890625) (-9.779939270019531e-05, 2.291015625) (-9.960086059570312e-05, 2.29296875) (-0.00010137761688232421, 2.294921875) (-0.00010310218811035156, 2.296875) (-0.00010474556732177734, 2.298828125) (-0.00010628121948242187, 2.30078125) (-0.00010769231414794922, 2.302734375) (-0.00010895553588867187, 2.3046875) (-0.00011005477142333984, 2.306640625) (-0.00011097953033447265, 2.30859375) (-0.00011170438385009765, 2.310546875) (-0.00011220320892333983, 2.3125) (-0.00011245885467529297, 2.314453125) (-0.0001124529800415039, 2.31640625) (-0.0001121890869140625, 2.318359375) (-0.00011170443725585937, 2.3203125) (-0.00011102789306640625, 2.322265625) (-0.00011020571899414063, 2.32421875) (-0.0001093017120361328, 2.326171875) (-0.00010835286712646484, 2.328125) (-0.00010742378234863281, 2.330078125) (-0.00010658790588378906, 2.33203125) (-0.00010589426422119141, 2.333984375) (-0.00010541509246826172, 2.3359375) (-0.00010520068359375, 2.337890625) (-0.00010526056671142577, 2.33984375) (-0.00010566720581054687, 2.341796875) (-0.00010652194213867187, 2.34375) (-0.0001078228302001953, 2.345703125) (-0.0001095014419555664, 2.34765625) (-0.00011133534240722656, 2.349609375) (-0.00011291114807128905, 2.3515625) (-0.0001139012451171875, 2.353515625) (-0.00011402343749999999, 2.35546875) (-0.00011289586639404296, 2.357421875) (-0.00011025357055664062, 2.359375) (-0.00010604942321777344, 2.361328125) (-0.00010045755767822266, 2.36328125) (-9.415644073486328e-05, 2.365234375) (-8.814515686035156e-05, 2.3671875) (-8.326891326904297e-05, 2.369140625) (-8.035122680664062e-05, 2.37109375) (-8.011860656738281e-05, 2.373046875) (-8.272657775878906e-05, 2.375) (-8.780354309082031e-05, 2.376953125) (-9.441265106201172e-05, 2.37890625) (-0.00010061273193359375, 2.380859375) (-0.00010410430908203124, 2.3828125) (-0.00010273989868164063, 2.384765625) (-9.392161560058594e-05, 2.38671875) (-7.544073486328125e-05, 2.388671875) (-4.641678237915039e-05, 2.390625) (-6.581254959106445e-06, 2.392578125) (4.204597091674804e-05, 2.39453125) (9.578618621826171e-05, 2.396484375) (0.00015227761840820312, 2.3984375) (0.00020784948730468748, 2.400390625) (0.0002601629638671875, 2.40234375) (0.00030725927734375, 2.404296875) (0.0003420089416503906, 2.40625) (0.0003593630676269531, 2.408203125) (0.00035399072265625, 2.41015625) (0.00032152276611328124, 2.412109375) (0.0002682015686035156, 2.4140625) (0.00020058541870117186, 2.416015625) (0.000125802001953125, 2.41796875) (5.348992156982422e-05, 2.419921875) (-1.4372568130493163e-05, 2.421875) (-7.59209747314453e-05, 2.423828125) (-0.00012714691162109374, 2.42578125) (-0.00016720692443847654, 2.427734375) (-0.00019409838867187498, 2.4296875) (-0.00020658358764648435, 2.431640625) (-0.00020676947021484374, 2.43359375) (-0.00019741545104980468, 2.435546875) (-0.00018132359313964843, 2.4375) (-0.00016200619506835938, 2.439453125) (-0.00014299864196777343, 2.44140625) (-0.00012653483581542968, 2.443359375) (-0.0001139873046875, 2.4453125) (-0.00010604922485351562, 2.447265625) (-0.00010225734710693359, 2.44921875) (-0.00010167259216308594, 2.451171875) (-0.00010351678466796875, 2.453125) (-0.00010657980346679688, 2.455078125) (-0.00010930548858642578, 2.45703125) (-0.00011086822509765625, 2.458984375) (-0.00011091409301757813, 2.4609375) (-0.00010937487030029296, 2.462890625) (-0.00010671578979492187, 2.46484375) (-0.00010342112731933594, 2.466796875) (-9.980877685546875e-05, 2.46875) (-9.636378479003905e-05, 2.470703125) (-9.363921356201172e-05, 2.47265625) (-9.189453124999999e-05, 2.474609375) (-9.122384643554687e-05, 2.4765625) (-9.158578491210937e-05, 2.478515625) (-9.273406982421875e-05, 2.48046875) (-9.447729492187499e-05, 2.482421875) (-9.668354034423828e-05, 2.484375) (-9.91607666015625e-05, 2.486328125) (-0.00010173806762695312, 2.48828125) (-0.0001042812271118164, 2.490234375) (-0.00010665069580078124, 2.4921875) (-0.00010875828552246093, 2.494140625) (-0.00011057173156738281, 2.49609375) (-0.00011205025482177734, 2.498046875) (-0.00011316413116455078, 2.5) (-0.00011389990997314453, 2.501953125) (-0.00011423352813720702, 2.50390625) (-0.0001141608428955078, 2.505859375) (-0.00011370223999023437, 2.5078125) (-0.00011288082885742187, 2.509765625) (-0.00011172679138183594, 2.51171875) (-0.00011026866149902343, 2.513671875) (-0.00010852905273437499, 2.515625) (-0.00010653679656982422, 2.517578125) (-0.00010432304382324218, 2.51953125) (-0.00010192349243164062, 2.521484375) (-9.937913513183594e-05, 2.5234375) (-9.671762084960937e-05, 2.525390625) (-9.395309448242187e-05, 2.52734375) (-9.109516906738281e-05, 2.529296875) (-8.814645385742187e-05, 2.53125) (-8.510742950439453e-05, 2.533203125) (-8.198066711425781e-05, 2.53515625) (-7.876012420654297e-05, 2.537109375) (-7.543110656738281e-05, 2.5390625) (-7.198163604736328e-05, 2.541015625) (-6.84021987915039e-05, 2.54296875) (-6.468702697753906e-05, 2.544921875) (-6.08353271484375e-05, 2.546875) (-5.6844215393066406e-05, 2.548828125) (-5.270849227905273e-05, 2.55078125) (-4.842393493652344e-05, 2.552734375) (-4.398825073242187e-05, 2.5546875) (-3.940403747558594e-05, 2.556640625) (-3.467805480957031e-05, 2.55859375) (-2.9818321228027344e-05, 2.560546875) (-2.4834253311157226e-05, 2.5625) (-1.9737642288208006e-05, 2.564453125) (-1.4542607307434082e-05, 2.56640625) (-9.267004013061523e-06, 2.568359375) (-3.931285619735718e-06, 2.5703125) (1.4455175399780272e-06, 2.572265625) (6.844948291778564e-06, 2.57421875) (1.2247920989990233e-05, 2.576171875) (1.7634721755981445e-05, 2.578125) (2.298375701904297e-05, 2.580078125) (2.8272354125976562e-05, 2.58203125) (3.34783821105957e-05, 2.583984375) (3.8579879760742186e-05, 2.5859375) (4.355390548706054e-05, 2.587890625) (4.83766860961914e-05, 2.58984375) (5.302400970458984e-05, 2.591796875) (5.747206115722656e-05, 2.59375) (6.169844818115234e-05, 2.595703125) (6.56817626953125e-05, 2.59765625) (6.940103912353515e-05, 2.599609375) (7.283547973632813e-05, 2.6015625) (7.596461486816405e-05, 2.603515625) (7.8769287109375e-05, 2.60546875) (8.123204803466797e-05, 2.607421875) (8.333684539794921e-05, 2.609375) (8.506871032714844e-05, 2.611328125) (8.64140625e-05, 2.61328125) (8.736099243164061e-05, 2.615234375) (8.790013122558593e-05, 2.6171875) (8.802525329589843e-05, 2.619140625) (8.773252868652344e-05, 2.62109375) (8.701969909667968e-05, 2.623046875) (8.588656616210937e-05, 2.625) (8.433528900146483e-05, 2.626953125) (8.236997985839844e-05, 2.62890625) (7.999710083007812e-05, 2.630859375) (7.722457885742187e-05, 2.6328125) (7.406047821044922e-05, 2.634765625) (7.051492309570312e-05, 2.63671875) (6.660075378417968e-05, 2.638671875) (6.23332176208496e-05, 2.640625) (5.773031616210937e-05, 2.642578125) (5.2812095642089844e-05, 2.64453125) (4.759966278076171e-05, 2.646484375) (4.2117095947265625e-05, 2.6484375) (3.6392154693603515e-05, 2.650390625) (3.0453495025634763e-05, 2.65234375) (2.4330421447753905e-05, 2.654296875) (1.8050493240356444e-05, 2.65625) (1.1638177871704102e-05, 2.658203125) (5.119324684143066e-06, 2.66015625) (-1.478147268295288e-06, 2.662109375) (-8.126234054565429e-06, 2.6640625) (-1.4795860290527343e-05, 2.666015625) (-2.1458698272705076e-05, 2.66796875) (-2.808840751647949e-05, 2.669921875) (-3.465347671508789e-05, 2.671875) (-4.1117782592773435e-05, 2.673828125) (-4.744905471801758e-05, 2.67578125) (-5.361855316162109e-05, 2.677734375) (-5.960765838623046e-05, 2.6796875) (-6.541064453125e-05, 2.681640625) (-7.101818084716796e-05, 2.68359375) (-7.641571044921875e-05, 2.685546875) (-8.158895874023437e-05, 2.6875) (-8.651908111572265e-05, 2.689453125) (-9.118833923339843e-05, 2.69140625) (-9.558177185058593e-05, 2.693359375) (-9.966912841796875e-05, 2.6953125) (-0.00010340770721435546, 2.697265625) (-0.00010675801086425781, 2.69921875) (-0.0001096860122680664, 2.701171875) (-0.00011218163299560546, 2.703125) (-0.00011425719451904296, 2.705078125) (-0.00011591981506347656, 2.70703125) (-0.00011717049407958984, 2.708984375) (-0.00011800062561035156, 2.7109375) (-0.00011839080810546874, 2.712890625) (-0.00011834289550781249, 2.71484375) (-0.00011787709045410156, 2.716796875) (-0.00011700862121582031, 2.71875) (-0.00011576253509521484, 2.720703125) (-0.00011416772460937499, 2.72265625) (-0.00011226376342773437, 2.724609375) (-0.00011013831329345702, 2.7265625) (-0.00010790109252929687, 2.728515625) (-0.00010566749572753906, 2.73046875) (-0.00010354808807373047, 2.732421875) (-0.00010159780883789062, 2.734375) (-9.98546142578125e-05, 2.736328125) (-9.836795806884765e-05, 2.73828125) (-9.717144012451171e-05, 2.740234375) (-9.634313201904296e-05, 2.7421875) (-9.59915542602539e-05, 2.744140625) (-9.608673858642577e-05, 2.74609375) (-9.651806640624999e-05, 2.748046875) (-9.717015075683594e-05, 2.75) (-9.777000427246093e-05, 2.751953125) (-9.804403686523437e-05, 2.75390625) (-9.776759338378906e-05, 2.755859375) (-9.653288269042968e-05, 2.7578125) (-9.395809936523437e-05, 2.759765625) (-8.998326873779296e-05, 2.76171875) (-8.479632568359375e-05, 2.763671875) (-7.880868530273437e-05, 2.765625) (-7.27950439453125e-05, 2.767578125) (-6.777870178222656e-05, 2.76953125) (-6.458969116210937e-05, 2.771484375) (-6.385930252075195e-05, 2.7734375) (-6.609191131591797e-05, 2.775390625) (-7.00103759765625e-05, 2.77734375) (-7.392190551757812e-05, 2.779296875) (-7.746632385253906e-05, 2.78125) (-7.864098358154296e-05, 2.783203125) (-7.750092315673828e-05, 2.78515625) (-7.422953796386719e-05, 2.787109375) (-6.431426239013671e-05, 2.7890625) (-4.6862415313720703e-05, 2.791015625) (-1.927632904052734e-05, 2.79296875) (2.1773296356201172e-05, 2.794921875) (7.311017608642578e-05, 2.796875) (0.0001355729064941406, 2.798828125) (0.0002053815002441406, 2.80078125) (0.00027272903442382814, 2.802734375) (0.00032821710205078124, 2.8046875) (0.00035652880859375, 2.806640625) (0.00034996701049804684, 2.80859375) (0.00030905029296875, 2.810546875) (0.00024001416015624998, 2.8125) (0.00015752189636230468, 2.814453125) (6.89828872680664e-05, 2.81640625) (-1.8946060180664063e-05, 2.818359375) (-9.924235534667969e-05, 2.8203125) (-0.00017045005798339843, 2.822265625) (-0.00022425614929199217, 2.82421875) (-0.00025730819702148434, 2.826171875) (-0.00027518914794921875, 2.828125) (-0.00028132687377929684, 2.830078125) (-0.0002828844299316406, 2.83203125) (-0.000283240478515625, 2.833984375) (-0.0002774959716796875, 2.8359375) (-0.0002633796081542969, 2.837890625) (-0.0002405304260253906, 2.83984375) (-0.00021050807189941406, 2.841796875) (-0.00017819781494140624, 2.84375) (-0.00014654518127441406, 2.845703125) (-0.0001163834228515625, 2.84765625) (-8.856382751464844e-05, 2.849609375) (-6.419281005859374e-05, 2.8515625) (-4.465823364257812e-05, 2.853515625) (-3.080915451049805e-05, 2.85546875) (-2.2565380096435546e-05, 2.857421875) (-1.9068126678466796e-05, 2.859375) (-1.935616683959961e-05, 2.861328125) (-2.2729110717773436e-05, 2.86328125) (-2.819605255126953e-05, 2.865234375) (-3.418061447143555e-05, 2.8671875) (-3.9118923187255856e-05, 2.869140625) (-4.200884246826172e-05, 2.87109375) (-4.24306526184082e-05, 2.873046875) (-4.058293533325195e-05, 2.875) (-3.692710494995117e-05, 2.876953125) (-3.184523391723633e-05, 2.87890625) (-2.5934043884277342e-05, 2.880859375) (-2.0044208526611326e-05, 2.8828125) (-1.4866880416870116e-05, 2.884765625) (-1.0807256698608398e-05, 2.88671875) (-7.999281883239746e-06, 2.888671875) (-6.308221817016602e-06, 2.890625) (-5.517559051513671e-06, 2.892578125) (-5.4457840919494625e-06, 2.89453125) (-5.818178176879883e-06, 2.896484375) (-6.277397155761718e-06, 2.8984375) (-6.585476398468017e-06, 2.900390625) (-6.616080284118652e-06, 2.90234375) (-6.334208488464355e-06, 2.904296875) (-5.774143218994141e-06, 2.90625) (-4.933356761932373e-06, 2.908203125) (-3.8044137954711914e-06, 2.91015625) (-2.4258356094360352e-06, 2.912109375) (-8.869835138320923e-07, 2.9140625) (7.113502025604248e-07, 2.916015625) (2.301335334777832e-06, 2.91796875) (3.84898042678833e-06, 2.919921875) (5.350321769714355e-06, 2.921875) (6.797653198242187e-06, 2.923828125) (8.175090789794921e-06, 2.92578125) (9.472442626953124e-06, 2.927734375) (1.0698744773864746e-05, 2.9296875) (1.1888103485107421e-05, 2.931640625) (1.3071416854858397e-05, 2.93359375) (1.4273115158081054e-05, 2.935546875) (1.5494808197021484e-05, 2.9375) (1.6715192794799804e-05, 2.939453125) (1.7930831909179686e-05, 2.94140625) (1.915240478515625e-05, 2.943359375) (2.0402709960937498e-05, 2.9453125) (2.1720230102539062e-05, 2.947265625) (2.3135040283203125e-05, 2.94921875) (2.4667423248291015e-05, 2.951171875) (2.6342220306396484e-05, 2.953125) (2.8186614990234374e-05, 2.955078125) (3.022047805786133e-05, 2.95703125) (3.245872116088867e-05, 2.958984375) (3.490285873413086e-05, 2.9609375) (3.753742980957031e-05, 2.962890625) (4.0349807739257814e-05, 2.96484375) (4.333035659790039e-05, 2.966796875) (4.647168731689453e-05, 2.96875) (4.977190017700195e-05, 2.970703125) (5.322356414794922e-05, 2.97265625) (5.6813217163085935e-05, 2.974609375) (6.052626037597656e-05, 2.9765625) (6.43455810546875e-05, 2.978515625) (6.825283813476562e-05, 2.98046875) (7.222923278808593e-05, 2.982421875) (7.625055694580078e-05, 2.984375) (8.028727722167968e-05, 2.986328125) (8.431061553955078e-05, 2.98828125) (8.829164886474608e-05, 2.990234375) (9.220216369628906e-05, 2.9921875) (9.601700592041016e-05, 2.994140625) (9.970941162109374e-05, 2.99609375) (0.00010325131225585937, 2.998046875) (0.00010661650085449218, 3.0) (0.00010977949523925781, 3.001953125) (0.00011271533203125, 3.00390625) (0.00011540179443359374, 3.005859375) (0.00011781739807128905, 3.0078125) (0.00011993995666503906, 3.009765625) (0.00012174877166748046, 3.01171875) (0.00012322289276123045, 3.013671875) (0.00012434091186523438, 3.015625) (0.00012508506774902345, 3.017578125) (0.00012544129943847654, 3.01953125) (0.0001253980712890625, 3.021484375) (0.00012494828033447265, 3.0234375) (0.0001240871124267578, 3.025390625) (0.00012280987548828125, 3.02734375) (0.0001211186294555664, 3.029296875) (0.00011902212524414062, 3.03125) (0.00011652897644042968, 3.033203125) (0.00011364695739746093, 3.03515625) (0.00011037702941894531, 3.037109375) (0.0001067123565673828, 3.0390625) (0.0001026536865234375, 3.041015625) (9.82144317626953e-05, 3.04296875) (9.34151153564453e-05, 3.044921875) (8.828304290771484e-05, 3.046875) (8.284737396240235e-05, 3.048828125) (7.713473510742187e-05, 3.05078125) (7.118743896484374e-05, 3.052734375) (6.506401824951171e-05, 3.0546875) (5.8823345184326166e-05, 3.056640625) (5.2527805328369136e-05, 3.05859375) (4.6221649169921876e-05, 3.060546875) (3.992298126220703e-05, 3.0625) (3.365756607055664e-05, 3.064453125) (2.7464469909667967e-05, 3.06640625) (2.1395126342773436e-05, 3.068359375) (1.5520051956176758e-05, 3.0703125) (9.890549659729004e-06, 3.072265625) (4.515039920806884e-06, 3.07421875) (-5.991073846817017e-07, 3.076171875) (-5.434658050537109e-06, 3.078125) (-9.982600212097167e-06, 3.080078125) (-1.4219683647155761e-05, 3.08203125) (-1.815678787231445e-05, 3.083984375) (-2.1874244689941405e-05, 3.0859375) (-2.5455684661865233e-05, 3.087890625) (-2.8988273620605466e-05, 3.08984375) (-3.254436492919922e-05, 3.091796875) (-3.6142532348632814e-05, 3.09375) (-3.9787036895751954e-05, 3.095703125) (-4.352833557128906e-05, 3.09765625) (-4.7450099945068356e-05, 3.099609375) (-5.157752227783203e-05, 3.1015625) (-5.583861923217773e-05, 3.103515625) (-5.9986656188964844e-05, 3.10546875) (-6.365805435180664e-05, 3.107421875) (-6.654244232177734e-05, 3.109375) (-6.842561340332031e-05, 3.111328125) (-6.918844604492187e-05, 3.11328125) (-6.870839691162109e-05, 3.115234375) (-6.700592041015625e-05, 3.1171875) (-6.430918884277343e-05, 3.119140625) (-6.11146240234375e-05, 3.12109375) (-5.830738830566406e-05, 3.123046875) (-5.683403778076172e-05, 3.125) (-5.742409515380859e-05, 3.126953125) (-6.036091232299804e-05, 3.12890625) (-6.545164489746093e-05, 3.130859375) (-7.19143295288086e-05, 3.1328125) (-7.860676574707031e-05, 3.134765625) (-8.412388610839843e-05, 3.13671875) (-8.641859436035156e-05, 3.138671875) (-8.32218246459961e-05, 3.140625) (-7.238762664794921e-05, 3.142578125) (-5.241702270507812e-05, 3.14453125) (-2.303753662109375e-05, 3.146484375) (1.4855642318725585e-05, 3.1484375) (5.972805786132812e-05, 3.150390625) (0.00010942829895019531, 3.15234375) (0.0001607865295410156, 3.154296875) (0.00021003865051269532, 3.15625) (0.0002529133148193359, 3.158203125) (0.000285309814453125, 3.16015625) (0.000304501953125, 3.162109375) (0.00030883508300781246, 3.1640625) (0.0002972867431640625, 3.166015625) (0.0002700851745605469, 3.16796875) (0.00022891700744628906, 3.169921875) (0.00017653483581542967, 3.171875) (0.00011701361083984374, 3.173828125) (5.5109840393066406e-05, 3.17578125) (-5.1428718566894525e-06, 3.177734375) (-5.992123413085937e-05, 3.1796875) (-0.00010544900512695312, 3.181640625) (-0.0001393880615234375, 3.18359375) (-0.00016084686279296874, 3.185546875) (-0.00016999984741210937, 3.1875) (-0.0001685034942626953, 3.189453125) (-0.0001589254150390625, 3.19140625) (-0.0001436570129394531, 3.193359375) (-0.00012550428771972657, 3.1953125) (-0.0001077095947265625, 3.197265625) (-9.241929626464843e-05, 3.19921875) (-8.079964447021483e-05, 3.201171875) (-7.339185333251953e-05, 3.203125) (-6.97613296508789e-05, 3.205078125) (-6.903941345214844e-05, 3.20703125) (-7.049064636230469e-05, 3.208984375) (-7.301504516601563e-05, 3.2109375) (-7.517622375488281e-05, 3.212890625) (-7.617955780029297e-05, 3.21484375) (-7.572325134277344e-05, 3.216796875) (-7.377330017089843e-05, 3.21875) (-7.075068664550781e-05, 3.220703125) (-6.709387207031249e-05, 3.22265625) (-6.308214569091797e-05, 3.224609375) (-5.91378059387207e-05, 3.2265625) (-5.5754928588867185e-05, 3.228515625) (-5.317304992675781e-05, 3.23046875) (-5.147874069213867e-05, 3.232421875) (-5.0637802124023435e-05, 3.234375) (-5.043598175048828e-05, 3.236328125) (-5.071139526367187e-05, 3.23828125) (-5.1364410400390624e-05, 3.240234375) (-5.224612045288086e-05, 3.2421875) (-5.322480773925781e-05, 3.244140625) (-5.419316101074218e-05, 3.24609375) (-5.502997589111328e-05, 3.248046875) (-5.566005706787109e-05, 3.25) (-5.6059989929199214e-05, 3.251953125) (-5.619929122924804e-05, 3.25390625) (-5.605765533447265e-05, 3.255859375) (-5.562691879272461e-05, 3.2578125) (-5.488718795776367e-05, 3.259765625) (-5.383742523193359e-05, 3.26171875) (-5.250090789794922e-05, 3.263671875) (-5.090221405029297e-05, 3.265625) (-4.9070400238037106e-05, 3.267578125) (-4.703116989135742e-05, 3.26953125) (-4.4802055358886714e-05, 3.271484375) (-4.240653610229492e-05, 3.2734375) (-3.987212371826172e-05, 3.275390625) (-3.723247528076172e-05, 3.27734375) (-3.452807235717773e-05, 3.279296875) (-3.1787784576416014e-05, 3.28125) (-2.90281925201416e-05, 3.283203125) (-2.6262023925781248e-05, 3.28515625) (-2.3495941162109375e-05, 3.287109375) (-2.0734848022460937e-05, 3.2890625) (-1.7985073089599607e-05, 3.291015625) (-1.5244016647338866e-05, 3.29296875) (-1.2500106811523436e-05, 3.294921875) (-9.743991851806641e-06, 3.296875) (-6.9686899185180665e-06, 3.298828125) (-4.170789718627929e-06, 3.30078125) (-1.351609468460083e-06, 3.302734375) (1.4899532794952392e-06, 3.3046875) (4.3577589988708495e-06, 3.306640625) (7.25549840927124e-06, 3.30859375) (1.0185939788818358e-05, 3.310546875) (1.3148075103759764e-05, 3.3125) (1.613761901855469e-05, 3.314453125) (1.9149629592895507e-05, 3.31640625) (2.2178577423095703e-05, 3.318359375) (2.5217395782470703e-05, 3.3203125) (2.8257061004638672e-05, 3.322265625) (3.128508567810058e-05, 3.32421875) (3.428615951538086e-05, 3.326171875) (3.7245693206787104e-05, 3.328125) (4.014980316162109e-05, 3.330078125) (4.298462677001953e-05, 3.33203125) (4.573618698120117e-05, 3.333984375) (4.838905715942383e-05, 3.3359375) (5.092697143554687e-05, 3.337890625) (5.33342170715332e-05, 3.33984375) (5.5595977783203124e-05, 3.341796875) (5.769763565063476e-05, 3.34375) (5.962443542480468e-05, 3.345703125) (6.136121749877929e-05, 3.34765625) (6.289243316650391e-05, 3.349609375) (6.420340728759766e-05, 3.3515625) (6.528022003173828e-05, 3.353515625) (6.610951232910156e-05, 3.35546875) (6.667788696289062e-05, 3.357421875) (6.697148895263671e-05, 3.359375) (6.697725677490235e-05, 3.361328125) (6.668392944335937e-05, 3.36328125) (6.608267974853515e-05, 3.365234375) (6.516667175292968e-05, 3.3671875) (6.393106842041015e-05, 3.369140625) (6.237295913696289e-05, 3.37109375) (6.0492012023925776e-05, 3.373046875) (5.8291427612304684e-05, 3.375) (5.5776123046875e-05, 3.376953125) (5.295176696777343e-05, 3.37890625) (4.982437133789062e-05, 3.380859375) (4.640059661865234e-05, 3.3828125) (4.268973541259765e-05, 3.384765625) (3.8704673767089844e-05, 3.38671875) (3.446137237548828e-05, 3.388671875) (2.9977672576904294e-05, 3.390625) (2.5273345947265623e-05, 3.392578125) (2.036966323852539e-05, 3.39453125) (1.5292037963867186e-05, 3.396484375) (1.007101535797119e-05, 3.3984375) (4.7343668937683106e-06, 3.400390625) (-6.946580410003662e-07, 3.40234375) (-6.199042320251464e-06, 3.404296875) (-1.1768618583679198e-05, 3.40625) (-1.7387355804443357e-05, 3.408203125) (-2.3030092239379883e-05, 3.41015625) (-2.8670486450195312e-05, 3.412109375) (-3.428243255615234e-05, 3.4140625) (-3.9838783264160156e-05, 3.416015625) (-4.531123352050781e-05, 3.41796875) (-5.0658470153808594e-05, 3.419921875) (-5.5824317932128906e-05, 3.421875) (-6.075542449951172e-05, 3.423828125) (-6.540544128417969e-05, 3.42578125) (-6.974515533447265e-05, 3.427734375) (-7.376188659667969e-05, 3.4296875) (-7.743130493164062e-05, 3.431640625) (-8.071561431884765e-05, 3.43359375) (-8.35701904296875e-05, 3.435546875) (-8.594600677490234e-05, 3.4375) (-8.782403564453125e-05, 3.439453125) (-8.921440124511719e-05, 3.44140625) (-9.011167907714843e-05, 3.443359375) (-9.05034942626953e-05, 3.4453125) (-9.037974548339844e-05, 3.447265625) (-8.973275756835938e-05, 3.44921875) (-8.862029266357422e-05, 3.451171875) (-8.715892028808594e-05, 3.453125) (-8.54507598876953e-05, 3.455078125) (-8.359082031249999e-05, 3.45703125) (-8.16493911743164e-05, 3.458984375) (-7.96438751220703e-05, 3.4609375) (-7.766574096679687e-05, 3.462890625) (-7.588837432861327e-05, 3.46484375) (-7.437664794921874e-05, 3.466796875) (-7.309844970703124e-05, 3.46875) (-7.188412475585938e-05, 3.470703125) (-7.037460327148438e-05, 3.47265625) (-6.830661010742187e-05, 3.474609375) (-6.558876037597656e-05, 3.4765625) (-6.201043701171875e-05, 3.478515625) (-5.727387237548828e-05, 3.48046875) (-5.133827590942382e-05, 3.482421875) (-4.4347145080566404e-05, 3.484375) (-3.685396575927734e-05, 3.486328125) (-2.998242950439453e-05, 3.48828125) (-2.46842041015625e-05, 3.490234375) (-2.159309959411621e-05, 3.4921875) (-2.1393589019775388e-05, 3.494140625) (-2.45191593170166e-05, 3.49609375) (-3.0676620483398435e-05, 3.498046875) (-3.909812545776367e-05, 3.5) (-4.825674057006836e-05, 3.501953125) (-5.5639560699462886e-05, 3.50390625) (-5.866203308105468e-05, 3.505859375) (-5.482125854492187e-05, 3.5078125) (-4.173758316040039e-05, 3.509765625) (-1.7645801544189452e-05, 3.51171875) (1.7018321990966796e-05, 3.513671875) (5.978335571289062e-05, 3.515625) (0.00010906786346435547, 3.517578125) (0.00016282305908203124, 3.51953125) (0.00021996874999999998, 3.521484375) (0.00028161737060546874, 3.5234375) (0.000341879150390625, 3.525390625) (0.00039027536010742184, 3.52734375) (0.0004183725891113281, 3.529296875) (0.0004170201416015625, 3.53125) (0.00038636300659179685, 3.533203125) (0.0003366827392578125, 3.53515625) (0.00027309872436523435, 3.537109375) (0.00019810156249999998, 3.5390625) (0.00011403680419921875, 3.541015625) (1.9948461532592773e-05, 3.54296875) (-7.458765411376953e-05, 3.544921875) (-0.0001501467590332031, 3.546875) (-0.00019486509704589843, 3.548828125) (-0.000204224365234375, 3.55078125) (-0.00018522251892089844, 3.552734375) (-0.00015692710876464842, 3.5546875) (-0.00013229618835449217, 3.556640625) (-0.00011596612548828125, 3.55859375) (-0.00010723202514648437, 3.560546875) (-9.990906524658203e-05, 3.5625) (-9.108366394042969e-05, 3.564453125) (-8.183110046386719e-05, 3.56640625) (-7.393153381347656e-05, 3.568359375) (-6.967091369628905e-05, 3.5703125) (-6.920273590087891e-05, 3.572265625) (-7.122340393066406e-05, 3.57421875) (-7.431389617919921e-05, 3.576171875) (-7.67108917236328e-05, 3.578125) (-7.759062957763672e-05, 3.580078125) (-7.684566497802734e-05, 3.58203125) (-7.446607971191406e-05, 3.583984375) (-7.089187622070313e-05, 3.5859375) (-6.664083099365235e-05, 3.587890625) (-6.205467987060546e-05, 3.58984375) (-5.7606815338134766e-05, 3.591796875) (-5.3809329986572267e-05, 3.59375) (-5.0880424499511715e-05, 3.595703125) (-4.889616012573242e-05, 3.59765625) (-4.782793426513672e-05, 3.599609375) (-4.746099090576172e-05, 3.6015625) (-4.762239074707031e-05, 3.603515625) (-4.818688583374023e-05, 3.60546875) (-4.8970405578613277e-05, 3.607421875) (-4.981185913085937e-05, 3.609375) (-5.058550262451172e-05, 3.611328125) (-5.115854263305664e-05, 3.61328125) (-5.144820785522461e-05, 3.615234375) (-5.1425769805908203e-05, 3.6171875) (-5.105495071411133e-05, 3.619140625) (-5.031148147583008e-05, 3.62109375) (-4.918598175048828e-05, 3.623046875) (-4.7657897949218746e-05, 3.625) (-4.572778701782226e-05, 3.626953125) (-4.342094039916992e-05, 3.62890625) (-4.0763412475585936e-05, 3.630859375) (-3.778719329833984e-05, 3.6328125) (-3.452117919921875e-05, 3.634765625) (-3.098801231384277e-05, 3.63671875) (-2.7219432830810545e-05, 3.638671875) (-2.32515811920166e-05, 3.640625) (-1.912752532958984e-05, 3.642578125) (-1.4897986412048339e-05, 3.64453125) (-1.0599864959716796e-05, 3.646484375) (-6.25626277923584e-06, 3.6484375) (-1.886346936225891e-06, 3.650390625) (2.498203992843628e-06, 3.65234375) (6.888148307800293e-06, 3.654296875) (1.1272357940673828e-05, 3.65625) (1.5650113105773924e-05, 3.658203125) (2.0030433654785156e-05, 3.66015625) (2.441896057128906e-05, 3.662109375) (2.881865310668945e-05, 3.6640625) (3.322840118408203e-05, 3.666015625) (3.764180755615234e-05, 3.66796875) (4.205561828613281e-05, 3.669921875) (4.6469886779785154e-05, 3.671875) (5.0884521484375e-05, 3.673828125) (5.5298858642578125e-05, 3.67578125) (5.970822143554687e-05, 3.677734375) (6.410447692871093e-05, 3.6796875) (6.847931671142578e-05, 3.681640625) (7.282369232177734e-05, 3.68359375) (7.712687683105468e-05, 3.685546875) (8.137642669677735e-05, 3.6875) (8.555615997314453e-05, 3.689453125) (8.964729309082031e-05, 3.69140625) (9.363296508789063e-05, 3.693359375) (9.749758148193359e-05, 3.6953125) (0.00010122597503662108, 3.697265625) (0.00010480396270751953, 3.69921875) (0.00010821661376953125, 3.701171875) (0.00011144904327392578, 3.703125) (0.00011448826599121093, 3.705078125) (0.0001173223419189453, 3.70703125) (0.00011993931579589843, 3.708984375) (0.0001223278121948242, 3.7109375) (0.00012447637939453125, 3.712890625) (0.0001263734130859375, 3.71484375) (0.00012800834655761717, 3.716796875) (0.00012937094116210936, 3.71875) (0.00013045098876953123, 3.720703125) (0.00013123988342285156, 3.72265625) (0.0001317298889160156, 3.724609375) (0.00013191439819335937, 3.7265625) (0.00013178897094726563, 3.728515625) (0.0001313511962890625, 3.73046875) (0.00013060086059570313, 3.732421875) (0.00012954092407226563, 3.734375) (0.00012817631530761717, 3.736328125) (0.00012651263427734374, 3.73828125) (0.00012455683898925782, 3.740234375) (0.00012231654357910157, 3.7421875) (0.00011980045318603515, 3.744140625) (0.00011701931762695313, 3.74609375) (0.00011398470306396483, 3.748046875) (0.00011070944213867187, 3.75) (0.000107208740234375, 3.751953125) (0.00010350014495849609, 3.75390625) (9.960194396972656e-05, 3.755859375) (9.553477478027344e-05, 3.7578125) (9.132101440429688e-05, 3.759765625) (8.698109436035156e-05, 3.76171875) (8.253495025634766e-05, 3.763671875) (7.799745178222656e-05, 3.765625) (7.337689208984375e-05, 3.767578125) (6.868318939208984e-05, 3.76953125) (6.393150329589843e-05, 3.771484375) (5.9141105651855464e-05, 3.7734375) (5.433332824707031e-05, 3.775390625) (4.953385925292969e-05, 3.77734375) (4.476992797851562e-05, 3.779296875) (4.007608413696289e-05, 3.78125) (3.549895477294922e-05, 3.783203125) (3.108319854736328e-05, 3.78515625) (2.6873897552490232e-05, 3.787109375) (2.2913766860961914e-05, 3.7890625) (1.9236225128173828e-05, 3.791015625) (1.58735876083374e-05, 3.79296875) (1.285602569580078e-05, 3.794921875) (1.0214542388916015e-05, 3.796875) (7.985907554626464e-06, 3.798828125) (6.204770565032959e-06, 3.80078125) (4.877305030822753e-06, 3.802734375) (3.985122203826904e-06, 3.8046875) (3.508256435394287e-06, 3.806640625) (3.40677547454834e-06, 3.80859375) (3.6429429054260254e-06, 3.810546875) (4.1760454177856445e-06, 3.8125) (4.9050703048706056e-06, 3.814453125) (5.705335617065429e-06, 3.81640625) (6.455884933471679e-06, 3.818359375) (7.02012300491333e-06, 3.8203125) (7.27967357635498e-06, 3.822265625) (7.159173011779785e-06, 3.82421875) (6.55008602142334e-06, 3.826171875) (5.32191801071167e-06, 3.828125) (3.450356006622314e-06, 3.830078125) (9.671332836151123e-07, 3.83203125) (-1.979677557945251e-06, 3.833984375) (-5.066737651824951e-06, 3.8359375) (-8.050792694091796e-06, 3.837890625) (-1.0769556045532226e-05, 3.83984375) (-1.2965505599975585e-05, 3.841796875) (-1.4413749694824218e-05, 3.84375) (-1.5066713333129882e-05, 3.845703125) (-1.4963380813598632e-05, 3.84765625) (-1.4406499862670897e-05, 3.849609375) (-1.3986500740051269e-05, 3.8515625) (-1.4057479858398437e-05, 3.853515625) (-1.4802356719970702e-05, 3.85546875) (-1.6512218475341795e-05, 3.857421875) (-1.9242673873901365e-05, 3.859375) (-2.263681411743164e-05, 3.861328125) (-2.6039615631103515e-05, 3.86328125) (-2.8358007431030274e-05, 3.865234375) (-2.8146678924560544e-05, 3.8671875) (-2.408123779296875e-05, 3.869140625) (-1.5067582130432129e-05, 3.87109375) (-2.5603294372558593e-08, 3.873046875) (2.2150531768798828e-05, 3.875) (5.203657150268554e-05, 3.876953125) (8.921598815917968e-05, 3.87890625) (0.00013285687255859375, 3.880859375) (0.00018034591674804686, 3.8828125) (0.0002270446014404297, 3.884765625) (0.0002705497436523437, 3.88671875) (0.00030927975463867184, 3.888671875) (0.000342623779296875, 3.890625) (0.00037346386718749996, 3.892578125) (0.00039941317749023436, 3.89453125) (0.0004135745849609375, 3.896484375) (0.00040898614501953123, 3.8984375) (0.000376681640625, 3.900390625) (0.00031434478759765624, 3.90234375) (0.0002269345245361328, 3.904296875) (0.00012326819610595702, 3.90625) (1.6739887237548828e-05, 3.908203125) (-7.936619567871093e-05, 3.91015625) (-0.00015319973754882813, 3.912109375) (-0.0001972693176269531, 3.9140625) (-0.00021061981201171874, 3.916015625) (-0.00019805578613281248, 3.91796875) (-0.0001684709777832031, 3.919921875) (-0.00013234375, 3.921875) (-9.95530776977539e-05, 3.923828125) (-7.576840972900391e-05, 3.92578125) (-6.477341461181641e-05, 3.927734375) (-6.543525695800781e-05, 3.9296875) (-7.069491577148437e-05, 3.931640625) (-7.581338500976562e-05, 3.93359375) (-7.631047821044922e-05, 3.935546875) (-7.086032104492187e-05, 3.9375) (-6.422347259521485e-05, 3.939453125) (-5.8881141662597655e-05, 3.94140625) (-5.561710739135742e-05, 3.943359375) (-5.453076171875e-05, 3.9453125) (-5.311989593505859e-05, 3.947265625) (-5.01799087524414e-05, 3.94921875) (-4.619815826416015e-05, 3.951171875) (-4.156927490234375e-05, 3.953125) (-3.6997020721435545e-05, 3.955078125) (-3.3078002929687496e-05, 3.95703125) (-2.9992671966552734e-05, 3.958984375) (-2.7828147888183594e-05, 3.9609375) (-2.6684385299682615e-05, 3.962890625) (-2.649079895019531e-05, 3.96484375) (-2.6995512008666992e-05, 3.966796875) (-2.8027400970458982e-05, 3.96875) (-2.9442905426025388e-05, 3.970703125) (-3.104995346069336e-05, 3.97265625) (-3.2703773498535156e-05, 3.974609375) (-3.425345230102539e-05, 3.9765625) (-3.554340362548828e-05, 3.978515625) (-3.6507495880126953e-05, 3.98046875) (-3.713374328613281e-05, 3.982421875) (-3.739998245239258e-05, 3.984375) (-3.729066467285156e-05, 3.986328125) (-3.679578399658203e-05, 3.98828125) (-3.590464782714844e-05, 3.990234375) (-3.4640811920166015e-05, 3.9921875) (-3.304229354858398e-05, 3.994140625) (-3.114026832580566e-05, 3.99609375) (-2.896777534484863e-05, 3.998046875) (-2.655203628540039e-05, 4.0) (-2.3930240631103513e-05, 4.001953125) (-2.1149887084960935e-05, 4.00390625) (-1.825924491882324e-05, 4.005859375) (-1.5310922622680665e-05, 4.0078125) (-1.2342814445495604e-05, 4.009765625) (-9.37614631652832e-06, 4.01171875) (-6.426753997802734e-06, 4.013671875) (-3.504392623901367e-06, 4.015625) (-6.134268045425415e-07, 4.017578125) (2.2429566383361814e-06, 4.01953125) (5.067050457000732e-06, 4.021484375) (7.871466636657715e-06, 4.0234375) (1.0666013717651366e-05, 4.025390625) (1.3456363677978514e-05, 4.02734375) (1.6247188568115233e-05, 4.029296875) (1.9038551330566405e-05, 4.03125) (2.1833135604858396e-05, 4.033203125) (2.4636871337890623e-05, 4.03515625) (2.7455348968505857e-05, 4.037109375) (3.029370880126953e-05, 4.0390625) (3.3153472900390626e-05, 4.041015625) (3.603270721435547e-05, 4.04296875) (3.892840194702148e-05, 4.044921875) (4.183652114868164e-05, 4.046875) (4.4750919342041016e-05, 4.048828125) (4.766403961181641e-05, 4.05078125) (5.056570434570312e-05, 4.052734375) (5.344302368164062e-05, 4.0546875) (5.6284652709960935e-05, 4.056640625) (5.908046722412109e-05, 4.05859375) (6.182030487060546e-05, 4.060546875) (6.449459838867187e-05, 4.0625) (6.709285736083984e-05, 4.064453125) (6.960336303710937e-05, 4.06640625) (7.20147933959961e-05, 4.068359375) (7.431608581542968e-05, 4.0703125) (7.649514770507813e-05, 4.072265625) (7.853937530517577e-05, 4.07421875) (8.043569946289063e-05, 4.076171875) (8.217061614990233e-05, 4.078125) (8.373133087158203e-05, 4.080078125) (8.510578155517578e-05, 4.08203125) (8.628237915039062e-05, 4.083984375) (8.725011444091797e-05, 4.0859375) (8.799864196777344e-05, 4.087890625) (8.851830291748047e-05, 4.08984375) (8.880049133300781e-05, 4.091796875) (8.883760833740233e-05, 4.09375) (8.862297058105469e-05, 4.095703125) (8.815093231201172e-05, 4.09765625) (8.741685485839843e-05, 4.099609375) (8.641720581054686e-05, 4.1015625) (8.514999389648437e-05, 4.103515625) (8.361453247070313e-05, 4.10546875) (8.181149291992187e-05, 4.107421875) (7.974295043945312e-05, 4.109375) (7.741233825683594e-05, 4.111328125) (7.482444763183594e-05, 4.11328125) (7.1985595703125e-05, 4.115234375) (6.8903564453125e-05, 4.1171875) (6.558726501464843e-05, 4.119140625) (6.204687881469726e-05, 4.12109375) (5.829384613037109e-05, 4.123046875) (5.434084320068359e-05, 4.125) (5.0201774597167965e-05, 4.126953125) (4.589167785644531e-05, 4.12890625) (4.142656707763672e-05, 4.130859375) (3.6823375701904296e-05, 4.1328125) (3.210010528564453e-05, 4.134765625) (2.7275684356689453e-05, 4.13671875) (2.236976623535156e-05, 4.138671875) (1.7402572631835938e-05, 4.140625) (1.2394647598266601e-05, 4.142578125) (7.366746425628661e-06, 4.14453125) (2.3397870063781736e-06, 4.146484375) (-2.6653230190277097e-06, 4.1484375) (-7.627896308898926e-06, 4.150390625) (-1.252762222290039e-05, 4.15234375) (-1.7344696044921873e-05, 4.154296875) (-2.205991744995117e-05, 4.15625) (-2.665478515625e-05, 4.158203125) (-3.111166000366211e-05, 4.16015625) (-3.5413864135742185e-05, 4.162109375) (-3.954580688476562e-05, 4.1640625) (-4.349318695068359e-05, 4.166015625) (-4.7242973327636716e-05, 4.16796875) (-5.078349304199219e-05, 4.169921875) (-5.4104469299316404e-05, 4.171875) (-5.719705200195312e-05, 4.173828125) (-6.00538330078125e-05, 4.17578125) (-6.266895294189453e-05, 4.177734375) (-6.503803253173827e-05, 4.1796875) (-6.715813446044921e-05, 4.181640625) (-6.902782440185547e-05, 4.18359375) (-7.0647216796875e-05, 4.185546875) (-7.201799774169921e-05, 4.1875) (-7.314341735839844e-05, 4.189453125) (-7.402810668945312e-05, 4.19140625) (-7.467805480957031e-05, 4.193359375) (-7.51005859375e-05, 4.1953125) (-7.530436706542968e-05, 4.197265625) (-7.529931640625e-05, 4.19921875) (-7.509638214111328e-05, 4.201171875) (-7.470741271972656e-05, 4.203125) (-7.414501953124999e-05, 4.205078125) (-7.342266845703125e-05, 4.20703125) (-7.25545196533203e-05, 4.208984375) (-7.155532836914062e-05, 4.2109375) (-7.044039154052735e-05, 4.212890625) (-6.922530364990234e-05, 4.21484375) (-6.792585754394532e-05, 4.216796875) (-6.655804443359375e-05, 4.21875) (-6.513783264160156e-05, 4.220703125) (-6.368094635009765e-05, 4.22265625) (-6.220289611816406e-05, 4.224609375) (-6.071871185302734e-05, 4.2265625) (-5.924260711669922e-05, 4.228515625) (-5.7788154602050776e-05, 4.23046875) (-5.636817932128906e-05, 4.232421875) (-5.499455261230469e-05, 4.234375) (-5.367851257324218e-05, 4.236328125) (-5.243036651611328e-05, 4.23828125) (-5.125934600830078e-05, 4.240234375) (-5.0173812866210935e-05, 4.2421875) (-4.9181415557861324e-05, 4.244140625) (-4.828874206542968e-05, 4.24609375) (-4.7501274108886716e-05, 4.248046875) (-4.6823219299316406e-05, 4.25) (-4.62574348449707e-05, 4.251953125) (-4.580576705932617e-05, 4.25390625) (-4.5469150543212886e-05, 4.255859375) (-4.5247360229492187e-05, 4.2578125) (-4.513894653320312e-05, 4.259765625) (-4.514131927490234e-05, 4.26171875) (-4.525103759765625e-05, 4.263671875) (-4.54642219543457e-05, 4.265625) (-4.5776649475097655e-05, 4.267578125) (-4.618336486816406e-05, 4.26953125) (-4.667881774902343e-05, 4.271484375) (-4.725690460205078e-05, 4.2734375) (-4.791072463989258e-05, 4.275390625) (-4.863317108154297e-05, 4.27734375) (-4.941680908203125e-05, 4.279296875) (-5.025354766845703e-05, 4.28125) (-5.113500213623047e-05, 4.283203125) (-5.205266571044922e-05, 4.28515625) (-5.299781799316406e-05, 4.287109375) (-5.396215438842773e-05, 4.2890625) (-5.4938827514648434e-05, 4.291015625) (-5.592185592651367e-05, 4.29296875) (-5.690628051757812e-05, 4.294921875) (-5.788840484619141e-05, 4.296875) (-5.886463928222656e-05, 4.298828125) (-5.983185195922851e-05, 4.30078125) (-6.078785705566406e-05, 4.302734375) (-6.173070526123047e-05, 4.3046875) (-6.265721893310547e-05, 4.306640625) (-6.356343078613281e-05, 4.30859375) (-6.444522094726562e-05, 4.310546875) (-6.529808044433594e-05, 4.3125) (-6.611955261230468e-05, 4.314453125) (-6.690919494628906e-05, 4.31640625) (-6.766630554199218e-05, 4.318359375) (-6.839079284667968e-05, 4.3203125) (-6.908395385742187e-05, 4.322265625) (-6.974711608886718e-05, 4.32421875) (-7.038134765625e-05, 4.326171875) (-7.09876480102539e-05, 4.328125) (-7.156497955322266e-05, 4.330078125) (-7.211175537109375e-05, 4.33203125) (-7.262744140624999e-05, 4.333984375) (-7.310993194580078e-05, 4.3359375) (-7.355992126464844e-05, 4.337890625) (-7.398291015624999e-05, 4.33984375) (-7.438818359374999e-05, 4.341796875) (-7.479220581054687e-05, 4.34375) (-7.520960235595703e-05, 4.345703125) (-7.564642333984374e-05, 4.34765625) (-7.610813140869141e-05, 4.349609375) (-7.659950256347656e-05, 4.3515625) (-7.711944580078125e-05, 4.353515625) (-7.766561126708984e-05, 4.35546875) (-7.823075866699219e-05, 4.357421875) (-7.879415893554687e-05, 4.359375) (-7.933565521240234e-05, 4.361328125) (-7.983890533447265e-05, 4.36328125) (-8.02819366455078e-05, 4.365234375) (-8.065190124511719e-05, 4.3671875) (-8.094146728515624e-05, 4.369140625) (-8.113220977783202e-05, 4.37109375) (-8.11993637084961e-05, 4.373046875) (-8.110582733154296e-05, 4.375) (-8.082180786132812e-05, 4.376953125) (-8.034848022460937e-05, 4.37890625) (-7.969678497314453e-05, 4.380859375) (-7.887612152099609e-05, 4.3828125) (-7.788591003417969e-05, 4.384765625) (-7.670973205566405e-05, 4.38671875) (-7.535903930664062e-05, 4.388671875) (-7.390689086914062e-05, 4.390625) (-7.24455795288086e-05, 4.392578125) (-7.106970977783203e-05, 4.39453125) (-6.988674163818359e-05, 4.396484375) (-6.89510498046875e-05, 4.3984375) (-6.834033966064453e-05, 4.400390625) (-6.822096252441406e-05, 4.40234375) (-6.865383148193359e-05, 4.404296875) (-6.960905456542968e-05, 4.40625) (-7.094037628173828e-05, 4.408203125) (-7.225016784667968e-05, 4.41015625) (-7.315560913085937e-05, 4.412109375) (-7.346493530273438e-05, 4.4140625) (-7.292079162597656e-05, 4.416015625) (-7.122862243652343e-05, 4.41796875) (-6.847264862060547e-05, 4.419921875) (-6.490408325195312e-05, 4.421875) (-6.111428451538086e-05, 4.423828125) (-5.837448120117187e-05, 4.42578125) (-5.770700073242187e-05, 4.427734375) (-5.971047973632812e-05, 4.4296875) (-6.512068176269532e-05, 4.431640625) (-7.43267822265625e-05, 4.43359375) (-8.679144287109375e-05, 4.435546875) (-0.00010149583435058594, 4.4375) (-0.00011657656860351562, 4.439453125) (-0.0001289789581298828, 4.44140625) (-0.00013605412292480468, 4.443359375) (-0.0001355994873046875, 4.4453125) (-0.00012510045623779297, 4.447265625) (-0.00010281749725341797, 4.44921875) (-6.845392608642578e-05, 4.451171875) (-2.263492202758789e-05, 4.453125) (3.256873321533203e-05, 4.455078125) (9.333221435546874e-05, 4.45703125) (0.00015579507446289063, 4.458984375) (0.00021595022583007813, 4.4609375) (0.00026870687866210934, 4.462890625) (0.000309574951171875, 4.46484375) (0.0003354988708496094, 4.466796875) (0.00034392181396484373, 4.46875) (0.0003348609924316406, 4.470703125) (0.0003101676635742187, 4.47265625) (0.00027045489501953125, 4.474609375) (0.00021837530517578125, 4.4765625) (0.00015581701660156248, 4.478515625) (8.448680114746093e-05, 4.48046875) (1.1961088180541991e-05, 4.482421875) (-5.553523254394531e-05, 4.484375) (-0.00011084107208251952, 4.486328125) (-0.00014679090881347656, 4.48828125) (-0.00016641857910156248, 4.490234375) (-0.00017341650390625, 4.4921875) (-0.00017181588745117187, 4.494140625) (-0.00016775669860839842, 4.49609375) (-0.00016038525390625, 4.498046875) (-0.0001491768341064453, 4.5) (-0.00013633070373535156, 4.501953125) (-0.00012240605163574218, 4.50390625) (-0.00010990846252441405, 4.505859375) (-0.00010066537475585937, 4.5078125) (-9.399185180664062e-05, 4.509765625) (-8.969383239746093e-05, 4.51171875) (-8.745125579833984e-05, 4.513671875) (-8.636529541015625e-05, 4.515625) (-8.567375946044922e-05, 4.517578125) (-8.469599151611327e-05, 4.51953125) (-8.288688659667968e-05, 4.521484375) (-8.042916870117187e-05, 4.5234375) (-7.799555969238281e-05, 4.525390625) (-7.565576934814452e-05, 4.52734375) (-7.3341064453125e-05, 4.529296875) (-7.124575805664063e-05, 4.53125) (-6.951012420654296e-05, 4.533203125) (-6.836865997314453e-05, 4.53515625) (-6.804806518554687e-05, 4.537109375) (-6.826560974121093e-05, 4.5390625) (-6.85455551147461e-05, 4.541015625) (-6.895339202880859e-05, 4.54296875) (-6.957448577880859e-05, 4.544921875) (-7.035281372070312e-05, 4.546875) (-7.133484649658202e-05, 4.548828125) (-7.235433197021485e-05, 4.55078125) (-7.319511413574218e-05, 4.552734375) (-7.392399597167969e-05, 4.5546875) (-7.463093566894531e-05, 4.556640625) (-7.517010498046875e-05, 4.55859375) (-7.543209838867188e-05, 4.560546875) (-7.533346557617187e-05, 4.5625) (-7.475287628173828e-05, 4.564453125) (-7.372591400146484e-05, 4.56640625) (-7.231327819824219e-05, 4.568359375) (-7.049335479736327e-05, 4.5703125) (-6.827410888671875e-05, 4.572265625) (-6.569911193847656e-05, 4.57421875) (-6.279958724975586e-05, 4.576171875) (-5.963346099853515e-05, 4.578125) (-5.626332473754882e-05, 4.580078125) (-5.271245574951172e-05, 4.58203125) (-4.901282501220703e-05, 4.583984375) (-4.51951789855957e-05, 4.5859375) (-4.12735366821289e-05, 4.587890625) (-3.727058792114258e-05, 4.58984375) (-3.320162200927734e-05, 4.591796875) (-2.9070629119873046e-05, 4.59375) (-2.4884620666503904e-05, 4.595703125) (-2.06441650390625e-05, 4.59765625) (-1.6343048095703123e-05, 4.599609375) (-1.1979949951171875e-05, 4.6015625) (-7.55319595336914e-06, 4.603515625) (-3.0630416870117186e-06, 4.60546875) (1.4849461317062378e-06, 4.607421875) (6.088604927062988e-06, 4.609375) (1.0746591567993164e-05, 4.611328125) (1.545560073852539e-05, 4.61328125) (2.0213611602783203e-05, 4.615234375) (2.501423454284668e-05, 4.6171875) (2.984653854370117e-05, 4.619140625) (3.470226669311523e-05, 4.62109375) (3.9571647644042966e-05, 4.623046875) (4.444185638427734e-05, 4.625) (4.929998779296875e-05, 4.626953125) (5.4128871917724606e-05, 4.62890625) (5.890849304199219e-05, 4.630859375) (6.362125396728516e-05, 4.6328125) (6.825031280517578e-05, 4.634765625) (7.277879333496093e-05, 4.63671875) (7.719107055664062e-05, 4.638671875) (8.147074890136718e-05, 4.640625) (8.560061645507813e-05, 4.642578125) (8.956499481201171e-05, 4.64453125) (9.334857177734375e-05, 4.646484375) (9.693548583984374e-05, 4.6484375) (0.00010031015014648436, 4.650390625) (0.0001034561767578125, 4.65234375) (0.00010635661315917968, 4.654296875) (0.00010899568939208984, 4.65625) (0.00011135867309570312, 4.658203125) (0.00011343141174316405, 4.66015625) (0.00011520088958740234, 4.662109375) (0.00011665489196777343, 4.6640625) (0.0001177813262939453, 4.666015625) (0.00011857023620605469, 4.66796875) (0.0001190142593383789, 4.669921875) (0.0001191072998046875, 4.671875) (0.00011884501647949219, 4.673828125) (0.00011822504425048827, 4.67578125) (0.00011724589538574219, 4.677734375) (0.00011590848541259765, 4.6796875) (0.00011421754455566405, 4.681640625) (0.00011217816162109374, 4.68359375) (0.00010979515838623047, 4.685546875) (0.00010707572174072265, 4.6875) (0.0001040270767211914, 4.689453125) (0.00010065936279296875, 4.69140625) (9.698958587646484e-05, 4.693359375) (9.303302764892578e-05, 4.6953125) (8.880290222167968e-05, 4.697265625) (8.431752014160156e-05, 4.69921875) (7.959515380859375e-05, 4.701171875) (7.4657958984375e-05, 4.703125) (6.95386962890625e-05, 4.705078125) (6.426013946533202e-05, 4.70703125) (5.883231735229492e-05, 4.708984375) (5.3279979705810546e-05, 4.7109375) (4.763315582275391e-05, 4.712890625) (4.192067337036133e-05, 4.71484375) (3.61893196105957e-05, 4.716796875) (3.0471519470214843e-05, 4.71875) (2.477595520019531e-05, 4.720703125) (1.9147670745849608e-05, 4.72265625) (1.365603446960449e-05, 4.724609375) (8.321550369262695e-06, 4.7265625) (3.135092735290527e-06, 4.728515625) (-1.910596132278442e-06, 4.73046875) (-6.837600231170654e-06, 4.732421875) (-1.1626551628112792e-05, 4.734375) (-1.6191823959350586e-05, 4.736328125) (-2.0502624511718748e-05, 4.73828125) (-2.4622156143188476e-05, 4.740234375) (-2.8431381225585936e-05, 4.7421875) (-3.1565229415893557e-05, 4.744140625) (-3.3916881561279296e-05, 4.74609375) (-3.5584999084472654e-05, 4.748046875) (-3.6535461425781246e-05, 4.75) (-3.71386604309082e-05, 4.751953125) (-3.6824241638183595e-05, 4.75390625) (-3.363629150390625e-05, 4.755859375) (-2.807382583618164e-05, 4.7578125) (-2.2090126037597656e-05, 4.759765625) (-1.8771059036254882e-05, 4.76171875) (-2.3882461547851563e-05, 4.763671875) (-3.713698577880859e-05, 4.765625) (-5.2771476745605464e-05, 4.767578125) (-6.50740509033203e-05, 4.76953125) (-6.597198486328124e-05, 4.771484375) (-5.4907890319824214e-05, 4.7734375) (-3.962217330932617e-05, 4.775390625) (-2.6176816940307616e-05, 4.77734375) (-2.089025115966797e-05, 4.779296875) (-2.4828163146972654e-05, 4.78125) (-3.2158561706542966e-05, 4.783203125) (-3.906376266479492e-05, 4.78515625) (-4.305538177490234e-05, 4.787109375) (-4.338874053955078e-05, 4.7890625) (-4.209024810791015e-05, 4.791015625) (-3.986927795410156e-05, 4.79296875) (-3.6625698089599604e-05, 4.794921875) (-3.273347473144531e-05, 4.796875) (-2.8397693634033202e-05, 4.798828125) (-2.4123504638671873e-05, 4.80078125) (-2.0434003829956054e-05, 4.802734375) (-1.622542381286621e-05, 4.8046875) (-1.065829849243164e-05, 4.806640625) (-4.953169345855713e-06, 4.80859375) (9.908618927001953e-07, 4.810546875) (5.265705585479736e-06, 4.8125) (6.317070960998535e-06, 4.814453125) (9.07243537902832e-06, 4.81640625) (1.5961713790893554e-05, 4.818359375) (3.0489620208740233e-05, 4.8203125) (5.729765319824218e-05, 4.822265625) (9.093678283691405e-05, 4.82421875) (0.00012629307556152343, 4.826171875) (0.00015861683654785157, 4.828125) (0.0001801312561035156, 4.830078125) (0.0001906240539550781, 4.83203125) (0.00019111358642578125, 4.833984375) (0.00018048953247070312, 4.8359375) (0.0001598012237548828, 4.837890625) (0.00012853863525390624, 4.83984375) (8.644191741943359e-05, 4.841796875) (3.626255798339844e-05, 4.84375) (-1.813848876953125e-05, 4.845703125) (-7.288970947265624e-05, 4.84765625) (-0.0001243306884765625, 4.849609375) (-0.00016947283935546875, 4.8515625) (-0.00020661611938476562, 4.853515625) (-0.00023493572998046873, 4.85546875) (-0.00025422686767578124, 4.857421875) (-0.00026562997436523436, 4.859375) (-0.0002712245788574219, 4.861328125) (-0.0002730816650390625, 4.86328125) (-0.0002734752197265625, 4.865234375) (-0.0002743836669921875, 4.8671875) (-0.00027680651855468746, 4.869140625) (-0.00028127813720703126, 4.87109375) (-0.00028790264892578126, 4.873046875) (-0.0002960303039550781, 4.875) (-0.0003047345581054687, 4.876953125) (-0.00031301461791992185, 4.87890625) (-0.0003196265869140625, 4.880859375) (-0.00032365380859375, 4.8828125) (-0.00032464935302734373, 4.884765625) (-0.00032231567382812496, 4.88671875) (-0.0003166653137207031, 4.888671875) (-0.0003080000610351562, 4.890625) (-0.00029668743896484376, 4.892578125) (-0.0002832422485351562, 4.89453125) (-0.00026830392456054684, 4.896484375) (-0.00025232330322265623, 4.8984375) (-0.00023561984252929685, 4.900390625) (-0.00021847929382324218, 4.90234375) (-0.00020105255126953123, 4.904296875) (-0.00018348641967773436, 4.90625) (-0.00016593856811523438, 4.908203125) (-0.00014848345947265625, 4.91015625) (-0.00013119918823242187, 4.912109375) (-0.00011422750091552734, 4.9140625) (-9.775746154785155e-05, 4.916015625) (-8.203985595703125e-05, 4.91796875) (-6.73280029296875e-05, 4.919921875) (-5.377647018432617e-05, 4.921875) (-4.147039031982422e-05, 4.923828125) (-3.0450897216796875e-05, 4.92578125) (-2.0706344604492187e-05, 4.927734375) (-1.2223535537719725e-05, 4.9296875) (-4.955415248870849e-06, 4.931640625) (1.1985528469085694e-06, 4.93359375) (6.326130867004394e-06, 4.935546875) (1.0514471054077148e-05, 4.9375) (1.3849432945251465e-05, 4.939453125) (1.638994598388672e-05, 4.94140625) (1.8216720581054687e-05, 4.943359375) (1.9457565307617185e-05, 4.9453125) (2.026793098449707e-05, 4.947265625) (2.0850461959838867e-05, 4.94921875) (2.142515182495117e-05, 4.951171875) (2.2153579711914062e-05, 4.953125) (2.3159324645996094e-05, 4.955078125) (2.4538036346435547e-05, 4.95703125) (2.6340206146240234e-05, 4.958984375) (2.860956764221191e-05, 4.9609375) (3.136825942993164e-05, 4.962890625) (3.459389495849609e-05, 4.96484375) (3.8262516021728515e-05, 4.966796875) (4.235430145263672e-05, 4.96875) (4.6844825744628904e-05, 4.970703125) (5.172601699829101e-05, 4.97265625) (5.698477554321289e-05, 4.974609375) (6.257196044921875e-05, 4.9765625) (6.842068481445312e-05, 4.978515625) (7.443616485595703e-05, 4.98046875) (8.049960327148437e-05, 4.982421875) (8.652452087402344e-05, 4.984375) (9.244882202148438e-05, 4.986328125) (9.82203140258789e-05, 4.98828125) (0.00010381149291992187, 4.990234375) (0.00010920149993896483, 4.9921875) (0.0001143763427734375, 4.994140625) (0.00011934870910644531, 4.99609375) (0.00012414119720458985, 4.998046875) (0.000128767578125, 5.0) (0.00013323956298828124, 5.001953125) (0.00013755926513671875, 5.00390625) (0.00014172164916992187, 5.005859375) (0.00014573660278320311, 5.0078125) (0.00014962109375, 5.009765625) (0.00015339752197265626, 5.01171875) (0.00015709759521484375, 5.013671875) (0.00016073956298828123, 5.015625) (0.00016432843017578124, 5.017578125) (0.00016786651611328123, 5.01953125) (0.00017134757995605467, 5.021484375) (0.00017475958251953125, 5.0234375) (0.00017808773803710938, 5.025390625) (0.00018130609130859374, 5.02734375) (0.00018438021850585937, 5.029296875) (0.00018728134155273436, 5.03125) (0.0001899842529296875, 5.033203125) (0.00019246673583984375, 5.03515625) (0.00019471148681640625, 5.037109375) (0.00019669822692871094, 5.0390625) (0.00019840457153320312, 5.041015625) (0.00019981021118164062, 5.04296875) (0.0002008952178955078, 5.044921875) (0.00020164247131347656, 5.046875) (0.00020203872680664062, 5.048828125) (0.00020207174682617188, 5.05078125) (0.00020173104858398435, 5.052734375) (0.00020100994873046874, 5.0546875) (0.00019990451049804687, 5.056640625) (0.00019841461181640624, 5.05859375) (0.00019654412841796874, 5.060546875) (0.00019429718017578124, 5.0625) (0.00019167808532714843, 5.064453125) (0.00018869293212890625, 5.06640625) (0.000185348876953125, 5.068359375) (0.00018165512084960937, 5.0703125) (0.00017762332153320313, 5.072265625) (0.00017326611328124999, 5.07421875) (0.00016859715270996093, 5.076171875) (0.00016363247680664062, 5.078125) (0.0001583902587890625, 5.080078125) (0.0001528904571533203, 5.08203125) (0.0001471549072265625, 5.083984375) (0.00014120640563964842, 5.0859375) (0.00013506837463378907, 5.087890625) (0.00012876515197753907, 5.08984375) (0.00012232210540771485, 5.091796875) (0.00011576504516601562, 5.09375) (0.00010912010192871093, 5.095703125) (0.00010241347503662109, 5.09765625) (9.567106628417968e-05, 5.099609375) (8.891864776611328e-05, 5.1015625) (8.218170166015625e-05, 5.103515625) (7.548501586914062e-05, 5.10546875) (6.885268402099609e-05, 5.107421875) (6.230789184570312e-05, 5.109375) (5.587269592285156e-05, 5.111328125) (4.956809616088867e-05, 5.11328125) (4.3413955688476564e-05, 5.115234375) (3.742856216430664e-05, 5.1171875) (3.162871170043945e-05, 5.119140625) (2.6029689788818357e-05, 5.12109375) (2.064505958557129e-05, 5.123046875) (1.5486896514892577e-05, 5.125) (1.0565839767456055e-05, 5.126953125) (5.8908467292785646e-06, 5.12890625) (1.4691565036773681e-06, 5.130859375) (-2.6935839653015138e-06, 5.1328125) (-6.593421459197998e-06, 5.134765625) (-1.0227983474731444e-05, 5.13671875) (-1.359620952606201e-05, 5.138671875) (-1.6698715209960935e-05, 5.140625) (-1.9537872314453123e-05, 5.142578125) (-2.21175537109375e-05, 5.14453125) (-2.4442901611328126e-05, 5.146484375) (-2.6519962310791014e-05, 5.1484375) (-2.835552406311035e-05, 5.150390625) (-2.995716667175293e-05, 5.15234375) (-3.133354759216309e-05, 5.154296875) (-3.2494079589843746e-05, 5.15625) (-3.344866180419922e-05, 5.158203125) (-3.4207550048828126e-05, 5.16015625) (-3.478132247924805e-05, 5.162109375) (-3.518119049072266e-05, 5.1640625) (-3.541891479492187e-05, 5.166015625) (-3.550641632080078e-05, 5.16796875) (-3.545557022094726e-05, 5.169921875) (-3.527805328369141e-05, 5.171875) (-3.498529052734375e-05, 5.173828125) (-3.458862686157226e-05, 5.17578125) (-3.409937286376953e-05, 5.177734375) (-3.3528209686279294e-05, 5.1796875) (-3.28852653503418e-05, 5.181640625) (-3.2180313110351564e-05, 5.18359375) (-3.142256546020508e-05, 5.185546875) (-3.062104797363281e-05, 5.1875) (-2.9784687042236326e-05, 5.189453125) (-2.8921941757202146e-05, 5.19140625) (-2.804048728942871e-05, 5.193359375) (-2.7147239685058594e-05, 5.1953125) (-2.624837112426758e-05, 5.197265625) (-2.5349431991577148e-05, 5.19921875) (-2.4455842971801756e-05, 5.201171875) (-2.3572593688964842e-05, 5.203125) (-2.2703697204589844e-05, 5.205078125) (-2.1852245330810548e-05, 5.20703125) (-2.1021368026733397e-05, 5.208984375) (-2.0215015411376953e-05, 5.2109375) (-1.9437946319580078e-05, 5.212890625) (-1.8695688247680662e-05, 5.21484375) (-1.799329376220703e-05, 5.216796875) (-1.7335063934326172e-05, 5.21875) (-1.6725772857666015e-05, 5.220703125) (-1.6170822143554688e-05, 5.22265625) (-1.567494773864746e-05, 5.224609375) (-1.5241505622863769e-05, 5.2265625) (-1.487207794189453e-05, 5.228515625) (-1.4566280364990234e-05, 5.23046875) (-1.432410717010498e-05, 5.232421875) (-1.4146566390991211e-05, 5.234375) (-1.4034832000732422e-05, 5.236328125) (-1.3990790367126464e-05, 5.23828125) (-1.4016522407531738e-05, 5.240234375) (-1.4114362716674805e-05, 5.2421875) (-1.428774070739746e-05, 5.244140625) (-1.453993034362793e-05, 5.24609375) (-1.4872143745422362e-05, 5.248046875) (-1.5284812927246092e-05, 5.25) (-1.5775293350219726e-05, 5.251953125) (-1.6337352752685545e-05, 5.25390625) (-1.6968372344970704e-05, 5.255859375) (-1.766653823852539e-05, 5.2578125) (-1.843186378479004e-05, 5.259765625) (-1.9271944046020507e-05, 5.26171875) (-2.019275856018066e-05, 5.263671875) (-2.1196285247802732e-05, 5.265625) (-2.228593635559082e-05, 5.267578125) (-2.3460361480712888e-05, 5.26953125) (-2.470777130126953e-05, 5.271484375) (-2.6013538360595703e-05, 5.2734375) (-2.7353628158569333e-05, 5.275390625) (-2.8694276809692382e-05, 5.27734375) (-3.0010387420654296e-05, 5.279296875) (-3.127542686462402e-05, 5.28125) (-3.2465362548828126e-05, 5.283203125) (-3.356658935546875e-05, 5.28515625) (-3.455845260620117e-05, 5.287109375) (-3.542798233032226e-05, 5.2890625) (-3.616848754882812e-05, 5.291015625) (-3.675732803344726e-05, 5.29296875) (-3.7171535491943357e-05, 5.294921875) (-3.739860153198242e-05, 5.296875) (-3.7424728393554686e-05, 5.298828125) (-3.725928497314453e-05, 5.30078125) (-3.69479866027832e-05, 5.302734375) (-3.6527275085449216e-05, 5.3046875) (-3.6051456451416016e-05, 5.306640625) (-3.559296417236328e-05, 5.30859375) (-3.519259643554687e-05, 5.310546875) (-3.491755676269531e-05, 5.3125) (-3.484330749511718e-05, 5.314453125) (-3.501826858520508e-05, 5.31640625) (-3.551619720458984e-05, 5.318359375) (-3.638660812377929e-05, 5.3203125) (-3.763044738769531e-05, 5.322265625) (-3.9311080932617186e-05, 5.32421875) (-4.151980209350586e-05, 5.326171875) (-4.423787307739258e-05, 5.328125) (-4.739006805419922e-05, 5.330078125) (-5.074785995483398e-05, 5.33203125) (-5.386478042602539e-05, 5.333984375) (-5.638144302368164e-05, 5.3359375) (-5.799514007568359e-05, 5.337890625) (-5.830438232421875e-05, 5.33984375) (-5.705571365356445e-05, 5.341796875) (-5.4232975006103515e-05, 5.34375) (-4.998250579833984e-05, 5.345703125) (-4.4928833007812496e-05, 5.34765625) (-4.007590103149414e-05, 5.349609375) (-3.627404022216797e-05, 5.3515625) (-3.4348175048828125e-05, 5.353515625) (-3.503125762939453e-05, 5.35546875) (-3.839393615722656e-05, 5.357421875) (-4.3912696838378906e-05, 5.359375) (-5.0645339965820314e-05, 5.361328125) (-5.6779525756835935e-05, 5.36328125) (-5.9992904663085937e-05, 5.365234375) (-5.80880126953125e-05, 5.3671875) (-4.867950439453125e-05, 5.369140625) (-2.9649852752685546e-05, 5.37109375) (-2.3416709899902342e-07, 5.373046875) (3.916987228393554e-05, 5.375) (8.740303039550781e-05, 5.376953125) (0.00014198590087890624, 5.37890625) (0.00019936415100097656, 5.380859375) (0.00025554779052734374, 5.3828125) (0.00030569671630859376, 5.384765625) (0.00034468225097656247, 5.38671875) (0.00036995379638671874, 5.388671875) (0.00038120565795898435, 5.390625) (0.00037768206787109373, 5.392578125) (0.0003588598327636719, 5.39453125) (0.00032207589721679685, 5.396484375) (0.0002632228088378906, 5.3984375) (0.00018420364379882813, 5.400390625) (9.38237075805664e-05, 5.40234375) (6.484106063842773e-06, 5.404296875) (-6.190796661376952e-05, 5.40625) (-0.00010285969543457031, 5.408203125) (-0.00011856658935546874, 5.41015625) (-0.00011952598571777343, 5.412109375) (-0.00011687358093261719, 5.4140625) (-0.00011636389160156249, 5.416015625) (-0.0001177799072265625, 5.41796875) (-0.0001162273178100586, 5.419921875) (-0.00010872772979736328, 5.421875) (-9.677971649169921e-05, 5.423828125) (-8.329686737060547e-05, 5.42578125) (-7.16847915649414e-05, 5.427734375) (-6.371003723144531e-05, 5.4296875) (-5.886704635620117e-05, 5.431640625) (-5.6200138092041014e-05, 5.43359375) (-5.498318862915039e-05, 5.435546875) (-5.442374420166015e-05, 5.4375) (-5.3523414611816406e-05, 5.439453125) (-5.170124816894531e-05, 5.44140625) (-4.8720672607421874e-05, 5.443359375) (-4.4606552124023434e-05, 5.4453125) (-3.9819053649902344e-05, 5.447265625) (-3.478296661376953e-05, 5.44921875) (-2.9706809997558592e-05, 5.451171875) (-2.4931455612182617e-05, 5.453125) (-2.0925743103027344e-05, 5.455078125) (-1.7946044921875e-05, 5.45703125) (-1.6115652084350584e-05, 5.458984375) (-1.542010974884033e-05, 5.4609375) (-1.562822723388672e-05, 5.462890625) (-1.655619239807129e-05, 5.46484375) (-1.808303451538086e-05, 5.466796875) (-2.002553939819336e-05, 5.46875) (-2.2207311630249023e-05, 5.470703125) (-2.447178268432617e-05, 5.47265625) (-2.6645816802978515e-05, 5.474609375) (-2.8612514495849607e-05, 5.4765625) (-3.0321861267089843e-05, 5.478515625) (-3.172203063964844e-05, 5.48046875) (-3.277716445922851e-05, 5.482421875) (-3.346818161010742e-05, 5.484375) (-3.376322555541992e-05, 5.486328125) (-3.3651981353759763e-05, 5.48828125) (-3.3151550292968747e-05, 5.490234375) (-3.2281951904296873e-05, 5.4921875) (-3.107209968566894e-05, 5.494140625) (-2.955078887939453e-05, 5.49609375) (-2.7741195678710937e-05, 5.498046875) (-2.567658805847168e-05, 5.5) (-2.339590072631836e-05, 5.501953125) (-2.0944620132446287e-05, 5.50390625) (-1.8375562667846678e-05, 5.505859375) (-1.5726312637329102e-05, 5.5078125) (-1.3018199920654296e-05, 5.509765625) (-1.0267078399658203e-05, 5.51171875) (-7.480342864990234e-06, 5.513671875) (-4.662407875061035e-06, 5.515625) (-1.8202154636383056e-06, 5.517578125) (1.0487217903137207e-06, 5.51953125) (3.95641016960144e-06, 5.521484375) (6.9109964370727534e-06, 5.5234375) (9.917763710021972e-06, 5.525390625) (1.2978322982788086e-05, 5.52734375) (1.6088710784912108e-05, 5.529296875) (1.924787139892578e-05, 5.53125) (2.2458106994628907e-05, 5.533203125) (2.572125244140625e-05, 5.53515625) (2.9038116455078123e-05, 5.537109375) (3.240533447265625e-05, 5.5390625) (3.581561279296875e-05, 5.541015625) (3.9260936737060546e-05, 5.54296875) (4.273255157470703e-05, 5.544921875) (4.6219810485839845e-05, 5.546875) (4.9710365295410155e-05, 5.548828125) (5.3188781738281245e-05, 5.55078125) (5.663731002807617e-05, 5.552734375) (6.004022979736328e-05, 5.5546875) (6.338331604003905e-05, 5.556640625) (6.665260314941407e-05, 5.55859375) (6.983470916748046e-05, 5.560546875) (7.291551208496093e-05, 5.5625) (7.588045501708984e-05, 5.564453125) (7.87162094116211e-05, 5.56640625) (8.1410400390625e-05, 5.568359375) (8.395030212402344e-05, 5.5703125) (8.632305908203125e-05, 5.572265625) (8.851603698730469e-05, 5.57421875) (9.051688385009766e-05, 5.576171875) (9.231456756591797e-05, 5.578125) (9.389933776855468e-05, 5.580078125) (9.526226806640624e-05, 5.58203125) (9.639518737792969e-05, 5.583984375) (9.729097747802734e-05, 5.5859375) (9.794374084472656e-05, 5.587890625) (9.83489761352539e-05, 5.58984375) (9.850363159179688e-05, 5.591796875) (9.840584564208984e-05, 5.59375) (9.805477905273437e-05, 5.595703125) (9.74507064819336e-05, 5.59765625) (9.659529113769531e-05, 5.599609375) (9.549175262451171e-05, 5.6015625) (9.414457702636718e-05, 5.603515625) (9.255944061279296e-05, 5.60546875) (9.074307250976562e-05, 5.607421875) (8.870331573486328e-05, 5.609375) (8.644929504394531e-05, 5.611328125) (8.399147796630858e-05, 5.61328125) (8.134144592285156e-05, 5.615234375) (7.851165008544921e-05, 5.6171875) (7.551528930664063e-05, 5.619140625) (7.236647033691406e-05, 5.62109375) (6.908007049560547e-05, 5.623046875) (6.567166137695312e-05, 5.625) (6.215723419189452e-05, 5.626953125) (5.855304336547851e-05, 5.62890625) (5.487542724609375e-05, 5.630859375) (5.114097595214844e-05, 5.6328125) (4.736643600463867e-05, 5.634765625) (4.35684814453125e-05, 5.63671875) (3.976364517211914e-05, 5.638671875) (3.596807861328125e-05, 5.640625) (3.219745254516602e-05, 5.642578125) (2.846697235107422e-05, 5.64453125) (2.4791324615478514e-05, 5.646484375) (2.118445587158203e-05, 5.6484375) (1.7659469604492186e-05, 5.650390625) (1.4228561401367187e-05, 5.65234375) (1.0902899742126464e-05, 5.654296875) (7.692673683166503e-06, 5.65625) (4.60708475112915e-06, 5.658203125) (1.6542668342590332e-06, 5.66015625) (-1.1587780714035034e-06, 5.662109375) (-3.82621431350708e-06, 5.6640625) (-6.343353271484375e-06, 5.666015625) (-8.70661163330078e-06, 5.66796875) (-1.0913476943969726e-05, 5.669921875) (-1.2962524414062499e-05, 5.671875) (-1.485343551635742e-05, 5.673828125) (-1.6586999893188477e-05, 5.67578125) (-1.816505432128906e-05, 5.677734375) (-1.959043312072754e-05, 5.6796875) (-2.0866930007934568e-05, 5.681640625) (-2.1999237060546873e-05, 5.68359375) (-2.2992912292480467e-05, 5.685546875) (-2.3854265213012693e-05, 5.6875) (-2.4590251922607422e-05, 5.689453125) (-2.5208393096923827e-05, 5.69140625) (-2.57166633605957e-05, 5.693359375) (-2.6123384475708005e-05, 5.6953125) (-2.643714904785156e-05, 5.697265625) (-2.666674423217773e-05, 5.69921875) (-2.6821075439453125e-05, 5.701171875) (-2.6909122467041014e-05, 5.703125) (-2.6939868927001953e-05, 5.705078125) (-2.692217445373535e-05, 5.70703125) (-2.6864749908447265e-05, 5.708984375) (-2.677609062194824e-05, 5.7109375) (-2.6664358139038083e-05, 5.712890625) (-2.6537338256835936e-05, 5.71484375) (-2.6402341842651366e-05, 5.716796875) (-2.6266145706176758e-05, 5.71875) (-2.613498878479004e-05, 5.720703125) (-2.6014564514160154e-05, 5.72265625) (-2.590987396240234e-05, 5.724609375) (-2.5825275421142576e-05, 5.7265625) (-2.5764518737792968e-05, 5.728515625) (-2.5730710983276365e-05, 5.73046875) (-2.5726417541503906e-05, 5.732421875) (-2.5753631591796873e-05, 5.734375) (-2.5813678741455077e-05, 5.736328125) (-2.5907291412353515e-05, 5.73828125) (-2.603470993041992e-05, 5.740234375) (-2.619561958312988e-05, 5.7421875) (-2.6389205932617185e-05, 5.744140625) (-2.6614280700683593e-05, 5.74609375) (-2.6869173049926758e-05, 5.748046875) (-2.7151885986328124e-05, 5.75) (-2.7460235595703124e-05, 5.751953125) (-2.7791711807250975e-05, 5.75390625) (-2.8143585205078123e-05, 5.755859375) (-2.851309585571289e-05, 5.7578125) (-2.889734077453613e-05, 5.759765625) (-2.9293212890625e-05, 5.76171875) (-2.9697509765625e-05, 5.763671875) (-3.0106803894042967e-05, 5.765625) (-3.0517459869384763e-05, 5.767578125) (-3.092604827880859e-05, 5.76953125) (-3.132910537719726e-05, 5.771484375) (-3.1723142623901365e-05, 5.7734375) (-3.210494232177734e-05, 5.775390625) (-3.247152709960938e-05, 5.77734375) (-3.282025146484375e-05, 5.779296875) (-3.3148929595947265e-05, 5.78125) (-3.3455612182617184e-05, 5.783203125) (-3.373845672607422e-05, 5.78515625) (-3.399613189697266e-05, 5.787109375) (-3.4227699279785155e-05, 5.7890625) (-3.4432495117187495e-05, 5.791015625) (-3.4610313415527345e-05, 5.79296875) (-3.4761077880859376e-05, 5.794921875) (-3.4884952545166015e-05, 5.796875) (-3.498285675048828e-05, 5.798828125) (-3.505622100830078e-05, 5.80078125) (-3.510665893554687e-05, 5.802734375) (-3.5136276245117185e-05, 5.8046875) (-3.5147377014160153e-05, 5.806640625) (-3.514200973510742e-05, 5.80859375) (-3.51224365234375e-05, 5.810546875) (-3.5090782165527345e-05, 5.8125) (-3.504864501953125e-05, 5.814453125) (-3.4997947692871095e-05, 5.81640625) (-3.494081497192383e-05, 5.818359375) (-3.487905502319336e-05, 5.8203125) (-3.481474685668945e-05, 5.822265625) (-3.475089263916016e-05, 5.82421875) (-3.469091033935547e-05, 5.826171875) (-3.463920593261719e-05, 5.828125) (-3.4601150512695314e-05, 5.830078125) (-3.4581207275390624e-05, 5.83203125) (-3.458360290527343e-05, 5.833984375) (-3.4612689971923827e-05, 5.8359375) (-3.467190551757812e-05, 5.837890625) (-3.4763912200927735e-05, 5.83984375) (-3.489070129394531e-05, 5.841796875) (-3.5052871704101564e-05, 5.84375) (-3.5250492095947266e-05, 5.845703125) (-3.548404693603515e-05, 5.84765625) (-3.575270080566406e-05, 5.849609375) (-3.605478286743164e-05, 5.8515625) (-3.638854598999023e-05, 5.853515625) (-3.6750560760498046e-05, 5.85546875) (-3.713714981079101e-05, 5.857421875) (-3.754475784301757e-05, 5.859375) (-3.7968013763427734e-05, 5.861328125) (-3.840185546875e-05, 5.86328125) (-3.8843742370605467e-05, 5.865234375) (-3.92911262512207e-05, 5.8671875) (-3.974156951904297e-05, 5.869140625) (-4.01957893371582e-05, 5.87109375) (-4.06546630859375e-05, 5.873046875) (-4.112111663818359e-05, 5.875) (-4.160309600830078e-05, 5.876953125) (-4.210715103149414e-05, 5.87890625) (-4.263763427734375e-05, 5.880859375) (-4.319987487792969e-05, 5.8828125) (-4.379730987548828e-05, 5.884765625) (-4.443025207519531e-05, 5.88671875) (-4.5097343444824215e-05, 5.888671875) (-4.578771591186523e-05, 5.890625) (-4.647933959960937e-05, 5.892578125) (-4.714522933959961e-05, 5.89453125) (-4.775004196166992e-05, 5.896484375) (-4.825780487060547e-05, 5.8984375) (-4.863827514648437e-05, 5.900390625) (-4.885863494873047e-05, 5.90234375) (-4.888751983642578e-05, 5.904296875) (-4.8699943542480464e-05, 5.90625) (-4.826790618896484e-05, 5.908203125) (-4.757098388671875e-05, 5.91015625) (-4.660586547851562e-05, 5.912109375) (-4.5347900390625e-05, 5.9140625) (-4.375959396362304e-05, 5.916015625) (-4.18302001953125e-05, 5.91796875) (-3.9567779541015624e-05, 5.919921875) (-3.702912902832031e-05, 5.921875) (-3.4340259552001954e-05, 5.923828125) (-3.161749458312988e-05, 5.92578125) (-2.895554733276367e-05, 5.927734375) (-2.655588150024414e-05, 5.9296875) (-2.4659910202026365e-05, 5.931640625) (-2.3389692306518552e-05, 5.93359375) (-2.277887535095215e-05, 5.935546875) (-2.2671379089355468e-05, 5.9375) (-2.270037269592285e-05, 5.939453125) (-2.264766502380371e-05, 5.94140625) (-2.2481761932373047e-05, 5.943359375) (-2.187581443786621e-05, 5.9453125) (-2.0420717239379882e-05, 5.947265625) (-1.8337339401245116e-05, 5.94921875) (-1.5990330696105957e-05, 5.951171875) (-1.4063738822937011e-05, 5.953125) (-1.407796287536621e-05, 5.955078125) (-1.5773162841796874e-05, 5.95703125) (-1.835612869262695e-05, 5.958984375) (-2.3478797912597656e-05, 5.9609375) (-3.171999549865723e-05, 5.962890625) (-4.5145629882812496e-05, 5.96484375) (-6.580873107910156e-05, 5.966796875) (-8.837239074707031e-05, 5.96875) (-0.00010779055786132812, 5.970703125) (-0.000118496337890625, 5.97265625) (-0.00011450201416015624, 5.974609375) (-9.868595886230468e-05, 5.9765625) (-7.337796783447265e-05, 5.978515625) (-4.06048698425293e-05, 5.98046875) (-4.708110809326172e-06, 5.982421875) (3.565491485595703e-05, 5.984375) (8.049382019042968e-05, 5.986328125) (0.00012798944854736327, 5.98828125) (0.00017809127807617186, 5.990234375) (0.00022725335693359375, 5.9921875) (0.00027112582397460934, 5.994140625) (0.0003071439208984375, 5.99609375) (0.00033265283203125, 5.998046875) (0.000346394775390625, 6.0) (0.00034865283203124996, 6.001953125) (0.0003389705810546875, 6.00390625) (0.0003166072692871094, 6.005859375) (0.00028239691162109374, 6.0078125) (0.00023845822143554686, 6.009765625) (0.00018760324096679686, 6.01171875) (0.00013321693420410155, 6.013671875) (7.826498413085937e-05, 6.015625) (2.4984188079833984e-05, 6.017578125) (-2.37607364654541e-05, 6.01953125) (-6.459123229980468e-05, 6.021484375) (-9.554991149902344e-05, 6.0234375) (-0.00011609681701660156, 6.025390625) (-0.00012667288970947266, 6.02734375) (-0.00012874342346191406, 6.029296875) (-0.00012385523986816407, 6.03125) (-0.00011334171295166015, 6.033203125) (-9.934960937499999e-05, 6.03515625) (-8.473794555664062e-05, 6.037109375) (-7.148423767089843e-05, 6.0390625) (-6.064892578125e-05, 6.041015625) (-5.264850997924804e-05, 6.04296875) (-4.711210632324219e-05, 6.044921875) (-4.3624053955078125e-05, 6.046875) (-4.193546676635742e-05, 6.048828125) (-4.128680419921875e-05, 6.05078125) (-4.046434783935547e-05, 6.052734375) (-3.872871017456054e-05, 6.0546875) (-3.580224990844726e-05, 6.056640625) (-3.171662330627441e-05, 6.05859375) (-2.691647720336914e-05, 6.060546875) (-2.1775632858276367e-05, 6.0625) (-1.648830795288086e-05, 6.064453125) (-1.1417821884155273e-05, 6.06640625) (-7.0447893142700196e-06, 6.068359375) (-3.6449642181396485e-06, 6.0703125) (-1.3316385746002197e-06, 6.072265625) (-7.01298713684082e-08, 6.07421875) (3.6461070179939267e-07, 6.076171875) (1.537172347307205e-07, 6.078125) (-5.907579064369201e-07, 6.080078125) (-1.7078032493591308e-06, 6.08203125) (-3.0370662212371826e-06, 6.083984375) (-4.440361499786377e-06, 6.0859375) (-5.770631313323975e-06, 6.087890625) (-6.9291944503784175e-06, 6.08984375) (-7.877633094787597e-06, 6.091796875) (-8.574914932250977e-06, 6.09375) (-8.988918304443359e-06, 6.095703125) (-9.101895332336426e-06, 6.09765625) (-8.887308120727539e-06, 6.099609375) (-8.337795257568358e-06, 6.1015625) (-7.473600387573242e-06, 6.103515625) (-6.319814682006835e-06, 6.10546875) (-4.9071531295776366e-06, 6.107421875) (-3.26707124710083e-06, 6.109375) (-1.4234430789947508e-06, 6.111328125) (5.959256291389465e-07, 6.11328125) (2.759042263031006e-06, 6.115234375) (5.029923915863037e-06, 6.1171875) (7.367818832397461e-06, 6.119140625) (9.744100570678711e-06, 6.12109375) (1.2144292831420898e-05, 6.123046875) (1.4559505462646484e-05, 6.125) (1.6986976623535155e-05, 6.126953125) (1.9425697326660155e-05, 6.12890625) (2.1873092651367185e-05, 6.130859375) (2.4334644317626953e-05, 6.1328125) (2.6824726104736327e-05, 6.134765625) (2.9355800628662108e-05, 6.13671875) (3.1937492370605465e-05, 6.138671875) (3.4575916290283205e-05, 6.140625) (3.727245330810547e-05, 6.142578125) (4.003005218505859e-05, 6.14453125) (4.285384750366211e-05, 6.146484375) (4.5748031616210934e-05, 6.1484375) (4.871488571166992e-05, 6.150390625) (5.1752296447753906e-05, 6.15234375) (5.485451507568359e-05, 6.154296875) (5.801459503173828e-05, 6.15625) (6.122444534301757e-05, 6.158203125) (6.447421264648437e-05, 6.16015625) (6.775204467773437e-05, 6.162109375) (7.104298400878906e-05, 6.1640625) (7.432976531982421e-05, 6.166015625) (7.759619140625e-05, 6.16796875) (8.08268585205078e-05, 6.169921875) (8.400634765625e-05, 6.171875) (8.711932373046875e-05, 6.173828125) (9.01494903564453e-05, 6.17578125) (9.308000183105469e-05, 6.177734375) (9.589479064941406e-05, 6.1796875) (9.857839965820311e-05, 6.181640625) (0.00010111508178710938, 6.18359375) (0.00010348893737792968, 6.185546875) (0.00010568406677246093, 6.1875) (0.00010768489074707031, 6.189453125) (0.0001094769058227539, 6.19140625) (0.00011104672241210937, 6.193359375) (0.00011238174438476563, 6.1953125) (0.00011347024536132812, 6.197265625) (0.00011430143737792968, 6.19921875) (0.0001148658218383789, 6.201171875) (0.00011515538024902344, 6.203125) (0.00011516353607177734, 6.205078125) (0.00011488506317138671, 6.20703125) (0.0001143160171508789, 6.208984375) (0.00011345379638671875, 6.2109375) (0.00011229750823974609, 6.212890625) (0.0001108479766845703, 6.21484375) (0.00010910768127441406, 6.216796875) (0.00010708058166503906, 6.21875) (0.00010477215576171874, 6.220703125) (0.00010218936920166015, 6.22265625) (9.93408203125e-05, 6.224609375) (9.623683166503906e-05, 6.2265625) (9.288914489746093e-05, 6.228515625) (8.931072998046874e-05, 6.23046875) (8.55157470703125e-05, 6.232421875) (8.151940917968749e-05, 6.234375) (7.73379898071289e-05, 6.236328125) (7.298861694335937e-05, 6.23828125) (6.848910522460937e-05, 6.240234375) (6.385770416259765e-05, 6.2421875) (5.911297607421875e-05, 6.244140625) (5.427388000488281e-05, 6.24609375) (4.9359664916992186e-05, 6.248046875) (4.438968658447266e-05, 6.25) (3.9383293151855464e-05, 6.251953125) (3.4359657287597655e-05, 6.25390625) (2.9337574005126952e-05, 6.255859375) (2.4335449218749997e-05, 6.2578125) (1.9371196746826172e-05, 6.259765625) (1.4462066650390624e-05, 6.26171875) (9.624536514282226e-06, 6.263671875) (4.87421989440918e-06, 6.265625) (2.2576498985290526e-07, 6.267578125) (-4.307158946990967e-06, 6.26953125) (-8.71186065673828e-06, 6.271484375) (-1.2976690292358397e-05, 6.2734375) (-1.7091087341308593e-05, 6.275390625) (-2.1045644760131833e-05, 6.27734375) (-2.4832145690917967e-05, 6.279296875) (-2.8443569183349607e-05, 6.28125) (-3.187410736083984e-05, 6.283203125) (-3.5119152069091796e-05, 6.28515625) (-3.817531585693359e-05, 6.287109375) (-4.1040435791015626e-05, 6.2890625) (-4.371355438232422e-05, 6.291015625) (-4.619488525390625e-05, 6.29296875) (-4.8485691070556636e-05, 6.294921875) (-5.058826446533203e-05, 6.296875) (-5.250579833984375e-05, 6.298828125) (-5.424232482910156e-05, 6.30078125) (-5.580267333984375e-05, 6.302734375) (-5.71923599243164e-05, 6.3046875) (-5.84174575805664e-05, 6.306640625) (-5.9484542846679685e-05, 6.30859375) (-6.0400611877441405e-05, 6.310546875) (-6.117297363281249e-05, 6.3125) (-6.180921936035156e-05, 6.314453125) (-6.231719589233398e-05, 6.31640625) (-6.2704833984375e-05, 6.318359375) (-6.298012542724609e-05, 6.3203125) (-6.315105438232421e-05, 6.322265625) (-6.322551345825196e-05, 6.32421875) (-6.321131896972656e-05, 6.326171875) (-6.311613464355468e-05, 6.328125) (-6.29473991394043e-05, 6.330078125) (-6.271228790283203e-05, 6.33203125) (-6.241771697998047e-05, 6.333984375) (-6.207025909423827e-05, 6.3359375) (-6.167620849609375e-05, 6.337890625) (-6.124156951904296e-05, 6.33984375) (-6.0772010803222656e-05, 6.341796875) (-6.0272838592529295e-05, 6.34375) (-5.9749000549316404e-05, 6.345703125) (-5.920509338378906e-05, 6.34765625) (-5.8645378112792966e-05, 6.349609375) (-5.807379913330078e-05, 6.3515625) (-5.749391174316406e-05, 6.353515625) (-5.6908866882324216e-05, 6.35546875) (-5.6321403503417966e-05, 6.357421875) (-5.5733909606933594e-05, 6.359375) (-5.514845275878906e-05, 6.361328125) (-5.4566810607910154e-05, 6.36328125) (-5.3990478515624995e-05, 6.365234375) 