(-3.125171184539795e-06, 0.0) (-6.395241260528564e-06, 0.001953125) (-9.381733894348144e-06, 0.00390625) (-1.2089027404785156e-05, 0.005859375) (-1.4522365570068358e-05, 0.0078125) (-1.6687833786010742e-05, 0.009765625) (-1.8592315673828126e-05, 0.01171875) (-2.0243453979492188e-05, 0.013671875) (-2.1649593353271484e-05, 0.015625) (-2.2819765090942382e-05, 0.017578125) (-2.3763654708862302e-05, 0.01953125) (-2.4491565704345702e-05, 0.021484375) (-2.501437759399414e-05, 0.0234375) (-2.5343471527099607e-05, 0.025390625) (-2.5490640640258787e-05, 0.02734375) (-2.5468029022216797e-05, 0.029296875) (-2.5288047790527343e-05, 0.03125) (-2.4963294982910157e-05, 0.033203125) (-2.4506475448608396e-05, 0.03515625) (-2.393030548095703e-05, 0.037109375) (-2.3247398376464842e-05, 0.0390625) (-2.2470207214355466e-05, 0.041015625) (-2.1610952377319336e-05, 0.04296875) (-2.0681564331054686e-05, 0.044921875) (-1.969364547729492e-05, 0.046875) (-1.8658395767211914e-05, 0.048828125) (-1.7586559295654295e-05, 0.05078125) (-1.6488384246826172e-05, 0.052734375) (-1.537358856201172e-05, 0.0546875) (-1.4251357078552246e-05, 0.056640625) (-1.313032817840576e-05, 0.05859375) (-1.2018558502197265e-05, 0.060546875) (-1.0923501968383789e-05, 0.0625) (-9.851994514465332e-06, 0.064453125) (-8.810270309448241e-06, 0.06640625) (-7.80399179458618e-06, 0.068359375) (-6.838283061981201e-06, 0.0703125) (-5.917706489562988e-06, 0.072265625) (-5.0462245941162105e-06, 0.07421875) (-4.227221012115478e-06, 0.076171875) (-3.463484525680542e-06, 0.078125) (-2.7572176456451414e-06, 0.080078125) (-2.110086441040039e-06, 0.08203125) (-1.5231988430023192e-06, 0.083984375) (-9.970589876174927e-07, 0.0859375) (-5.31605064868927e-07, 0.087890625) (-1.2626850605010985e-07, 0.08984375) (2.1997827291488647e-07, 0.091796875) (5.08510172367096e-07, 0.09375) (7.410007119178772e-07, 0.095703125) (9.194813966751098e-07, 0.09765625) (1.0462831258773804e-06, 0.099609375) (1.1239607334136963e-06, 0.1015625) (1.155217170715332e-06, 0.103515625) (1.142794132232666e-06, 0.10546875) (1.0894776582717895e-06, 0.107421875) (9.98142659664154e-07, 0.109375) (8.717212677001952e-07, 0.111328125) (7.131538987159729e-07, 0.11328125) (5.253022909164429e-07, 0.115234375) (3.108644485473633e-07, 0.1171875) (7.24835842847824e-08, 0.119140625) (-1.871466040611267e-07, 0.12109375) (-4.653159379959106e-07, 0.123046875) (-7.592816352844238e-07, 0.125) (-1.0663058757781983e-06, 0.126953125) (-1.3837392330169677e-06, 0.12890625) (-1.708871841430664e-06, 0.130859375) (-2.0387558937072753e-06, 0.1328125) (-2.3703017234802245e-06, 0.134765625) (-2.7003793716430664e-06, 0.13671875) (-3.025847911834717e-06, 0.138671875) (-3.3437161445617675e-06, 0.140625) (-3.6510987281799315e-06, 0.142578125) (-3.944972515106201e-06, 0.14453125) (-4.2222304344177245e-06, 0.146484375) (-4.479842185974121e-06, 0.1484375) (-4.714890956878662e-06, 0.150390625) (-4.924549102783203e-06, 0.15234375) (-5.105974197387695e-06, 0.154296875) (-5.256006717681884e-06, 0.15625) (-5.371119499206543e-06, 0.158203125) (-5.4477772712707515e-06, 0.16015625) (-5.4825477600097655e-06, 0.162109375) (-5.472105026245117e-06, 0.1640625) (-5.413034439086914e-06, 0.166015625) (-5.30156135559082e-06, 0.16796875) (-5.133699893951415e-06, 0.169921875) (-4.905472278594971e-06, 0.171875) (-4.613006591796875e-06, 0.173828125) (-4.252536296844482e-06, 0.17578125) (-3.820077896118164e-06, 0.177734375) (-3.3111987113952635e-06, 0.1796875) (-2.721489429473877e-06, 0.181640625) (-2.0468711853027345e-06, 0.18359375) (-1.2836221456527709e-06, 0.185546875) (-4.285540282726288e-07, 0.1875) (5.212209224700928e-07, 0.189453125) (1.5685033798217774e-06, 0.19140625) (2.715412139892578e-06, 0.193359375) (3.962871551513672e-06, 0.1953125) (5.310835838317871e-06, 0.197265625) (6.758451461791992e-06, 0.19921875) (8.304311752319335e-06, 0.201171875) (9.946794509887694e-06, 0.203125) (1.1683670043945312e-05, 0.205078125) (1.351164150238037e-05, 0.20703125) (1.5426338195800782e-05, 0.208984375) (1.7422845840454102e-05, 0.2109375) (1.9496124267578125e-05, 0.212890625) (2.1640209197998046e-05, 0.21484375) (2.3847761154174805e-05, 0.216796875) (2.6109437942504883e-05, 0.21875) (2.8413475036621093e-05, 0.220703125) (3.074707794189453e-05, 0.22265625) (3.309746932983398e-05, 0.224609375) (3.5451210021972656e-05, 0.2265625) (3.779351043701172e-05, 0.228515625) (4.0109123229980465e-05, 0.23046875) (4.2382282257080076e-05, 0.232421875) (4.459830474853515e-05, 0.234375) (4.6745292663574216e-05, 0.236328125) (4.8810997009277344e-05, 0.23828125) (5.078149795532226e-05, 0.240234375) (5.264099884033203e-05, 0.2421875) (5.4372039794921875e-05, 0.244140625) (5.595856094360351e-05, 0.24609375) (5.73870735168457e-05, 0.248046875) (5.864453887939453e-05, 0.25) (5.971729278564453e-05, 0.251953125) (6.0593086242675776e-05, 0.25390625) (6.126094055175781e-05, 0.255859375) (6.171546554565429e-05, 0.2578125) (6.195737457275391e-05, 0.259765625) (6.198332977294922e-05, 0.26171875) (6.178744888305664e-05, 0.263671875) (6.135935592651366e-05, 0.265625) (6.06803970336914e-05, 0.267578125) (5.973739624023437e-05, 0.26953125) (5.852392196655273e-05, 0.271484375) (5.7034420013427734e-05, 0.2734375) (5.526850128173828e-05, 0.275390625) (5.3231014251708984e-05, 0.27734375) (5.092791366577148e-05, 0.279296875) (4.837763595581054e-05, 0.28125) (4.561519622802734e-05, 0.283203125) (4.267090225219726e-05, 0.28515625) (3.95737190246582e-05, 0.287109375) (3.6348899841308594e-05, 0.2890625) (3.301298522949219e-05, 0.291015625) (2.9601854324340817e-05, 0.29296875) (2.6162317276000975e-05, 0.294921875) (2.2742965698242188e-05, 0.296875) (1.940290832519531e-05, 0.298828125) (1.6190168380737304e-05, 0.30078125) (1.3144527435302734e-05, 0.302734375) (1.0306076049804687e-05, 0.3046875) (7.695334911346435e-06, 0.306640625) (5.31037425994873e-06, 0.30859375) (3.138442039489746e-06, 0.310546875) (1.154388427734375e-06, 0.3125) (-6.769839525222778e-07, 0.314453125) (-2.3894064426422117e-06, 0.31640625) (-4.038201808929443e-06, 0.318359375) (-5.6938285827636715e-06, 0.3203125) (-7.433469772338867e-06, 0.322265625) (-9.369003295898437e-06, 0.32421875) (-1.1581560134887695e-05, 0.326171875) (-1.4196602821350096e-05, 0.328125) (-1.7426076889038084e-05, 0.330078125) (-2.131263542175293e-05, 0.33203125) (-2.5777648925781248e-05, 0.333984375) (-3.0629718780517576e-05, 0.3359375) (-3.5394500732421876e-05, 0.337890625) (-3.961038208007812e-05, 0.33984375) (-4.300817108154297e-05, 0.341796875) (-4.512102890014648e-05, 0.34375) (-4.539650726318359e-05, 0.345703125) (-4.3915828704833985e-05, 0.34765625) (-4.1025295257568355e-05, 0.349609375) (-3.7453746795654296e-05, 0.3515625) (-3.4804874420166016e-05, 0.353515625) (-3.428034210205078e-05, 0.35546875) (-3.659149932861328e-05, 0.357421875) (-4.291098785400391e-05, 0.359375) (-5.395606994628906e-05, 0.361328125) (-6.896452331542969e-05, 0.36328125) (-8.674858093261719e-05, 0.365234375) (-0.00010521974945068358, 0.3671875) (-0.00012037187194824218, 0.369140625) (-0.0001288807373046875, 0.37109375) (-0.00012774337768554686, 0.373046875) (-0.00011244349670410156, 0.375) (-8.132479858398438e-05, 0.376953125) (-3.6563804626464844e-05, 0.37890625) (2.031605529785156e-05, 0.380859375) (8.633685302734374e-05, 0.3828125) (0.0001606444854736328, 0.384765625) (0.0002483443145751953, 0.38671875) (0.0003485462341308594, 0.388671875) (0.00045329962158203123, 0.390625) (0.0005479675903320312, 0.392578125) (0.0006101251220703125, 0.39453125) (0.0006257554931640625, 0.396484375) (0.000591581298828125, 0.3984375) (0.0005141021728515625, 0.400390625) (0.00041021423339843746, 0.40234375) (0.00029405596923828126, 0.404296875) (0.00017903579711914063, 0.40625) (7.8795654296875e-05, 0.408203125) (2.2560501098632812e-07, 0.41015625) (-5.116692352294921e-05, 0.412109375) (-7.611892700195312e-05, 0.4140625) (-8.542070007324218e-05, 0.416015625) (-8.783127593994141e-05, 0.41796875) (-8.892361450195312e-05, 0.419921875) (-9.107100677490234e-05, 0.421875) (-8.952332305908203e-05, 0.423828125) (-8.168426513671875e-05, 0.42578125) (-7.020144653320313e-05, 0.427734375) (-5.824453353881836e-05, 0.4296875) (-4.997312927246094e-05, 0.431640625) (-4.786818695068359e-05, 0.43359375) (-5.107883453369141e-05, 0.435546875) (-5.791081237792968e-05, 0.4375) (-6.700288391113281e-05, 0.439453125) (-7.684416198730469e-05, 0.44140625) (-8.572837829589843e-05, 0.443359375) (-9.270137023925781e-05, 0.4453125) (-9.721560668945312e-05, 0.447265625) (-9.904673767089843e-05, 0.44921875) (-9.875502777099609e-05, 0.451171875) (-9.701560974121094e-05, 0.453125) (-9.427098846435547e-05, 0.455078125) (-9.118286132812499e-05, 0.45703125) (-8.851028442382812e-05, 0.458984375) (-8.663577270507812e-05, 0.4609375) (-8.578695678710937e-05, 0.462890625) (-8.604008483886718e-05, 0.46484375) (-8.719285583496094e-05, 0.466796875) (-8.910169219970703e-05, 0.46875) (-9.168598175048828e-05, 0.470703125) (-9.477035522460937e-05, 0.47265625) (-9.819158935546875e-05, 0.474609375) (-0.0001018383331298828, 0.4765625) (-0.0001055868682861328, 0.478515625) (-0.00010935575866699218, 0.48046875) (-0.0001130872802734375, 0.482421875) (-0.00011666323852539062, 0.484375) (-0.00011997784423828125, 0.486328125) (-0.00012295938110351562, 0.48828125) (-0.00012554393005371093, 0.490234375) (-0.0001277113037109375, 0.4921875) (-0.00012946078491210937, 0.494140625) (-0.00013078341674804686, 0.49609375) (-0.00013169108581542968, 0.498046875) (-0.00013221578979492188, 0.5) (-0.00013239067077636717, 0.501953125) (-0.0001322572021484375, 0.50390625) (-0.0001318515625, 0.505859375) (-0.00013119924926757812, 0.5078125) (-0.00013033929443359373, 0.509765625) (-0.00012931858825683594, 0.51171875) (-0.00012819020080566407, 0.513671875) (-0.00012701760864257812, 0.515625) (-0.00012584899139404297, 0.517578125) (-0.0001247167510986328, 0.51953125) (-0.0001236497344970703, 0.521484375) (-0.00012266517639160157, 0.5234375) (-0.00012177189636230468, 0.525390625) (-0.00012097667694091797, 0.52734375) (-0.00012027481842041014, 0.529296875) (-0.00011965148162841796, 0.53125) (-0.00011909593200683594, 0.533203125) (-0.00011859954071044921, 0.53515625) (-0.00011815442657470703, 0.537109375) (-0.00011775572204589843, 0.5390625) (-0.00011739449310302734, 0.541015625) (-0.0001170579605102539, 0.54296875) (-0.00011673326110839843, 0.544921875) (-0.00011640741729736328, 0.546875) (-0.00011606951904296875, 0.548828125) (-0.00011570977783203125, 0.55078125) (-0.00011531770324707031, 0.552734375) (-0.00011488346099853515, 0.5546875) (-0.00011439763641357422, 0.556640625) (-0.00011385034942626952, 0.55859375) (-0.00011323236846923828, 0.560546875) (-0.00011253347015380859, 0.5625) (-0.00011174034118652343, 0.564453125) (-0.00011083946990966797, 0.56640625) (-0.00010981735229492187, 0.568359375) (-0.00010866044616699218, 0.5703125) (-0.0001073567657470703, 0.572265625) (-0.00010589360046386718, 0.57421875) (-0.00010425955963134766, 0.576171875) (-0.00010244656372070312, 0.578125) (-0.0001004450225830078, 0.580078125) (-9.824494934082031e-05, 0.58203125) (-9.583486938476563e-05, 0.583984375) (-9.319737243652343e-05, 0.5859375) (-9.031952667236327e-05, 0.587890625) (-8.719989776611327e-05, 0.58984375) (-8.384110260009765e-05, 0.591796875) (-8.025315856933593e-05, 0.59375) (-7.645592498779297e-05, 0.595703125) (-7.24652099609375e-05, 0.59765625) (-6.830000305175781e-05, 0.599609375) (-6.398934936523437e-05, 0.6015625) (-5.955390930175781e-05, 0.603515625) (-5.500636291503906e-05, 0.60546875) (-5.035200500488281e-05, 0.607421875) (-4.5577579498291016e-05, 0.609375) (-4.066971206665039e-05, 0.611328125) (-3.5629962921142576e-05, 0.61328125) (-3.0469650268554687e-05, 0.615234375) (-2.521561050415039e-05, 0.6171875) (-1.9895429611206054e-05, 0.619140625) (-1.4515742301940917e-05, 0.62109375) (-9.080611228942871e-06, 0.623046875) (-3.5926527976989742e-06, 0.625) (1.9634079933166504e-06, 0.626953125) (7.59634256362915e-06, 0.62890625) (1.3320651054382324e-05, 0.630859375) (1.9176246643066404e-05, 0.6328125) (2.5179950714111326e-05, 0.634765625) (3.131438064575195e-05, 0.63671875) (3.754132080078125e-05, 0.638671875) (4.377944564819336e-05, 0.640625) (4.993117523193359e-05, 0.642578125) (5.592866516113281e-05, 0.64453125) (6.171810913085937e-05, 0.646484375) (6.725874328613281e-05, 0.6484375) (7.252144622802734e-05, 0.650390625) (7.745536041259766e-05, 0.65234375) (8.200885009765624e-05, 0.654296875) (8.614279174804687e-05, 0.65625) (8.979925537109375e-05, 0.658203125) (9.292011260986327e-05, 0.66015625) (9.543785858154297e-05, 0.662109375) (9.724964904785156e-05, 0.6640625) (9.828063964843749e-05, 0.666015625) (9.8510498046875e-05, 0.66796875) (9.794903564453125e-05, 0.669921875) (9.666053009033202e-05, 0.671875) (9.47421646118164e-05, 0.673828125) (9.225923919677733e-05, 0.67578125) (8.926688385009765e-05, 0.677734375) (8.582131958007812e-05, 0.6796875) (8.196099853515625e-05, 0.681640625) (7.773718261718749e-05, 0.68359375) (7.320254516601562e-05, 0.685546875) (6.838834381103515e-05, 0.6875) (6.333792495727538e-05, 0.689453125) (5.810820770263671e-05, 0.69140625) (5.277039718627929e-05, 0.693359375) (4.7429367065429683e-05, 0.6953125) (4.2176692962646484e-05, 0.697265625) (3.705955505371094e-05, 0.69921875) (3.210326385498047e-05, 0.701171875) (2.729743766784668e-05, 0.703125) (2.2604244232177734e-05, 0.705078125) (1.8010095596313477e-05, 0.70703125) (1.3508772850036621e-05, 0.708984375) (9.086648941040038e-06, 0.7109375) (4.748054027557373e-06, 0.712890625) (4.9940025806427e-07, 0.71484375) (-3.650903224945068e-06, 0.716796875) (-7.6724214553833e-06, 0.71875) (-1.1534585952758789e-05, 0.720703125) (-1.5222042083740234e-05, 0.72265625) (-1.8729881286621092e-05, 0.724609375) (-2.2070983886718748e-05, 0.7265625) (-2.5258861541748046e-05, 0.728515625) (-2.8286529541015624e-05, 0.73046875) (-3.113803100585937e-05, 0.732421875) (-3.378718566894531e-05, 0.734375) (-3.619645309448242e-05, 0.736328125) (-3.8339244842529294e-05, 0.73828125) (-4.0193283081054684e-05, 0.740234375) (-4.173140716552734e-05, 0.7421875) (-4.29371452331543e-05, 0.744140625) (-4.3802101135253904e-05, 0.74609375) (-4.432234191894531e-05, 0.748046875) (-4.4507808685302736e-05, 0.75) (-4.437461471557617e-05, 0.751953125) (-4.393260955810547e-05, 0.75390625) (-4.318952178955078e-05, 0.755859375) (-4.2151031494140625e-05, 0.7578125) (-4.082086944580078e-05, 0.759765625) (-3.920874786376953e-05, 0.76171875) (-3.732796478271484e-05, 0.763671875) (-3.5192474365234374e-05, 0.765625) (-3.2819385528564455e-05, 0.767578125) (-3.0226289749145506e-05, 0.76953125) (-2.7431568145751954e-05, 0.771484375) (-2.4456901550292968e-05, 0.7734375) (-2.1323314666748047e-05, 0.775390625) (-1.8049468994140625e-05, 0.77734375) (-1.4653242111206053e-05, 0.779296875) (-1.1150131225585936e-05, 0.78125) (-7.553767204284668e-06, 0.783203125) (-3.879510879516601e-06, 0.78515625) (-1.4308363199234007e-07, 0.787109375) (3.6406474113464353e-06, 0.7890625) (7.455968856811523e-06, 0.791015625) (1.1287433624267578e-05, 0.79296875) (1.5120361328124999e-05, 0.794921875) (1.893958282470703e-05, 0.796875) (2.2730316162109376e-05, 0.798828125) (2.647956085205078e-05, 0.80078125) (3.017557907104492e-05, 0.802734375) (3.380782318115234e-05, 0.8046875) (3.736733245849609e-05, 0.806640625) (4.084600830078125e-05, 0.80859375) (4.4236618041992185e-05, 0.810546875) (4.7533229827880855e-05, 0.8125) (5.07308349609375e-05, 0.814453125) (5.382511138916015e-05, 0.81640625) (5.681246948242187e-05, 0.818359375) (5.9689891815185546e-05, 0.8203125) (6.245487594604491e-05, 0.822265625) (6.51055908203125e-05, 0.82421875) (6.764075469970702e-05, 0.826171875) (7.00595245361328e-05, 0.828125) (7.236163330078125e-05, 0.830078125) (7.454737854003905e-05, 0.83203125) (7.661766815185546e-05, 0.833984375) (7.857414245605468e-05, 0.8359375) (8.041899108886719e-05, 0.837890625) (8.215483093261719e-05, 0.83984375) (8.378480529785156e-05, 0.841796875) (8.531256103515625e-05, 0.84375) (8.674205017089843e-05, 0.845703125) (8.807772827148437e-05, 0.84765625) (8.93242950439453e-05, 0.849609375) (9.04865264892578e-05, 0.8515625) (9.156948852539062e-05, 0.853515625) (9.257862091064452e-05, 0.85546875) (9.351947784423828e-05, 0.857421875) (9.439784240722656e-05, 0.859375) (9.521957397460938e-05, 0.861328125) (9.599027252197265e-05, 0.86328125) (9.671527099609374e-05, 0.865234375) (9.739979553222655e-05, 0.8671875) (9.804867553710937e-05, 0.869140625) (9.866648864746093e-05, 0.87109375) (9.925753784179687e-05, 0.873046875) (9.982574462890625e-05, 0.875) (0.00010037477874755858, 0.876953125) (0.00010090826416015625, 0.87890625) (0.00010142976379394531, 0.880859375) (0.00010194285583496093, 0.8828125) (0.00010245110321044922, 0.884765625) (0.00010295803070068359, 0.88671875) (0.0001034671173095703, 0.888671875) (0.00010398183441162109, 0.890625) (0.0001045055923461914, 0.892578125) (0.00010504164886474609, 0.89453125) (0.00010559311676025391, 0.896484375) (0.00010616275024414062, 0.8984375) (0.00010675302124023437, 0.900390625) (0.00010736611175537109, 0.90234375) (0.00010800390625, 0.904296875) (0.00010866788482666015, 0.90625) (0.00010935916900634765, 0.908203125) (0.00011007851409912109, 0.91015625) (0.0001108262939453125, 0.912109375) (0.0001116026153564453, 0.9140625) (0.00011240728759765624, 0.916015625) (0.00011323979187011719, 0.91796875) (0.00011409933471679687, 0.919921875) (0.00011498487091064453, 0.921875) (0.00011589515686035156, 0.923828125) (0.00011682877349853515, 0.92578125) (0.0001177842559814453, 0.927734375) (0.00011876002502441405, 0.9296875) (0.00011975443267822266, 0.931640625) (0.00012076579284667968, 0.93359375) (0.00012179235839843749, 0.935546875) (0.0001228323974609375, 0.9375) (0.00012388404846191406, 0.939453125) (0.00012494532775878905, 0.94140625) (0.00012601403808593748, 0.943359375) (0.00012708773040771485, 0.9453125) (0.00012816371154785155, 0.947265625) (0.000129239013671875, 0.94921875) (0.00013031042480468748, 0.951171875) (0.00013137440490722656, 0.953125) (0.00013242721557617186, 0.955078125) (0.00013346493530273437, 0.95703125) (0.00013448355102539062, 0.958984375) (0.00013547900390625, 0.9609375) (0.00013644729614257811, 0.962890625) (0.00013738446044921874, 0.96484375) (0.00013828657531738282, 0.966796875) (0.00013914990234375, 0.96875) (0.00013997084045410155, 0.970703125) (0.00014074597167968748, 0.97265625) (0.00014147216796874998, 0.974609375) (0.0001421463623046875, 0.9765625) (0.00014276565551757812, 0.978515625) (0.00014332740783691407, 0.98046875) (0.00014382919311523436, 0.982421875) (0.00014426879882812498, 0.984375) (0.00014464419555664063, 0.986328125) (0.00014495350646972656, 0.98828125) (0.0001451949005126953, 0.990234375) (0.00014536674499511718, 0.9921875) (0.0001454676513671875, 0.994140625) (0.000145496337890625, 0.99609375) (0.0001454516906738281, 0.998046875) (0.00014533270263671874, 1.0) (0.00014513856506347657, 1.001953125) (0.00014486885070800782, 1.00390625) (0.00014452349853515624, 1.005859375) (0.00014410282897949219, 1.0078125) (0.00014360760498046874, 1.009765625) (0.00014303912353515625, 1.01171875) (0.00014239920043945312, 1.013671875) (0.00014169021606445312, 1.015625) (0.00014091526794433594, 1.017578125) (0.00014007794189453124, 1.01953125) (0.0001391823272705078, 1.021484375) (0.00013823295593261718, 1.0234375) (0.0001372347717285156, 1.025390625) (0.000136193115234375, 1.02734375) (0.00013511381530761717, 1.029296875) (0.0001340029296875, 1.03125) (0.00013286666870117187, 1.033203125) (0.00013171144104003906, 1.03515625) (0.00013054364013671875, 1.037109375) (0.00012937008666992188, 1.0390625) (0.00012819786071777343, 1.041015625) (0.00012703411865234375, 1.04296875) (0.00012588604736328123, 1.044921875) (0.0001247608642578125, 1.046875) (0.00012366600036621092, 1.048828125) (0.00012260916137695312, 1.05078125) (0.00012159850311279296, 1.052734375) (0.00012064193725585938, 1.0546875) (0.00011974722290039061, 1.056640625) (0.00011892211914062499, 1.05859375) (0.00011817436218261719, 1.060546875) (0.00011751168823242187, 1.0625) (0.00011694184875488281, 1.064453125) (0.00011647196960449219, 1.06640625) (0.00011610867309570312, 1.068359375) (0.00011585820007324218, 1.0703125) (0.00011572634887695312, 1.072265625) (0.00011571829223632812, 1.07421875) (0.00011583854675292969, 1.076171875) (0.00011609049224853515, 1.078125) (0.0001164764404296875, 1.080078125) (0.00011699791717529297, 1.08203125) (0.00011765533447265625, 1.083984375) (0.00011844817352294921, 1.0859375) (0.00011937484741210937, 1.087890625) (0.00012043240356445312, 1.08984375) (0.00012161665344238281, 1.091796875) (0.00012292266845703124, 1.09375) (0.0001243447036743164, 1.095703125) (0.00012587632751464843, 1.09765625) (0.00012751066589355468, 1.099609375) (0.00012923959350585938, 1.1015625) (0.00013105386352539063, 1.103515625) (0.0001329440155029297, 1.10546875) (0.00013489993286132813, 1.107421875) (0.00013691032409667969, 1.109375) (0.00013896252441406248, 1.111328125) (0.00014104144287109375, 1.11328125) (0.00014312994384765623, 1.115234375) (0.00014521092224121094, 1.1171875) (0.00014726708984375, 1.119140625) (0.0001492803955078125, 1.12109375) (0.00015123239135742187, 1.123046875) (0.00015310401916503907, 1.125) (0.00015487731933593748, 1.126953125) (0.0001565372619628906, 1.12890625) (0.00015807037353515624, 1.130859375) (0.00015946282958984373, 1.1328125) (0.00016069943237304686, 1.134765625) (0.000161763671875, 1.13671875) (0.00016264031982421873, 1.138671875) (0.0001633169708251953, 1.140625) (0.00016378285217285156, 1.142578125) (0.00016402893066406248, 1.14453125) (0.00016404702758789061, 1.146484375) (0.00016383078002929686, 1.1484375) (0.00016337777709960936, 1.150390625) (0.00016268905639648437, 1.15234375) (0.00016176748657226563, 1.154296875) (0.00016061444091796875, 1.15625) (0.00015922636413574217, 1.158203125) (0.00015759170532226563, 1.16015625) (0.00015569647216796874, 1.162109375) (0.0001535304718017578, 1.1640625) (0.0001510897521972656, 1.166015625) (0.00014837881469726563, 1.16796875) (0.00014540200805664063, 1.169921875) (0.00014216607666015624, 1.171875) (0.0001386864471435547, 1.173828125) (0.00013498654174804687, 1.17578125) (0.0001311019287109375, 1.177734375) (0.00012706803131103516, 1.1796875) (0.0001229133529663086, 1.181640625) (0.00011866870117187499, 1.18359375) (0.00011436856842041015, 1.185546875) (0.0001100539321899414, 1.1875) (0.00010577804565429687, 1.189453125) (0.00010160455322265624, 1.19140625) (9.759432983398437e-05, 1.193359375) (9.380854034423827e-05, 1.1953125) (9.02957305908203e-05, 1.197265625) (8.707200622558593e-05, 1.19921875) (8.41547622680664e-05, 1.201171875) (8.154519653320312e-05, 1.203125) (7.923244476318359e-05, 1.205078125) (7.722321319580078e-05, 1.20703125) (7.54804229736328e-05, 1.208984375) (7.394198608398437e-05, 1.2109375) (7.254727935791016e-05, 1.212890625) (7.118517303466796e-05, 1.21484375) (6.973575592041015e-05, 1.216796875) (6.812128448486327e-05, 1.21875) (6.618255615234375e-05, 1.220703125) (6.370387268066406e-05, 1.22265625) (6.063162994384765e-05, 1.224609375) (5.699174880981445e-05, 1.2265625) (5.2990257263183595e-05, 1.228515625) (4.915995407104492e-05, 1.23046875) (4.5939979553222656e-05, 1.232421875) (4.365195846557617e-05, 1.234375) (4.275601196289062e-05, 1.236328125) (4.34797248840332e-05, 1.23828125) (4.563519287109375e-05, 1.240234375) (4.882367706298828e-05, 1.2421875) (5.1949958801269526e-05, 1.244140625) (5.3354923248291014e-05, 1.24609375) (5.176289367675781e-05, 1.248046875) (4.604279708862304e-05, 1.25) (3.5289386749267574e-05, 1.251953125) (1.9790992736816406e-05, 1.25390625) (5.82534670829773e-07, 1.255859375) (-2.0840389251708984e-05, 1.2578125) (-4.1226810455322266e-05, 1.259765625) (-5.6539901733398436e-05, 1.26171875) (-6.307702636718749e-05, 1.263671875) (-5.647030639648437e-05, 1.265625) (-3.472249603271484e-05, 1.267578125) (2.9146194458007813e-07, 1.26953125) (4.6875362396240235e-05, 1.271484375) (0.00010297634887695312, 1.2734375) (0.0001692275390625, 1.275390625) (0.0002506517333984375, 1.27734375) (0.00034609735107421876, 1.279296875) (0.0004479921264648437, 1.28125) (0.0005401387329101562, 1.283203125) (0.0005995824584960937, 1.28515625) (0.0006153533935546874, 1.287109375) (0.0005856789550781249, 1.2890625) (0.0005201048583984375, 1.291015625) (0.0004387980041503906, 1.29296875) (0.00035121093749999996, 1.294921875) (0.0002656521301269531, 1.296875) (0.00019010929870605467, 1.298828125) (0.00012469512939453125, 1.30078125) (7.730230712890625e-05, 1.302734375) (5.127754211425781e-05, 1.3046875) (3.945193099975586e-05, 1.306640625) (3.7654197692871095e-05, 1.30859375) (3.74871711730957e-05, 1.310546875) (3.3459075927734375e-05, 1.3125) (2.9332054138183594e-05, 1.314453125) (2.644833946228027e-05, 1.31640625) (2.546192932128906e-05, 1.318359375) (2.6013980865478513e-05, 1.3203125) (2.4201723098754882e-05, 1.322265625) (1.822964859008789e-05, 1.32421875) (8.777700424194336e-06, 1.326171875) (-2.94830584526062e-06, 1.328125) (-1.5054355621337889e-05, 1.330078125) (-2.5909934997558593e-05, 1.33203125) (-3.49193000793457e-05, 1.333984375) (-4.1680229187011716e-05, 1.3359375) (-4.580459213256836e-05, 1.337890625) (-4.734607696533203e-05, 1.33984375) (-4.660866546630859e-05, 1.341796875) (-4.404504776000976e-05, 1.34375) (-4.0328731536865234e-05, 1.345703125) (-3.6244472503662106e-05, 1.34765625) (-3.2301513671874995e-05, 1.349609375) (-2.880588150024414e-05, 1.3515625) (-2.5968273162841796e-05, 1.353515625) (-2.3786930084228515e-05, 1.35546875) (-2.22541389465332e-05, 1.357421875) (-2.1393999099731444e-05, 1.359375) (-2.114141845703125e-05, 1.361328125) (-2.138778305053711e-05, 1.36328125) (-2.2044567108154295e-05, 1.365234375) (-2.30313777923584e-05, 1.3671875) (-2.4288177490234375e-05, 1.369140625) (-2.579801368713379e-05, 1.37109375) (-2.7528148651123045e-05, 1.373046875) (-2.9409225463867187e-05, 1.375) (-3.135249900817871e-05, 1.376953125) (-3.323221206665039e-05, 1.37890625) (-3.4922721862792965e-05, 1.380859375) (-3.6346008300781246e-05, 1.3828125) (-3.745526885986328e-05, 1.384765625) (-3.8223289489746095e-05, 1.38671875) (-3.8632263183593746e-05, 1.388671875) (-3.8662445068359375e-05, 1.390625) (-3.830792617797851e-05, 1.392578125) (-3.759284973144531e-05, 1.39453125) (-3.6560180664062495e-05, 1.396484375) (-3.525013732910156e-05, 1.3984375) (-3.3698436737060546e-05, 1.400390625) (-3.1932331085205074e-05, 1.40234375) (-2.9976051330566404e-05, 1.404296875) (-2.7868753433227538e-05, 1.40625) (-2.5658969879150388e-05, 1.408203125) (-2.3400997161865232e-05, 1.41015625) (-2.114838409423828e-05, 1.412109375) (-1.8936563491821288e-05, 1.4140625) (-1.678693389892578e-05, 1.416015625) (-1.4715435028076171e-05, 1.41796875) (-1.2733669281005859e-05, 1.419921875) (-1.0850080490112305e-05, 1.421875) (-9.067627906799316e-06, 1.423828125) (-7.377418518066406e-06, 1.42578125) (-5.7626953125e-06, 1.427734375) (-4.21104621887207e-06, 1.4296875) (-2.713414430618286e-06, 1.431640625) (-1.2627127170562744e-06, 1.43359375) (1.4723390340805052e-07, 1.435546875) (1.5281672477722168e-06, 1.4375) (2.8947167396545407e-06, 1.439453125) (4.2606921195983886e-06, 1.44140625) (5.63978385925293e-06, 1.443359375) (7.044030666351318e-06, 1.4453125) (8.48416519165039e-06, 1.447265625) (9.97157859802246e-06, 1.44921875) (1.1517395019531249e-05, 1.451171875) (1.3130977630615234e-05, 1.453125) (1.4820926666259765e-05, 1.455078125) (1.6594615936279296e-05, 1.45703125) (1.8458171844482422e-05, 1.458984375) (2.0419315338134764e-05, 1.4609375) (2.2486719131469727e-05, 1.462890625) (2.4668842315673826e-05, 1.46484375) (2.6974369049072263e-05, 1.466796875) (2.941127586364746e-05, 1.46875) (3.198653984069824e-05, 1.470703125) (3.4706871032714844e-05, 1.47265625) (3.757835006713867e-05, 1.474609375) (4.0605323791503905e-05, 1.4765625) (4.379063415527344e-05, 1.478515625) (4.713572692871093e-05, 1.48046875) (5.0640495300292964e-05, 1.482421875) (5.4303733825683594e-05, 1.484375) (5.8122890472412106e-05, 1.486328125) (6.20936279296875e-05, 1.48828125) (6.621009063720703e-05, 1.490234375) (7.04651107788086e-05, 1.4921875) (7.485009765624999e-05, 1.494140625) (7.935503387451172e-05, 1.49609375) (8.39684600830078e-05, 1.498046875) (8.867733764648437e-05, 1.5) (9.346753692626952e-05, 1.501953125) (9.832406616210938e-05, 1.50390625) (0.00010323098754882813, 1.505859375) (0.00010817141723632812, 1.5078125) (0.00011312748718261718, 1.509765625) (0.00011808036804199218, 1.51171875) (0.0001230105972290039, 1.513671875) (0.00012789816284179686, 1.515625) (0.00013272250366210938, 1.517578125) (0.00013746241760253906, 1.51953125) (0.00014209632873535155, 1.521484375) (0.00014660234069824218, 1.5234375) (0.00015095846557617188, 1.525390625) (0.00015514292907714843, 1.52734375) (0.0001591342315673828, 1.529296875) (0.00016291117858886718, 1.53125) (0.00016645317077636717, 1.533203125) (0.00016974011230468748, 1.53515625) (0.00017275274658203125, 1.537109375) (0.00017547302246093748, 1.5390625) (0.00017788409423828125, 1.541015625) (0.000179970458984375, 1.54296875) (0.00018171795654296874, 1.544921875) (0.000183114013671875, 1.546875) (0.00018414773559570312, 1.548828125) (0.0001848100128173828, 1.55078125) (0.00018509374999999998, 1.552734375) (0.00018499359130859375, 1.5546875) (0.00018450598144531248, 1.556640625) (0.00018362925720214843, 1.55859375) (0.0001823636474609375, 1.560546875) (0.0001807112579345703, 1.5625) (0.00017867611694335936, 1.564453125) (0.00017626390075683592, 1.56640625) (0.00017348219299316404, 1.568359375) (0.00017034027099609376, 1.5703125) (0.0001668492736816406, 1.572265625) (0.00016302206420898437, 1.57421875) (0.0001588733215332031, 1.576171875) (0.00015441932678222656, 1.578125) (0.00014967799377441405, 1.580078125) (0.00014466864013671876, 1.58203125) (0.00013941207885742187, 1.583984375) (0.00013393023681640623, 1.5859375) (0.00012824620056152344, 1.587890625) (0.00012238388061523438, 1.58984375) (0.00011636782073974608, 1.591796875) (0.00011022319030761718, 1.59375) (0.00010397549438476562, 1.595703125) (9.765044403076172e-05, 1.59765625) (9.127381896972655e-05, 1.599609375) (8.487124633789062e-05, 1.6015625) (7.846794128417969e-05, 1.603515625) (7.208866882324218e-05, 1.60546875) (6.575755310058594e-05, 1.607421875) (5.949788665771484e-05, 1.609375) (5.333199310302734e-05, 1.611328125) (4.728110885620117e-05, 1.61328125) (4.136527633666992e-05, 1.615234375) (3.560334014892578e-05, 1.6171875) (3.0012874603271482e-05, 1.619140625) (2.4610160827636717e-05, 1.62109375) (1.94101505279541e-05, 1.623046875) (1.4426390647888184e-05, 1.625) (9.671019554138183e-06, 1.626953125) (5.1547126770019525e-06, 1.62890625) (8.866307735443115e-07, 1.630859375) (-3.1256566047668457e-06, 1.6328125) (-6.876248836517334e-06, 1.634765625) (-1.0360965728759765e-05, 1.63671875) (-1.3577360153198242e-05, 1.638671875) (-1.6524696350097657e-05, 1.640625) (-1.9203922271728516e-05, 1.642578125) (-2.1617605209350584e-05, 1.64453125) (-2.376987648010254e-05, 1.646484375) (-2.5666313171386716e-05, 1.6484375) (-2.7313816070556638e-05, 1.650390625) (-2.8720462799072265e-05, 1.65234375) (-2.989538192749023e-05, 1.654296875) (-3.08486328125e-05, 1.65625) (-3.159107208251953e-05, 1.658203125) (-3.213423156738281e-05, 1.66015625) (-3.249012756347656e-05, 1.662109375) (-3.2671134948730467e-05, 1.6640625) (-3.268984222412109e-05, 1.666015625) (-3.255889892578125e-05, 1.66796875) (-3.2290958404541016e-05, 1.669921875) (-3.189849090576172e-05, 1.671875) (-3.1393749237060545e-05, 1.673828125) (-3.0788679122924804e-05, 1.67578125) (-3.009489631652832e-05, 1.677734375) (-2.9323701858520508e-05, 1.6796875) (-2.8486082077026366e-05, 1.681640625) (-2.7592704772949218e-05, 1.68359375) (-2.665389823913574e-05, 1.685546875) (-2.5679626464843748e-05, 1.6875) (-2.4679447174072265e-05, 1.689453125) (-2.366246223449707e-05, 1.69140625) (-2.2637237548828126e-05, 1.693359375) (-2.161171531677246e-05, 1.6953125) (-2.0593109130859373e-05, 1.697265625) (-1.958783721923828e-05, 1.69921875) (-1.860146713256836e-05, 1.701171875) (-1.7638687133789063e-05, 1.703125) (-1.6703327178955077e-05, 1.705078125) (-1.5798341751098632e-05, 1.70703125) (-1.4925847053527831e-05, 1.708984375) (-1.4087169647216796e-05, 1.7109375) (-1.3282928466796875e-05, 1.712890625) (-1.2513113021850585e-05, 1.71484375) (-1.1777165412902831e-05, 1.716796875) (-1.1074061393737793e-05, 1.71875) (-1.0402397155761718e-05, 1.720703125) (-9.760498046875e-06, 1.72265625) (-9.146538734436034e-06, 1.724609375) (-8.558649063110352e-06, 1.7265625) (-7.995007991790771e-06, 1.728515625) (-7.453916549682617e-06, 1.73046875) (-6.93384838104248e-06, 1.732421875) (-6.433496475219727e-06, 1.734375) (-5.951783657073975e-06, 1.736328125) (-5.48784065246582e-06, 1.73828125) (-5.040949344635009e-06, 1.740234375) (-4.610467433929443e-06, 1.7421875) (-4.195753574371338e-06, 1.744140625) (-3.796115398406982e-06, 1.74609375) (-3.4107801914215084e-06, 1.748046875) (-3.0388739109039305e-06, 1.75) (-2.67942214012146e-06, 1.751953125) (-2.3313770294189453e-06, 1.75390625) (-1.9936639070510864e-06, 1.755859375) (-1.6652582883834839e-06, 1.7578125) (-1.3452701568603515e-06, 1.759765625) (-1.0330070257186889e-06, 1.76171875) (-7.280216813087463e-07, 1.763671875) (-4.301492571830749e-07, 1.765625) (-1.395227015018463e-07, 1.767578125) (1.4340922236442565e-07, 1.76953125) (4.178727865219116e-07, 1.771484375) (6.827939748764038e-07, 1.7734375) (9.36843991279602e-07, 1.775390625) (1.17848801612854e-06, 1.77734375) (1.40604829788208e-06, 1.779296875) (1.6177698373794555e-06, 1.78125) (1.811875581741333e-06, 1.783203125) (1.9866669178009032e-06, 1.78515625) (2.140634059906006e-06, 1.787109375) (2.2725400924682614e-06, 1.7890625) (2.38149356842041e-06, 1.791015625) (2.4669904708862305e-06, 1.79296875) (2.5289213657379147e-06, 1.794921875) (2.567575931549072e-06, 1.796875) (2.5836329460144042e-06, 1.798828125) (2.5780887603759766e-06, 1.80078125) (2.5521533489227294e-06, 1.802734375) (2.5071442127227783e-06, 1.8046875) (2.4443721771240234e-06, 1.806640625) (2.365067720413208e-06, 1.80859375) (2.270343780517578e-06, 1.810546875) (2.1611402034759522e-06, 1.8125) (2.0381932258605958e-06, 1.814453125) (1.9020332098007202e-06, 1.81640625) (1.7530031204223631e-06, 1.818359375) (1.5913147926330565e-06, 1.8203125) (1.4171431064605712e-06, 1.822265625) (1.2306767702102661e-06, 1.82421875) (1.0321652889251708e-06, 1.826171875) (8.219716548919677e-07, 1.828125) (6.005632281303405e-07, 1.830078125) (3.685528337955475e-07, 1.83203125) (1.2677422165870666e-07, 1.833984375) (-1.2372291088104248e-07, 1.8359375) (-3.8172370195388794e-07, 1.837890625) (-6.458850502967834e-07, 1.83984375) (-9.148313999176025e-07, 1.841796875) (-1.1872110366821288e-06, 1.84375) (-1.4616434574127197e-06, 1.845703125) (-1.7368030548095703e-06, 1.84765625) (-2.0115683078765866e-06, 1.849609375) (-2.2850794792175292e-06, 1.8515625) (-2.556819438934326e-06, 1.853515625) (-2.8266148567199707e-06, 1.85546875) (-3.0945456027984618e-06, 1.857421875) (-3.3609519004821774e-06, 1.859375) (-3.6264708042144775e-06, 1.861328125) (-3.891964673995971e-06, 1.86328125) (-4.158390998840332e-06, 1.865234375) (-4.4266881942749025e-06, 1.8671875) (-4.697587013244629e-06, 1.869140625) (-4.97155475616455e-06, 1.87109375) (-5.248804092407226e-06, 1.873046875) (-5.529200077056885e-06, 1.875) (-5.812237739562988e-06, 1.876953125) (-6.09699535369873e-06, 1.87890625) (-6.382075786590576e-06, 1.880859375) (-6.6656794548034664e-06, 1.8828125) (-6.94577407836914e-06, 1.884765625) (-7.2201786041259765e-06, 1.88671875) (-7.486642360687255e-06, 1.888671875) (-7.74289894104004e-06, 1.890625) (-7.98649549484253e-06, 1.892578125) (-8.21484375e-06, 1.89453125) (-8.425484657287598e-06, 1.896484375) (-8.61609935760498e-06, 1.8984375) (-8.784382820129395e-06, 1.900390625) (-8.927953720092773e-06, 1.90234375) (-9.044071197509765e-06, 1.904296875) (-9.129641532897948e-06, 1.90625) (-9.181635856628417e-06, 1.908203125) (-9.19709300994873e-06, 1.91015625) (-9.172817230224608e-06, 1.912109375) (-9.105327606201171e-06, 1.9140625) (-8.990749359130859e-06, 1.916015625) (-8.824939727783203e-06, 1.91796875) (-8.603872299194335e-06, 1.919921875) (-8.323620796203612e-06, 1.921875) (-7.980093002319336e-06, 1.923828125) (-7.56903076171875e-06, 1.92578125) (-7.086256980895996e-06, 1.927734375) (-6.52785062789917e-06, 1.9296875) (-5.890496253967285e-06, 1.931640625) (-5.171591758728027e-06, 1.93359375) (-4.36902379989624e-06, 1.935546875) (-3.481260061264038e-06, 1.9375) (-2.507526159286499e-06, 1.939453125) (-1.4480063915252686e-06, 1.94140625) (-3.0407094955444336e-07, 1.943359375) (9.217528104782104e-07, 1.9453125) (2.226269483566284e-06, 1.947265625) (3.6059379577636718e-06, 1.94921875) (5.056833744049072e-06, 1.951171875) (6.574527740478516e-06, 1.953125) (8.15373420715332e-06, 1.955078125) (9.788221359252929e-06, 1.95703125) (1.1471738815307617e-05, 1.958984375) (1.3198268890380859e-05, 1.9609375) (1.4960927963256835e-05, 1.962890625) (1.67515811920166e-05, 1.96484375) (1.8559963226318358e-05, 1.966796875) (2.037356185913086e-05, 1.96875) (2.2179664611816406e-05, 1.970703125) (2.396595001220703e-05, 1.97265625) (2.5719257354736326e-05, 1.974609375) (2.742546463012695e-05, 1.9765625) (2.9070169448852537e-05, 1.978515625) (3.063859558105468e-05, 1.98046875) (3.211826324462891e-05, 1.982421875) (3.349980163574219e-05, 1.984375) (3.4772804260253907e-05, 1.986328125) (3.5925682067871095e-05, 1.98828125) (3.694599151611328e-05, 1.990234375) (3.7819511413574214e-05, 1.9921875) (3.853382110595703e-05, 1.994140625) (3.907926559448242e-05, 1.99609375) (3.944667053222656e-05, 1.998046875) (3.962764739990234e-05, 2.0) (3.961630249023437e-05, 2.001953125) (3.9407966613769526e-05, 2.00390625) (3.900111389160156e-05, 2.005859375) (3.8398742675781246e-05, 2.0078125) (3.7601402282714845e-05, 2.009765625) (3.660829925537109e-05, 2.01171875) (3.541340637207031e-05, 2.013671875) (3.4002006530761714e-05, 2.015625) (3.236394500732422e-05, 2.017578125) (3.049442100524902e-05, 2.01953125) (2.839311981201172e-05, 2.021484375) (2.6068273544311522e-05, 2.0234375) (2.3532594680786132e-05, 2.025390625) (2.0800842285156248e-05, 2.02734375) (1.789778518676758e-05, 2.029296875) (1.485982036590576e-05, 2.03125) (1.17190523147583e-05, 2.033203125) (8.507881164550782e-06, 2.03515625) (5.261723518371581e-06, 2.037109375) (2.0114316940307616e-06, 2.0390625) (-1.2026174068450928e-06, 2.041015625) (-4.338807106018066e-06, 2.04296875) (-7.353188514709472e-06, 2.044921875) (-1.0189848899841308e-05, 2.046875) (-1.2797748565673828e-05, 2.048828125) (-1.5130010604858397e-05, 2.05078125) (-1.7160846710205077e-05, 2.052734375) (-1.8896883010864257e-05, 2.0546875) (-2.0361419677734375e-05, 2.056640625) (-2.1588294982910156e-05, 2.05859375) (-2.2609542846679686e-05, 2.060546875) (-2.3455644607543943e-05, 2.0625) (-2.4165924072265623e-05, 2.064453125) (-2.480693435668945e-05, 2.06640625) (-2.5476497650146482e-05, 2.068359375) (-2.6294944763183592e-05, 2.0703125) (-2.7392604827880858e-05, 2.072265625) (-2.8843830108642576e-05, 2.07421875) (-3.0740888595581055e-05, 2.076171875) (-3.3232578277587887e-05, 2.078125) (-3.635212326049805e-05, 2.080078125) (-4.005250549316406e-05, 2.08203125) (-4.410407257080078e-05, 2.083984375) (-4.7983062744140624e-05, 2.0859375) (-5.11434326171875e-05, 2.087890625) (-5.319113159179687e-05, 2.08984375) (-5.384854125976562e-05, 2.091796875) (-5.2980880737304686e-05, 2.09375) (-5.0837013244628906e-05, 2.095703125) (-4.780973052978515e-05, 2.09765625) (-4.458840942382812e-05, 2.099609375) (-4.2447021484375e-05, 2.1015625) (-4.2632286071777345e-05, 2.103515625) (-4.616461944580078e-05, 2.10546875) (-5.347785949707031e-05, 2.107421875) (-6.402365112304687e-05, 2.109375) (-7.643120574951172e-05, 2.111328125) (-8.91020278930664e-05, 2.11328125) (-9.982443237304687e-05, 2.115234375) (-0.00010538896179199219, 2.1171875) (-0.0001024065933227539, 2.119140625) (-8.735386657714843e-05, 2.12109375) (-5.916271591186523e-05, 2.123046875) (-2.0173208236694335e-05, 2.125) (2.704467964172363e-05, 2.126953125) (8.123048400878905e-05, 2.12890625) (0.00014484938049316406, 2.130859375) (0.0002214281005859375, 2.1328125) (0.0003084615478515625, 2.134765625) (0.0003956737670898437, 2.13671875) (0.00046501324462890623, 2.138671875) (0.0005000191650390625, 2.140625) (0.00049575390625, 2.142578125) (0.0004562948303222656, 2.14453125) (0.0003952631225585937, 2.146484375) (0.000326298828125, 2.1484375) (0.00025320327758789063, 2.150390625) (0.00017999549865722655, 2.15234375) (0.00011012607574462891, 2.154296875) (4.6866012573242186e-05, 2.15625) (4.1852760314941403e-07, 2.158203125) (-2.522869110107422e-05, 2.16015625) (-3.4988700866699215e-05, 2.162109375) (-3.463965606689453e-05, 2.1640625) (-3.375318908691406e-05, 2.166015625) (-3.750320434570312e-05, 2.16796875) (-4.300606918334961e-05, 2.169921875) (-4.8136390686035153e-05, 2.171875) (-5.1299434661865235e-05, 2.173828125) (-5.298957061767578e-05, 2.17578125) (-5.665963363647461e-05, 2.177734375) (-6.355491638183594e-05, 2.1796875) (-7.289611053466797e-05, 2.181640625) (-8.30831069946289e-05, 2.18359375) (-9.195587158203125e-05, 2.185546875) (-9.86356964111328e-05, 2.1875) (-0.00010311061096191406, 2.189453125) (-0.00010516835021972656, 2.19140625) (-0.00010478948211669921, 2.193359375) (-0.0001021546630859375, 2.1953125) (-9.76115493774414e-05, 2.197265625) (-9.198487854003906e-05, 2.19921875) (-8.621363830566406e-05, 2.201171875) (-8.080699157714843e-05, 2.203125) (-7.602001953125e-05, 2.205078125) (-7.199904632568359e-05, 2.20703125) (-6.87440948486328e-05, 2.208984375) (-6.630812072753907e-05, 2.2109375) (-6.475396728515625e-05, 2.212890625) (-6.399861907958984e-05, 2.21484375) (-6.390430068969727e-05, 2.216796875) (-6.435636138916015e-05, 2.21875) (-6.524461364746093e-05, 2.220703125) (-6.650296020507812e-05, 2.22265625) (-6.809556579589843e-05, 2.224609375) (-6.99342041015625e-05, 2.2265625) (-7.190563201904296e-05, 2.228515625) (-7.387638854980469e-05, 2.23046875) (-7.568107604980469e-05, 2.232421875) (-7.720519256591797e-05, 2.234375) (-7.83843994140625e-05, 2.236328125) (-7.91748046875e-05, 2.23828125) (-7.956102752685546e-05, 2.240234375) (-7.952673339843749e-05, 2.2421875) (-7.9051513671875e-05, 2.244140625) (-7.814198303222655e-05, 2.24609375) (-7.683360290527344e-05, 2.248046875) (-7.516844940185546e-05, 2.25) (-7.319103240966796e-05, 2.251953125) (-7.093731689453125e-05, 2.25390625) (-6.84340362548828e-05, 2.255859375) (-6.572423553466796e-05, 2.2578125) (-6.28622589111328e-05, 2.259765625) (-5.991096115112305e-05, 2.26171875) (-5.693911361694336e-05, 2.263671875) (-5.3992431640625e-05, 2.265625) (-5.109666442871094e-05, 2.267578125) (-4.8270545959472656e-05, 2.26953125) (-4.5523345947265624e-05, 2.271484375) (-4.28617935180664e-05, 2.2734375) (-4.029135513305664e-05, 2.275390625) (-3.780504608154297e-05, 2.27734375) (-3.538500213623047e-05, 2.279296875) (-3.301732635498047e-05, 2.28125) (-3.0691255569458006e-05, 2.283203125) (-2.8398555755615232e-05, 2.28515625) (-2.6134536743164062e-05, 2.287109375) (-2.3888023376464842e-05, 2.2890625) (-2.1642623901367185e-05, 2.291015625) (-1.9382030487060547e-05, 2.29296875) (-1.709005355834961e-05, 2.294921875) (-1.4753253936767577e-05, 2.296875) (-1.2360604286193846e-05, 2.298828125) (-9.900450706481934e-06, 2.30078125) (-7.361106872558594e-06, 2.302734375) (-4.732857227325439e-06, 2.3046875) (-2.0073633193969727e-06, 2.306640625) (8.217875361442566e-07, 2.30859375) (3.759562492370605e-06, 2.310546875) (6.813028812408447e-06, 2.3125) (9.990623474121093e-06, 2.314453125) (1.3300536155700683e-05, 2.31640625) (1.675107955932617e-05, 2.318359375) (2.0349699020385742e-05, 2.3203125) (2.4102725982666016e-05, 2.322265625) (2.8016405105590818e-05, 2.32421875) (3.209632110595703e-05, 2.326171875) (3.634592819213867e-05, 2.328125) (4.076676559448242e-05, 2.330078125) (4.535865783691406e-05, 2.33203125) (5.011956405639648e-05, 2.333984375) (5.504630279541015e-05, 2.3359375) (6.0134418487548824e-05, 2.337890625) (6.537757873535156e-05, 2.33984375) (7.076766204833984e-05, 2.341796875) (7.629517364501953e-05, 2.34375) (8.194923400878906e-05, 2.345703125) (8.771765899658202e-05, 2.34765625) (9.358694458007812e-05, 2.349609375) (9.954196166992186e-05, 2.3515625) (0.00010556604003906249, 2.353515625) (0.00011164147949218749, 2.35546875) (0.00011774978637695312, 2.357421875) (0.00012387161254882813, 2.359375) (0.00012998698425292969, 2.361328125) (0.0001360751953125, 2.36328125) (0.00014211514282226563, 2.365234375) (0.00014808544921874998, 2.3671875) (0.00015396493530273436, 2.369140625) (0.00015973228454589842, 2.37109375) (0.0001653662872314453, 2.373046875) (0.00017084567260742186, 2.375) (0.00017614932250976562, 2.376953125) (0.0001812563781738281, 2.37890625) (0.0001861465148925781, 2.380859375) (0.00019079986572265623, 2.3828125) (0.00019519740295410155, 2.384765625) (0.00019932077026367187, 2.38671875) (0.00020315260314941405, 2.388671875) (0.00020667697143554687, 2.390625) (0.00020987945556640624, 2.392578125) (0.00021274725341796874, 2.39453125) (0.0002152691650390625, 2.396484375) (0.0002174357147216797, 2.3984375) (0.00021923912048339844, 2.400390625) (0.00022067340087890625, 2.40234375) (0.00022173454284667968, 2.404296875) (0.0002224203643798828, 2.40625) (0.0002227305908203125, 2.408203125) (0.00022266688537597655, 2.41015625) (0.0002222327880859375, 2.412109375) (0.00022143380737304686, 2.4140625) (0.00022027745056152343, 2.416015625) (0.00021877299499511717, 2.41796875) (0.00021693144226074218, 2.419921875) (0.0002147652893066406, 2.421875) (0.00021228839111328123, 2.423828125) (0.00020951579284667968, 2.42578125) (0.00020646365356445312, 2.427734375) (0.00020314906311035154, 2.4296875) (0.0001995899658203125, 2.431640625) (0.00019580506896972656, 2.43359375) (0.00019181361389160155, 2.435546875) (0.00018763554382324218, 2.4375) (0.00018329132080078123, 2.439453125) (0.00017880183410644532, 2.44140625) (0.0001741883850097656, 2.443359375) (0.00016947238159179686, 2.4453125) (0.00016467518615722655, 2.447265625) (0.0001598180694580078, 2.44921875) (0.00015492193603515623, 2.451171875) (0.00015000730895996093, 2.453125) (0.00014509408569335938, 2.455078125) (0.0001402014465332031, 2.45703125) (0.00013534776306152344, 2.458984375) (0.00013055046081542968, 2.4609375) (0.00012582611846923827, 2.462890625) (0.00012119020843505858, 2.46484375) (0.00011665713500976562, 2.466796875) (0.00011224000549316405, 2.46875) (0.00010795059204101563, 2.470703125) (0.00010379923248291015, 2.47265625) (9.979481506347656e-05, 2.474609375) (9.594466400146484e-05, 2.4765625) (9.225459289550781e-05, 2.478515625) (8.872889709472656e-05, 2.48046875) (8.537036895751953e-05, 2.482421875) (8.218045806884765e-05, 2.484375) (7.915933227539063e-05, 2.486328125) (7.630606842041015e-05, 2.48828125) (7.361864471435547e-05, 2.490234375) (7.109405517578124e-05, 2.4921875) (6.872830963134766e-05, 2.494140625) (6.651654052734375e-05, 2.49609375) (6.445309448242187e-05, 2.498046875) (6.253146362304687e-05, 2.5) (6.074443817138671e-05, 2.501953125) (5.908411407470703e-05, 2.50390625) (5.7541957855224604e-05, 2.505859375) (5.610899353027343e-05, 2.5078125) (5.4775917053222656e-05, 2.509765625) (5.3533241271972654e-05, 2.51171875) (5.2371364593505855e-05, 2.513671875) (5.128067398071289e-05, 2.515625) (5.025160980224609e-05, 2.517578125) (4.927474975585937e-05, 2.51953125) (4.8340824127197266e-05, 2.521484375) (4.7440799713134764e-05, 2.5234375) (4.656584167480469e-05, 2.525390625) (4.570738983154297e-05, 2.52734375) (4.4857181549072265e-05, 2.529296875) (4.400736618041992e-05, 2.53125) (4.315059661865234e-05, 2.533203125) (4.228013610839844e-05, 2.53515625) (4.138986968994141e-05, 2.537109375) (4.0474388122558594e-05, 2.5390625) (3.9528976440429683e-05, 2.541015625) (3.8549667358398435e-05, 2.54296875) (3.75331916809082e-05, 2.544921875) (3.647695922851562e-05, 2.546875) (3.537894821166992e-05, 2.548828125) (3.4237667083740234e-05, 2.55078125) (3.305213165283203e-05, 2.552734375) (3.182182884216308e-05, 2.5546875) (3.054673385620117e-05, 2.556640625) (2.922730255126953e-05, 2.55859375) (2.7864452362060546e-05, 2.560546875) (2.6459564208984375e-05, 2.5625) (2.5014457702636718e-05, 2.564453125) (2.353138542175293e-05, 2.56640625) (2.2012935638427733e-05, 2.568359375) (2.0461963653564453e-05, 2.5703125) (1.888146209716797e-05, 2.572265625) (1.7274490356445313e-05, 2.57421875) (1.5644100189208985e-05, 2.576171875) (1.39932861328125e-05, 2.578125) (1.2324975967407227e-05, 2.580078125) (1.0642013549804686e-05, 2.58203125) (8.947163581848145e-06, 2.583984375) (7.243157386779785e-06, 2.5859375) (5.532718181610107e-06, 2.587890625) (3.818578243255615e-06, 2.58984375) (2.103466033935547e-06, 2.591796875) (3.9006048440933227e-07, 2.59375) (-1.3190598487854003e-06, 2.595703125) (-3.0214600563049316e-06, 2.59765625) (-4.714882373809814e-06, 2.599609375) (-6.397274971008301e-06, 2.6015625) (-8.066804885864258e-06, 2.603515625) (-9.721844673156737e-06, 2.60546875) (-1.1360947608947753e-05, 2.607421875) (-1.2982789039611816e-05, 2.609375) (-1.4586132049560547e-05, 2.611328125) (-1.6169794082641602e-05, 2.61328125) (-1.7732656478881834e-05, 2.615234375) (-1.9273672103881837e-05, 2.6171875) (-2.0791902542114258e-05, 2.619140625) (-2.2286537170410156e-05, 2.62109375) (-2.3756948471069334e-05, 2.623046875) (-2.5202709197998047e-05, 2.625) (-2.6623626708984373e-05, 2.626953125) (-2.801970672607422e-05, 2.62890625) (-2.9391111373901367e-05, 2.630859375) (-3.0738073348999024e-05, 2.6328125) (-3.206085968017578e-05, 2.634765625) (-3.335969161987304e-05, 2.63671875) (-3.463474273681641e-05, 2.638671875) (-3.58860855102539e-05, 2.640625) (-3.711370468139648e-05, 2.642578125) (-3.831751251220703e-05, 2.64453125) (-3.9497398376464844e-05, 2.646484375) (-4.06533203125e-05, 2.6484375) (-4.178531265258789e-05, 2.650390625) (-4.289351272583008e-05, 2.65234375) (-4.3978157043457026e-05, 2.654296875) (-4.503955841064453e-05, 2.65625) (-4.607810211181641e-05, 2.658203125) (-4.709419250488281e-05, 2.66015625) (-4.8088279724121095e-05, 2.662109375) (-4.906082916259765e-05, 2.6640625) (-5.001231384277343e-05, 2.666015625) (-5.094326400756836e-05, 2.66796875) (-5.185431671142578e-05, 2.669921875) (-5.274629211425781e-05, 2.671875) (-5.362019348144531e-05, 2.673828125) (-5.447719955444336e-05, 2.67578125) (-5.531862258911132e-05, 2.677734375) (-5.61458625793457e-05, 2.6796875) (-5.696043014526367e-05, 2.681640625) (-5.776387786865234e-05, 2.68359375) (-5.8557701110839844e-05, 2.685546875) (-5.934330368041992e-05, 2.6875) (-6.012195587158203e-05, 2.689453125) (-6.089484405517578e-05, 2.69140625) (-6.166309356689453e-05, 2.693359375) (-6.242788314819336e-05, 2.6953125) (-6.319033813476563e-05, 2.697265625) (-6.395153045654296e-05, 2.69921875) (-6.471246337890625e-05, 2.701171875) (-6.547414398193358e-05, 2.703125) (-6.623750305175781e-05, 2.705078125) (-6.700341033935547e-05, 2.70703125) (-6.777257537841797e-05, 2.708984375) (-6.854541015625e-05, 2.7109375) (-6.932211303710937e-05, 2.712890625) (-7.010264587402344e-05, 2.71484375) (-7.088677215576172e-05, 2.716796875) (-7.167410278320312e-05, 2.71875) (-7.246398162841797e-05, 2.720703125) (-7.325552368164062e-05, 2.72265625) (-7.404756927490234e-05, 2.724609375) (-7.483872985839844e-05, 2.7265625) (-7.562742614746093e-05, 2.728515625) (-7.641179656982422e-05, 2.73046875) (-7.718960571289062e-05, 2.732421875) (-7.795820617675781e-05, 2.734375) (-7.87145767211914e-05, 2.736328125) (-7.945545959472657e-05, 2.73828125) (-8.017741394042968e-05, 2.740234375) (-8.087690734863281e-05, 2.7421875) (-8.155014038085937e-05, 2.744140625) (-8.219304656982421e-05, 2.74609375) (-8.2801513671875e-05, 2.748046875) (-8.337149047851562e-05, 2.75) (-8.389891815185546e-05, 2.751953125) (-8.437959289550781e-05, 2.75390625) (-8.480911254882812e-05, 2.755859375) (-8.518269348144531e-05, 2.7578125) (-8.549565124511718e-05, 2.759765625) (-8.574360656738281e-05, 2.76171875) (-8.592233276367188e-05, 2.763671875) (-8.602774047851562e-05, 2.765625) (-8.605584716796874e-05, 2.767578125) (-8.60029525756836e-05, 2.76953125) (-8.586575317382812e-05, 2.771484375) (-8.564161682128906e-05, 2.7734375) (-8.532833862304687e-05, 2.775390625) (-8.492391967773437e-05, 2.77734375) (-8.442666625976563e-05, 2.779296875) (-8.383529663085937e-05, 2.78125) (-8.314905548095703e-05, 2.783203125) (-8.236790466308593e-05, 2.78515625) (-8.149258422851562e-05, 2.787109375) (-8.052427673339843e-05, 2.7890625) (-7.94647216796875e-05, 2.791015625) (-7.831651306152343e-05, 2.79296875) (-7.708312988281249e-05, 2.794921875) (-7.576925659179687e-05, 2.796875) (-7.438025665283203e-05, 2.798828125) (-7.29218521118164e-05, 2.80078125) (-7.140013885498047e-05, 2.802734375) (-6.98216552734375e-05, 2.8046875) (-6.819366455078124e-05, 2.806640625) (-6.652449035644531e-05, 2.80859375) (-6.48227310180664e-05, 2.810546875) (-6.309671020507812e-05, 2.8125) (-6.135578155517577e-05, 2.814453125) (-5.96105728149414e-05, 2.81640625) (-5.787327194213867e-05, 2.818359375) (-5.615837860107422e-05, 2.8203125) (-5.448069381713867e-05, 2.822265625) (-5.285429000854492e-05, 2.82421875) (-5.1293785095214844e-05, 2.826171875) (-4.981441497802734e-05, 2.828125) (-4.843077087402344e-05, 2.830078125) (-4.71572036743164e-05, 2.83203125) (-4.600600433349609e-05, 2.833984375) (-4.498582077026367e-05, 2.8359375) (-4.410551452636718e-05, 2.837890625) (-4.337500762939453e-05, 2.83984375) (-4.2804901123046874e-05, 2.841796875) (-4.2407211303710934e-05, 2.84375) (-4.219240188598633e-05, 2.845703125) (-4.216840744018555e-05, 2.84765625) (-4.234257507324219e-05, 2.849609375) (-4.272172546386719e-05, 2.8515625) (-4.331084823608398e-05, 2.853515625) (-4.4113380432128904e-05, 2.85546875) (-4.5128036499023434e-05, 2.857421875) (-4.6348934173583986e-05, 2.859375) (-4.777360534667968e-05, 2.861328125) (-4.940138244628906e-05, 2.86328125) (-5.123684692382812e-05, 2.865234375) (-5.329322052001953e-05, 2.8671875) (-5.55785903930664e-05, 2.869140625) (-5.8095241546630854e-05, 2.87109375) (-6.084220886230469e-05, 2.873046875) (-6.381056213378906e-05, 2.875) (-6.69863052368164e-05, 2.876953125) (-7.03515853881836e-05, 2.87890625) (-7.387496948242188e-05, 2.880859375) (-7.751237487792968e-05, 2.8828125) (-8.122171020507812e-05, 2.884765625) (-8.496270751953125e-05, 2.88671875) (-8.870265960693359e-05, 2.888671875) (-9.241329956054687e-05, 2.890625) (-9.605372619628905e-05, 2.892578125) (-9.95821075439453e-05, 2.89453125) (-0.00010295111083984374, 2.896484375) (-0.00010610328674316405, 2.8984375) (-0.00010899415588378905, 2.900390625) (-0.00011158392333984374, 2.90234375) (-0.0001138444595336914, 2.904296875) (-0.00011578093719482421, 2.90625) (-0.00011741437530517577, 2.908203125) (-0.00011878065490722655, 2.91015625) (-0.00011993917846679687, 2.912109375) (-0.00012095132446289062, 2.9140625) (-0.00012189210510253906, 2.916015625) (-0.0001228618698120117, 2.91796875) (-0.00012394888305664061, 2.919921875) (-0.00012525804138183595, 2.921875) (-0.00012691410827636717, 2.923828125) (-0.0001289910888671875, 2.92578125) (-0.00013160890197753906, 2.927734375) (-0.00013494322204589843, 2.9296875) (-0.00013900668334960938, 2.931640625) (-0.00014371115112304686, 2.93359375) (-0.00014885252380371093, 2.935546875) (-0.00015395639038085938, 2.9375) (-0.00015858227539062498, 2.939453125) (-0.00016241566467285154, 2.94140625) (-0.00016496620178222657, 2.943359375) (-0.000165810791015625, 2.9453125) (-0.00016501785278320313, 2.947265625) (-0.00016290530395507812, 2.94921875) (-0.0001601690979003906, 2.951171875) (-0.00015802481079101562, 2.953125) (-0.00015737205505371094, 2.955078125) (-0.00015890068054199218, 2.95703125) (-0.00016352212524414062, 2.958984375) (-0.0001714884796142578, 2.9609375) (-0.0001819272003173828, 2.962890625) (-0.00019326226806640624, 2.96484375) (-0.00020321124267578123, 2.966796875) (-0.00020896925354003905, 2.96875) (-0.00020794107055664062, 2.970703125) (-0.00019736749267578124, 2.97265625) (-0.00017439715576171875, 2.974609375) (-0.000137338623046875, 2.9765625) (-8.749409484863281e-05, 2.978515625) (-2.8879425048828124e-05, 2.98046875) (3.5828277587890624e-05, 2.982421875) (0.00010426025390625, 2.984375) (0.00017543345642089843, 2.986328125) (0.0002507610473632812, 2.98828125) (0.00032346789550781246, 2.990234375) (0.0003821367492675781, 2.9921875) (0.00041720443725585935, 2.994140625) (0.0004172416076660156, 2.99609375) (0.00038173474121093746, 2.998046875) (0.00032170678710937496, 3.0) (0.00024703746032714844, 3.001953125) (0.0001698335723876953, 3.00390625) (9.762139892578125e-05, 3.005859375) (2.89991340637207e-05, 3.0078125) (-3.568103790283203e-05, 3.009765625) (-9.47532730102539e-05, 3.01171875) (-0.00014580944824218748, 3.013671875) (-0.0001845442352294922, 3.015625) (-0.00020922906494140624, 3.017578125) (-0.00022113296508789062, 3.01953125) (-0.00022301928710937498, 3.021484375) (-0.000217919189453125, 3.0234375) (-0.00020854565429687498, 3.025390625) (-0.00019782601928710936, 3.02734375) (-0.0001882452697753906, 3.029296875) (-0.00018142411804199219, 3.03125) (-0.0001783175048828125, 3.033203125) (-0.00017879989624023436, 3.03515625) (-0.00018192025756835937, 3.037109375) (-0.00018692694091796875, 3.0390625) (-0.00019288468933105469, 3.041015625) (-0.00019839808654785156, 3.04296875) (-0.0002025263214111328, 3.044921875) (-0.00020477458190917968, 3.046875) (-0.0002049417266845703, 3.048828125) (-0.00020341256713867186, 3.05078125) (-0.00020078445434570312, 3.052734375) (-0.00019748873901367188, 3.0546875) (-0.000194072509765625, 3.056640625) (-0.00019118844604492188, 3.05859375) (-0.00018920744323730468, 3.060546875) (-0.00018833297729492187, 3.0625) (-0.00018863922119140625, 3.064453125) (-0.00018996673583984375, 3.06640625) (-0.00019214422607421875, 3.068359375) (-0.0001950388488769531, 3.0703125) (-0.0001984570770263672, 3.072265625) (-0.00020219995117187498, 3.07421875) (-0.00020611315917968748, 3.076171875) (-0.00021005938720703124, 3.078125) (-0.00021392437744140625, 3.080078125) (-0.0002176156311035156, 3.08203125) (-0.00022103666687011718, 3.083984375) (-0.00022410508728027342, 3.0859375) (-0.00022676190185546874, 3.087890625) (-0.00022897003173828125, 3.08984375) (-0.00023071856689453125, 3.091796875) (-0.00023200340270996094, 3.09375) (-0.00023283187866210937, 3.095703125) (-0.00023323348999023438, 3.09765625) (-0.0002332450256347656, 3.099609375) (-0.00023291288757324217, 3.1015625) (-0.00023228649902343749, 3.103515625) (-0.0002314052734375, 3.10546875) (-0.0002303128662109375, 3.107421875) (-0.00022906007385253905, 3.109375) (-0.00022770153808593748, 3.111328125) (-0.00022629777526855468, 3.11328125) (-0.00022489825439453125, 3.115234375) (-0.00022353457641601562, 3.1171875) (-0.0002222312316894531, 3.119140625) (-0.00022100619506835935, 3.12109375) (-0.0002198684844970703, 3.123046875) (-0.00021882450866699218, 3.125) (-0.00021787216186523435, 3.126953125) (-0.0002169978332519531, 3.12890625) (-0.00021619009399414062, 3.130859375) (-0.00021544041442871092, 3.1328125) (-0.00021474066162109373, 3.134765625) (-0.00021408609008789062, 3.13671875) (-0.00021346902465820312, 3.138671875) (-0.00021287640380859374, 3.140625) (-0.00021229412841796875, 3.142578125) (-0.00021170782470703123, 3.14453125) (-0.00021110479736328124, 3.146484375) (-0.00021047434997558594, 3.1484375) (-0.00020980538940429687, 3.150390625) (-0.0002090859375, 3.15234375) (-0.0002083050537109375, 3.154296875) (-0.00020745306396484375, 3.15625) (-0.0002065219268798828, 3.158203125) (-0.00020550491333007811, 3.16015625) (-0.00020439303588867187, 3.162109375) (-0.00020317510986328125, 3.1640625) (-0.00020183947753906248, 3.166015625) (-0.00020037426757812498, 3.16796875) (-0.0001987680969238281, 3.169921875) (-0.00019701034545898438, 3.171875) (-0.00019509037780761717, 3.173828125) (-0.00019299761962890624, 3.17578125) (-0.00019072311401367186, 3.177734375) (-0.00018825985717773437, 3.1796875) (-0.00018560214233398438, 3.181640625) (-0.00018274581909179686, 3.18359375) (-0.00017968759155273436, 3.185546875) (-0.00017642494201660155, 3.1875) (-0.00017295678710937498, 3.189453125) (-0.00016928359985351563, 3.19140625) (-0.00016540727233886718, 3.193359375) (-0.00016133099365234373, 3.1953125) (-0.00015705937194824217, 3.197265625) (-0.0001525982666015625, 3.19921875) (-0.0001479552764892578, 3.201171875) (-0.00014313975524902342, 3.203125) (-0.00013816265869140624, 3.205078125) (-0.0001330362091064453, 3.20703125) (-0.0001277736358642578, 3.208984375) (-0.00012238941955566407, 3.2109375) (-0.00011689921569824218, 3.212890625) (-0.00011131990814208984, 3.21484375) (-0.00010566945648193359, 3.216796875) (-9.996664428710937e-05, 3.21875) (-9.42310333251953e-05, 3.220703125) (-8.848306274414063e-05, 3.22265625) (-8.274407196044922e-05, 3.224609375) (-7.70362548828125e-05, 3.2265625) (-7.138225555419921e-05, 3.228515625) (-6.580499267578125e-05, 3.23046875) (-6.0327522277832026e-05, 3.232421875) (-5.4972824096679686e-05, 3.234375) (-4.976375579833984e-05, 3.236328125) (-4.472280883789062e-05, 3.23828125) (-3.987169647216797e-05, 3.240234375) (-3.52311897277832e-05, 3.2421875) (-3.082109832763672e-05, 3.244140625) (-2.6660146713256834e-05, 3.24609375) (-2.2765916824340818e-05, 3.248046875) (-1.9154748916625977e-05, 3.25) (-1.58415412902832e-05, 3.251953125) (-1.2839566230773925e-05, 3.25390625) (-1.016050910949707e-05, 3.255859375) (-7.814370155334472e-06, 3.2578125) (-5.8093757629394525e-06, 3.259765625) (-4.151956081390381e-06, 3.26171875) (-2.846649646759033e-06, 3.263671875) (-1.8960996866226195e-06, 3.265625) (-1.3011420965194702e-06, 3.267578125) (-1.0608681440353392e-06, 3.26953125) (-1.1726772785186768e-06, 3.271484375) (-1.6322834491729735e-06, 3.2734375) (-2.4336953163146973e-06, 3.275390625) (-3.569223165512085e-06, 3.27734375) (-5.029506683349609e-06, 3.279296875) (-6.803530693054199e-06, 3.28125) (-8.878649711608887e-06, 3.283203125) (-1.1240625381469726e-05, 3.28515625) (-1.3873662948608398e-05, 3.287109375) (-1.6760536193847656e-05, 3.2890625) (-1.9882740020751953e-05, 3.291015625) (-2.322064971923828e-05, 3.29296875) (-2.675364875793457e-05, 3.294921875) (-3.0460311889648436e-05, 3.296875) (-3.431853103637695e-05, 3.298828125) (-3.830570220947266e-05, 3.30078125) (-4.2398891448974605e-05, 3.302734375) (-4.657502746582031e-05, 3.3046875) (-5.0811012268066403e-05, 3.306640625) (-5.508393859863281e-05, 3.30859375) (-5.9371250152587885e-05, 3.310546875) (-6.365094757080078e-05, 3.3125) (-6.790177917480469e-05, 3.314453125) (-7.210340118408203e-05, 3.31640625) (-7.623651123046875e-05, 3.318359375) (-8.02829132080078e-05, 3.3203125) (-8.422569274902343e-05, 3.322265625) (-8.804914855957031e-05, 3.32421875) (-9.173892211914062e-05, 3.326171875) (-9.52818832397461e-05, 3.328125) (-9.866619110107421e-05, 3.330078125) (-0.00010188127136230468, 3.33203125) (-0.0001049178009033203, 3.333984375) (-0.00010776779174804687, 3.3359375) (-0.00011042463684082031, 3.337890625) (-0.00011288308715820312, 3.33984375) (-0.00011513932037353515, 3.341796875) (-0.00011719091796875, 3.34375) (-0.00011903697967529296, 3.345703125) (-0.00012067796325683593, 3.34765625) (-0.00012211570739746093, 3.349609375) (-0.0001233533477783203, 3.3515625) (-0.00012439520263671876, 3.353515625) (-0.0001252467269897461, 3.35546875) (-0.00012591442108154295, 3.357421875) (-0.00012640574645996093, 3.359375) (-0.00012672901916503906, 3.361328125) (-0.00012689335632324217, 3.36328125) (-0.00012690843200683594, 3.365234375) (-0.00012678448486328124, 3.3671875) (-0.00012653204345703124, 3.369140625) (-0.00012616182708740235, 3.37109375) (-0.00012568453979492188, 3.373046875) (-0.0001251106491088867, 3.375) (-0.00012445025634765625, 3.376953125) (-0.00012371295166015625, 3.37890625) (-0.0001229077453613281, 3.380859375) (-0.00012204299163818359, 3.3828125) (-0.00012112638854980468, 3.384765625) (-0.00012016493988037109, 3.38671875) (-0.00011916498565673828, 3.388671875) (-0.00011813223266601562, 3.390625) (-0.00011707178497314453, 3.392578125) (-0.00011598808288574218, 3.39453125) (-0.00011488496398925781, 3.396484375) (-0.00011376560974121094, 3.3984375) (-0.00011263245391845702, 3.400390625) (-0.00011148719787597656, 3.40234375) (-0.00011033081817626953, 3.404296875) (-0.00010916356658935547, 3.40625) (-0.00010798494720458984, 3.408203125) (-0.00010679376220703125, 3.41015625) (-0.00010558811950683594, 3.412109375) (-0.00010436550903320312, 3.4140625) (-0.00010312283325195312, 3.416015625) (-0.00010185643768310547, 3.41796875) (-0.00010056210327148437, 3.419921875) (-9.923514556884765e-05, 3.421875) (-9.78704605102539e-05, 3.423828125) (-9.646254730224608e-05, 3.42578125) (-9.500570678710936e-05, 3.427734375) (-9.349411010742187e-05, 3.4296875) (-9.192199707031249e-05, 3.431640625) (-9.028382873535156e-05, 3.43359375) (-8.8574462890625e-05, 3.435546875) (-8.67892837524414e-05, 3.4375) (-8.492430877685546e-05, 3.439453125) (-8.297630310058593e-05, 3.44140625) (-8.094281005859374e-05, 3.443359375) (-7.882211303710937e-05, 3.4453125) (-7.661323547363281e-05, 3.447265625) (-7.431591796875e-05, 3.44921875) (-7.19305191040039e-05, 3.451171875) (-6.945804595947265e-05, 3.453125) (-6.690010070800781e-05, 3.455078125) (-6.425883483886718e-05, 3.45703125) (-6.153695297241211e-05, 3.458984375) (-5.873770523071289e-05, 3.4609375) (-5.5864871978759766e-05, 3.462890625) (-5.292276382446289e-05, 3.46484375) (-4.9916191101074216e-05, 3.466796875) (-4.685045623779297e-05, 3.46875) (-4.3731292724609375e-05, 3.470703125) (-4.0564849853515625e-05, 3.47265625) (-3.735768127441406e-05, 3.474609375) (-3.4116756439208983e-05, 3.4765625) (-3.084944534301758e-05, 3.478515625) (-2.7563508987426757e-05, 3.48046875) (-2.4267101287841795e-05, 3.482421875) (-2.096872901916504e-05, 3.484375) (-1.767720413208008e-05, 3.486328125) (-1.4401539802551269e-05, 3.48828125) (-1.1150847434997558e-05, 3.490234375) (-7.934170722961425e-06, 3.4921875) (-4.760332107543945e-06, 3.494140625) (-1.6377538442611694e-06, 3.49609375) (1.4256775379180907e-06, 3.498046875) (4.422724246978759e-06, 3.5) (7.346871852874755e-06, 3.501953125) (1.0192373275756835e-05, 3.50390625) (1.2954263687133789e-05, 3.505859375) (1.5628355026245117e-05, 3.5078125) (1.82111873626709e-05, 3.509765625) (2.0699974060058594e-05, 3.51171875) (2.3092554092407226e-05, 3.513671875) (2.5387325286865233e-05, 3.515625) (2.7583232879638672e-05, 3.517578125) (2.967972755432129e-05, 3.51953125) (3.1676721572875974e-05, 3.521484375) (3.357456207275391e-05, 3.5234375) (3.5373981475830074e-05, 3.525390625) (3.707601165771484e-05, 3.52734375) (3.8681976318359374e-05, 3.529296875) (4.0193485260009766e-05, 3.53125) (4.1612415313720705e-05, 3.533203125) (4.2940910339355464e-05, 3.53515625) (4.418140411376953e-05, 3.537109375) (4.5336624145507814e-05, 3.5390625) (4.6409606933593745e-05, 3.541015625) (4.7403839111328124e-05, 3.54296875) (4.832331848144531e-05, 3.544921875) (4.9172477722167966e-05, 3.546875) (4.9956127166748046e-05, 3.548828125) (5.0679355621337886e-05, 3.55078125) (5.134743499755859e-05, 3.552734375) (5.196574020385742e-05, 3.5546875) (5.25396499633789e-05, 3.556640625) (5.307437515258789e-05, 3.55859375) (5.3574798583984374e-05, 3.560546875) (5.4045387268066406e-05, 3.5625) (5.449017333984375e-05, 3.564453125) (5.491284942626953e-05, 3.56640625) (5.5316741943359374e-05, 3.568359375) (5.570484924316406e-05, 3.5703125) (5.6079833984375e-05, 3.572265625) (5.644399261474609e-05, 3.57421875) (5.679937744140625e-05, 3.576171875) (5.714801406860351e-05, 3.578125) (5.7491893768310544e-05, 3.580078125) (5.7832946777343744e-05, 3.58203125) (5.817311096191406e-05, 3.583984375) (5.8514282226562496e-05, 3.5859375) (5.885842514038086e-05, 3.587890625) (5.920783996582031e-05, 3.58984375) (5.956523895263671e-05, 3.591796875) (5.9933593749999996e-05, 3.59375) (6.0316032409667963e-05, 3.595703125) (6.0715858459472654e-05, 3.59765625) (6.113650512695313e-05, 3.599609375) (6.158167266845703e-05, 3.6015625) (6.205537033081055e-05, 3.603515625) (6.25613784790039e-05, 3.60546875) (6.310302734375e-05, 3.607421875) (6.36832275390625e-05, 3.609375) (6.43045654296875e-05, 3.611328125) (6.496961212158203e-05, 3.61328125) (6.568084716796875e-05, 3.615234375) (6.64405517578125e-05, 3.6171875) (6.725063323974609e-05, 3.619140625) (6.811283874511718e-05, 3.62109375) (6.90290298461914e-05, 3.623046875) (7.000143432617187e-05, 3.625) (7.103244018554687e-05, 3.626953125) (7.212415313720703e-05, 3.62890625) (7.327847290039063e-05, 3.630859375) (7.449691772460937e-05, 3.6328125) (7.57809066772461e-05, 3.634765625) (7.713198852539062e-05, 3.63671875) (7.855147552490235e-05, 3.638671875) (8.003982543945311e-05, 3.640625) (8.159666442871094e-05, 3.642578125) (8.3220947265625e-05, 3.64453125) (8.491087341308593e-05, 3.646484375) (8.666427612304687e-05, 3.6484375) (8.847850036621094e-05, 3.650390625) (9.034930419921875e-05, 3.65234375) (9.227075195312499e-05, 3.654296875) (9.423602294921875e-05, 3.65625) (9.623748016357422e-05, 3.658203125) (9.826673889160156e-05, 3.66015625) (0.00010031462097167968, 3.662109375) (0.00010237004089355468, 3.6640625) (0.00010441966247558594, 3.666015625) (0.00010644973754882812, 3.66796875) (0.00010844652557373046, 3.669921875) (0.00011039616394042968, 3.671875) (0.0001122845458984375, 3.673828125) (0.00011409688568115233, 3.67578125) (0.00011581834411621093, 3.677734375) (0.00011743544006347656, 3.6796875) (0.00011893658447265624, 3.681640625) (0.00012031103515624999, 3.68359375) (0.00012154812622070312, 3.685546875) (0.00012263571166992187, 3.6875) (0.00012356124114990233, 3.689453125) (0.00012431263732910156, 3.69140625) (0.0001248772735595703, 3.693359375) (0.0001252433395385742, 3.6953125) (0.00012539952087402343, 3.697265625) (0.0001253340072631836, 3.69921875) (0.00012503761291503905, 3.701171875) (0.00012450651550292968, 3.703125) (0.00012374011993408204, 3.705078125) (0.00012273821258544922, 3.70703125) (0.00012150024414062499, 3.708984375) (0.00012002081298828125, 3.7109375) (0.00011829216766357421, 3.712890625) (0.00011631093597412109, 3.71484375) (0.00011407543182373047, 3.716796875) (0.00011158602905273437, 3.71875) (0.00010884555053710937, 3.720703125) (0.00010586278533935546, 3.72265625) (0.00010265850830078125, 3.724609375) (9.926557922363281e-05, 3.7265625) (9.572662353515624e-05, 3.728515625) (9.208352661132812e-05, 3.73046875) (8.836936950683593e-05, 3.732421875) (8.460824584960937e-05, 3.734375) (8.082283020019531e-05, 3.736328125) (7.704183959960937e-05, 3.73828125) (7.329933166503906e-05, 3.740234375) (6.963404846191407e-05, 3.7421875) (6.607867431640625e-05, 3.744140625) (6.26581916809082e-05, 3.74609375) (5.940345764160156e-05, 3.748046875) (5.6351287841796876e-05, 3.75) (5.3535758972167966e-05, 3.751953125) (5.095884704589844e-05, 3.75390625) (4.857445526123047e-05, 3.755859375) (4.6312992095947264e-05, 3.7578125) (4.409402465820312e-05, 3.759765625) (4.18624038696289e-05, 3.76171875) (3.961060333251953e-05, 3.763671875) (3.731491088867187e-05, 3.765625) (3.491883850097656e-05, 3.767578125) (3.237787628173828e-05, 3.76953125) (2.963297653198242e-05, 3.771484375) (2.663129425048828e-05, 3.7734375) (2.338856506347656e-05, 3.775390625) (1.985150909423828e-05, 3.77734375) (1.5871069908142088e-05, 3.779296875) (1.1427292823791503e-05, 3.78125) (6.620946884155273e-06, 3.783203125) (1.7000476121902465e-06, 3.78515625) (-2.816825866699219e-06, 3.787109375) (-6.419541358947753e-06, 3.7890625) (-8.726852416992187e-06, 3.791015625) (-9.278995513916016e-06, 3.79296875) (-7.763740539550781e-06, 3.794921875) (-4.260896205902099e-06, 3.796875) (8.766558170318603e-07, 3.798828125) (6.863129138946533e-06, 3.80078125) (1.2619236946105957e-05, 3.802734375) (1.6890384674072265e-05, 3.8046875) (1.8199024200439453e-05, 3.806640625) (1.561059761047363e-05, 3.80859375) (8.932525634765625e-06, 3.810546875) (-1.982283592224121e-07, 3.8125) (-8.236122131347655e-06, 3.814453125) (-1.3077348709106445e-05, 3.81640625) (-1.353091812133789e-05, 3.818359375) (-1.0001405715942382e-05, 3.8203125) (-4.868422508239746e-06, 3.822265625) (4.2845726013183595e-06, 3.82421875) (2.204066467285156e-05, 3.826171875) (5.4023448944091796e-05, 3.828125) (0.00010806668853759766, 3.830078125) (0.00018521229553222657, 3.83203125) (0.00028204522705078125, 3.833984375) (0.00038977032470703123, 3.8359375) (0.0004918114624023437, 3.837890625) (0.0005719033203125, 3.83984375) (0.000615008544921875, 3.841796875) (0.0006136867065429687, 3.84375) (0.0005701271362304688, 3.845703125) (0.0004920878295898438, 3.84765625) (0.0003927902221679687, 3.849609375) (0.0002840009765625, 3.8515625) (0.00017759762573242186, 3.853515625) (8.722256469726562e-05, 3.85546875) (2.1510448455810544e-05, 3.857421875) (-1.4837316513061522e-05, 3.859375) (-2.467032241821289e-05, 3.861328125) (-2.0781307220458983e-05, 3.86328125) (-1.4360450744628906e-05, 3.865234375) (-1.1777018547058104e-05, 3.8671875) (-1.4478928565979004e-05, 3.869140625) (-1.6869606018066405e-05, 3.87109375) (-1.5313871383666992e-05, 3.873046875) (-1.0814017295837402e-05, 3.875) (-5.4709582328796385e-06, 3.876953125) (-2.8894109725952145e-06, 3.87890625) (-4.895582199096679e-06, 3.880859375) (-1.0318998336791992e-05, 3.8828125) (-1.7597328186035156e-05, 3.884765625) (-2.5255676269531248e-05, 3.88671875) (-3.185614776611328e-05, 3.888671875) (-3.667989349365234e-05, 3.890625) (-3.9513366699218746e-05, 3.892578125) (-4.01644172668457e-05, 3.89453125) (-3.885810089111328e-05, 3.896484375) (-3.619680023193359e-05, 3.8984375) (-3.269068145751953e-05, 3.900390625) (-2.8896339416503905e-05, 3.90234375) (-2.5465364456176756e-05, 3.904296875) (-2.274834632873535e-05, 3.90625) (-2.089760589599609e-05, 3.908203125) (-2.0022628784179688e-05, 3.91015625) (-2.00316047668457e-05, 3.912109375) (-2.0798171997070313e-05, 3.9140625) (-2.2252559661865232e-05, 3.916015625) (-2.4238857269287107e-05, 3.91796875) (-2.6582088470458983e-05, 3.919921875) (-2.917003631591797e-05, 3.921875) (-3.1882789611816406e-05, 3.923828125) (-3.462707901000976e-05, 3.92578125) (-3.7337585449218745e-05, 3.927734375) (-3.9895355224609374e-05, 3.9296875) (-4.218758773803711e-05, 3.931640625) (-4.4136623382568356e-05, 3.93359375) (-4.567529296875e-05, 3.935546875) (-4.677904891967773e-05, 3.9375) (-4.7445636749267575e-05, 3.939453125) (-4.7662807464599604e-05, 3.94140625) (-4.743460845947265e-05, 3.943359375) (-4.6785011291503906e-05, 3.9453125) (-4.5741550445556636e-05, 3.947265625) (-4.434531784057617e-05, 3.94921875) (-4.2636795043945314e-05, 3.951171875) (-4.064419555664062e-05, 3.953125) (-3.840742492675781e-05, 3.955078125) (-3.5973419189453124e-05, 3.95703125) (-3.3394336700439454e-05, 3.958984375) (-3.073471832275391e-05, 3.9609375) (-2.804508018493652e-05, 3.962890625) (-2.5358831405639647e-05, 3.96484375) (-2.2704612731933593e-05, 3.966796875) (-2.009910774230957e-05, 3.96875) (-1.7551246643066405e-05, 3.970703125) (-1.5069935798645018e-05, 3.97265625) (-1.26544189453125e-05, 3.974609375) (-1.0294153213500977e-05, 3.9765625) (-7.98214817047119e-06, 3.978515625) (-5.713225841522217e-06, 3.98046875) (-3.483520746231079e-06, 3.982421875) (-1.2937772274017334e-06, 3.984375) (8.592913746833801e-07, 3.986328125) (2.9840707778930664e-06, 3.98828125) (5.089986801147461e-06, 3.990234375) (7.18787956237793e-06, 3.9921875) (9.28684139251709e-06, 3.994140625) (1.1393878936767578e-05, 3.99609375) (1.3516980171203612e-05, 3.998046875) (1.5664625167846677e-05, 4.0) (1.7844228744506833e-05, 4.001953125) (2.006254196166992e-05, 4.00390625) (2.2324630737304686e-05, 4.005859375) (2.4634273529052732e-05, 4.0078125) (2.699795913696289e-05, 4.009765625) (2.9424358367919922e-05, 4.01171875) (3.192257499694824e-05, 4.013671875) (3.45023078918457e-05, 4.015625) (3.7172695159912106e-05, 4.017578125) (3.994203948974609e-05, 4.01953125) (4.281893157958984e-05, 4.021484375) (4.581186294555664e-05, 4.0234375) (4.892759704589843e-05, 4.025390625) (5.217119979858398e-05, 4.02734375) (5.554635620117187e-05, 4.029296875) (5.905533981323242e-05, 4.03125) (6.269976806640624e-05, 4.033203125) (6.648068237304688e-05, 4.03515625) (7.039801025390624e-05, 4.037109375) (7.445040893554688e-05, 4.0390625) (7.863549804687499e-05, 4.041015625) (8.294996643066406e-05, 4.04296875) (8.738961029052734e-05, 4.044921875) (9.194930267333984e-05, 4.046875) (9.662265014648438e-05, 4.048828125) (0.00010140179443359374, 4.05078125) (0.00010627754211425781, 4.052734375) (0.0001112396011352539, 4.0546875) (0.00011627674102783203, 4.056640625) (0.00012137662506103516, 4.05859375) (0.00012652568054199217, 4.060546875) (0.00013170904541015625, 4.0625) (0.00013691070556640623, 4.064453125) (0.00014211366271972656, 4.06640625) (0.0001473000030517578, 4.068359375) (0.00015245091247558594, 4.0703125) (0.0001575465393066406, 4.072265625) (0.00016256613159179687, 4.07421875) (0.00016748840332031248, 4.076171875) (0.00017229179382324217, 4.078125) (0.00017695472717285156, 4.080078125) (0.00018145570373535156, 4.08203125) (0.0001857735595703125, 4.083984375) (0.0001898875274658203, 4.0859375) (0.0001937777099609375, 4.087890625) (0.00019742526245117187, 4.08984375) (0.00020081248474121093, 4.091796875) (0.00020392266845703125, 4.09375) (0.00020674034118652344, 4.095703125) (0.00020925099182128904, 4.09765625) (0.00021144158935546874, 4.099609375) (0.00021330026245117186, 4.1015625) (0.00021481655883789062, 4.103515625) (0.0002159814453125, 4.10546875) (0.0002167872619628906, 4.107421875) (0.00021722772216796875, 4.109375) (0.0002172981719970703, 4.111328125) (0.00021699554443359374, 4.11328125) (0.00021631835937499999, 4.115234375) (0.00021526678466796874, 4.1171875) (0.00021384248352050782, 4.119140625) (0.00021204885864257813, 4.12109375) (0.00020989096069335938, 4.123046875) (0.0002073756103515625, 4.125) (0.00020451145935058594, 4.126953125) (0.0002013090362548828, 4.12890625) (0.00019778057861328125, 4.130859375) (0.00019394020080566407, 4.1328125) (0.00018980369567871093, 4.134765625) (0.00018538851928710936, 4.13671875) (0.0001807135772705078, 4.138671875) (0.00017579911804199217, 4.140625) (0.00017066642761230468, 4.142578125) (0.00016533766174316406, 4.14453125) (0.00015983563232421875, 4.146484375) (0.0001541837158203125, 4.1484375) (0.000148405517578125, 4.150390625) (0.00014252488708496093, 4.15234375) (0.0001365656280517578, 4.154296875) (0.00013055145263671873, 4.15625) (0.00012450579071044923, 4.158203125) (0.00011845175170898437, 4.16015625) (0.00011241197204589844, 4.162109375) (0.00010640849304199218, 4.1640625) (0.000100462646484375, 4.166015625) (9.459497833251953e-05, 4.16796875) (8.88251495361328e-05, 4.169921875) (8.3171875e-05, 4.171875) (7.765292358398438e-05, 4.173828125) (7.228504943847656e-05, 4.17578125) (6.708392333984375e-05, 4.177734375) (6.206411361694336e-05, 4.1796875) (5.7239006042480466e-05, 4.181640625) (5.2620719909667965e-05, 4.18359375) (4.8220069885253904e-05, 4.185546875) (4.404639434814453e-05, 4.1875) (4.010749816894531e-05, 4.189453125) (3.64095344543457e-05, 4.19140625) (3.295694732666015e-05, 4.193359375) (2.9752487182617188e-05, 4.1953125) (2.6797218322753906e-05, 4.197265625) (2.4090555191040038e-05, 4.19921875) (2.1630321502685546e-05, 4.201171875) (1.941286277770996e-05, 4.203125) (1.7433151245117186e-05, 4.205078125) (1.5684919357299803e-05, 4.20703125) (1.4160785675048827e-05, 4.208984375) (1.28523588180542e-05, 4.2109375) (1.175033950805664e-05, 4.212890625) (1.0844626426696776e-05, 4.21484375) (1.0124445915222168e-05, 4.216796875) (9.57846450805664e-06, 4.21875) (9.194920539855956e-06, 4.220703125) (8.961731910705567e-06, 4.22265625) (8.866607666015625e-06, 4.224609375) (8.897153854370116e-06, 4.2265625) (9.040985107421875e-06, 4.228515625) (9.28581428527832e-06, 4.23046875) (9.619523048400878e-06, 4.232421875) (1.0030202865600585e-05, 4.234375) (1.0506181716918945e-05, 4.236328125) (1.1036061286926269e-05, 4.23828125) (1.160874843597412e-05, 4.240234375) (1.2213521003723143e-05, 4.2421875) (1.2840086936950683e-05, 4.244140625) (1.3478643417358398e-05, 4.24609375) (1.411996841430664e-05, 4.248046875) (1.4755505561828612e-05, 4.25) (1.5377458572387696e-05, 4.251953125) (1.597888946533203e-05, 4.25390625) (1.655375862121582e-05, 4.255859375) (1.709696578979492e-05, 4.2578125) (1.7604339599609375e-05, 4.259765625) (1.807261848449707e-05, 4.26171875) (1.8499454498291016e-05, 4.263671875) (1.888334274291992e-05, 4.265625) (1.9223604202270507e-05, 4.267578125) (1.9520301818847654e-05, 4.26953125) (1.9774187088012695e-05, 4.271484375) (1.9986671447753905e-05, 4.2734375) (2.0159755706787107e-05, 4.275390625) (2.029598236083984e-05, 4.27734375) (2.0398366928100585e-05, 4.279296875) (2.0470312118530273e-05, 4.28125) (2.051551628112793e-05, 4.283203125) (2.0537900924682618e-05, 4.28515625) (2.0541530609130857e-05, 4.287109375) (2.0530540466308594e-05, 4.2890625) (2.050908088684082e-05, 4.291015625) (2.0481229782104493e-05, 4.29296875) (2.045096206665039e-05, 4.294921875) (2.0422130584716795e-05, 4.296875) (2.0398441314697263e-05, 4.298828125) (2.038343811035156e-05, 4.30078125) (2.0380474090576172e-05, 4.302734375) (2.0392669677734375e-05, 4.3046875) (2.042287063598633e-05, 4.306640625) (2.0473621368408202e-05, 4.30859375) (2.05471134185791e-05, 4.310546875) (2.0645160675048827e-05, 4.3125) (2.0769147872924802e-05, 4.314453125) (2.0920001983642576e-05, 4.31640625) (2.109817123413086e-05, 4.318359375) (2.1303632736206053e-05, 4.3203125) (2.153593063354492e-05, 4.322265625) (2.179419708251953e-05, 4.32421875) (2.2077159881591797e-05, 4.326171875) (2.2383174896240234e-05, 4.328125) (2.2710243225097656e-05, 4.330078125) (2.3056056976318358e-05, 4.33203125) (2.341802978515625e-05, 4.333984375) (2.3793344497680664e-05, 4.3359375) (2.4178953170776365e-05, 4.337890625) (2.4571620941162108e-05, 4.33984375) (2.496794891357422e-05, 4.341796875) (2.5364467620849608e-05, 4.34375) (2.5757646560668944e-05, 4.345703125) (2.614398193359375e-05, 4.34765625) (2.651999282836914e-05, 4.349609375) (2.6882263183593748e-05, 4.3515625) (2.722745895385742e-05, 4.353515625) (2.7552391052246093e-05, 4.35546875) (2.7854042053222654e-05, 4.357421875) (2.8129570007324216e-05, 4.359375) (2.8376338958740234e-05, 4.361328125) (2.8591922760009765e-05, 4.36328125) (2.8774131774902343e-05, 4.365234375) (2.892109107971191e-05, 4.3671875) (2.9031240463256834e-05, 4.369140625) (2.9103385925292966e-05, 4.37109375) (2.913666534423828e-05, 4.373046875) (2.9130525588989256e-05, 4.375) (2.9084682464599608e-05, 4.376953125) (2.899917221069336e-05, 4.37890625) (2.8874311447143552e-05, 4.380859375) (2.8710647583007812e-05, 4.3828125) (2.8508899688720702e-05, 4.384765625) (2.8269880294799802e-05, 4.38671875) (2.7994489669799805e-05, 4.388671875) (2.768379020690918e-05, 4.390625) (2.733901023864746e-05, 4.392578125) (2.696148681640625e-05, 4.39453125) (2.65526123046875e-05, 4.396484375) (2.6113788604736328e-05, 4.3984375) (2.5646453857421875e-05, 4.400390625) (2.5152095794677735e-05, 4.40234375) (2.4632261276245116e-05, 4.404296875) (2.408852005004883e-05, 4.40625) (2.3522392272949217e-05, 4.408203125) (2.293538475036621e-05, 4.41015625) (2.2329055786132813e-05, 4.412109375) (2.1705074310302733e-05, 4.4140625) (2.106523895263672e-05, 4.416015625) (2.0411495208740234e-05, 4.41796875) (1.9745876312255858e-05, 4.419921875) (1.9070426940917968e-05, 4.421875) (1.8387250900268554e-05, 4.423828125) (1.7698524475097655e-05, 4.42578125) (1.7006467819213865e-05, 4.427734375) (1.6313251495361328e-05, 4.4296875) (1.5620910644531248e-05, 4.431640625) (1.4931323051452635e-05, 4.43359375) (1.4246252059936522e-05, 4.435546875) (1.3567591667175292e-05, 4.4375) (1.28974552154541e-05, 4.439453125) (1.2238056182861327e-05, 4.44140625) (1.1591669082641601e-05, 4.443359375) (1.0960811614990233e-05, 4.4453125) (1.0348333358764648e-05, 4.447265625) (9.757564544677734e-06, 4.44921875) (9.192384719848633e-06, 4.451171875) (8.656814575195312e-06, 4.453125) (8.15484619140625e-06, 4.455078125) (7.690644264221192e-06, 4.45703125) (7.268652439117431e-06, 4.458984375) (6.893614768981934e-06, 4.4609375) (6.570491313934326e-06, 4.462890625) (6.30431318283081e-06, 4.46484375) (6.099987030029297e-06, 4.466796875) (5.962412357330322e-06, 4.46875) (5.8966646194458005e-06, 4.470703125) (5.907805919647217e-06, 4.47265625) (6.0006418228149415e-06, 4.474609375) (6.179543495178222e-06, 4.4765625) (6.4482727050781245e-06, 4.478515625) (6.80986213684082e-06, 4.48046875) (7.266885757446289e-06, 4.482421875) (7.821571350097656e-06, 4.484375) (8.475540161132812e-06, 4.486328125) (9.229728698730469e-06, 4.48828125) (1.008427619934082e-05, 4.490234375) (1.103868293762207e-05, 4.4921875) (1.2092113494873046e-05, 4.494140625) (1.3243486404418945e-05, 4.49609375) (1.449126625061035e-05, 4.498046875) (1.583285903930664e-05, 4.5) (1.7264286041259766e-05, 4.501953125) (1.8780807495117186e-05, 4.50390625) (2.037726593017578e-05, 4.505859375) (2.204737854003906e-05, 4.5078125) (2.378353500366211e-05, 4.509765625) (2.557616424560547e-05, 4.51171875) (2.7413314819335938e-05, 4.513671875) (2.9282047271728515e-05, 4.515625) (3.1169250488281246e-05, 4.517578125) (3.306069564819336e-05, 4.51953125) (3.494072723388672e-05, 4.521484375) (3.679339599609375e-05, 4.5234375) (3.8602436065673825e-05, 4.525390625) (4.03523063659668e-05, 4.52734375) (4.2029418945312497e-05, 4.529296875) (4.362020111083984e-05, 4.53125) (4.5110534667968746e-05, 4.533203125) (4.6485748291015624e-05, 4.53515625) (4.773075103759765e-05, 4.537109375) (4.883015823364258e-05, 4.5390625) (4.976856231689453e-05, 4.541015625) (5.053131484985351e-05, 4.54296875) (5.110393905639648e-05, 4.544921875) (5.1473808288574215e-05, 4.546875) (5.1630279541015626e-05, 4.548828125) (5.1566753387451166e-05, 4.55078125) (5.128125762939453e-05, 4.552734375) (5.077047729492187e-05, 4.5546875) (5.003082275390625e-05, 4.556640625) (4.9055381774902345e-05, 4.55859375) (4.783192443847656e-05, 4.560546875) (4.635066223144531e-05, 4.5625) (4.460446548461914e-05, 4.564453125) (4.258791351318359e-05, 4.56640625) (4.029924011230469e-05, 4.568359375) (3.7747108459472655e-05, 4.5703125) (3.495113372802734e-05, 4.572265625) (3.1943613052368163e-05, 4.57421875) (2.8770372390747068e-05, 4.576171875) (2.5473777770996094e-05, 4.578125) (2.209317207336426e-05, 4.580078125) (1.8662269592285157e-05, 4.58203125) (1.5207314491271971e-05, 4.583984375) (1.176269245147705e-05, 4.5859375) (8.361929893493653e-06, 4.587890625) (5.039792537689209e-06, 4.58984375) (1.836726665496826e-06, 4.591796875) (-1.2110036611557007e-06, 4.59375) (-4.066025733947753e-06, 4.595703125) (-6.691256523132324e-06, 4.59765625) (-9.06122875213623e-06, 4.599609375) (-1.1185699462890625e-05, 4.6015625) (-1.3107786178588867e-05, 4.603515625) (-1.4899948120117187e-05, 4.60546875) (-1.6662206649780273e-05, 4.607421875) (-1.8470262527465818e-05, 4.609375) (-2.0381042480468748e-05, 4.611328125) (-2.2449615478515624e-05, 4.61328125) (-2.4724660873413085e-05, 4.615234375) (-2.7282836914062497e-05, 4.6171875) (-3.0203739166259764e-05, 4.619140625) (-3.354868698120117e-05, 4.62109375) (-3.7348880767822264e-05, 4.623046875) (-4.163765335083008e-05, 4.625) (-4.6500175476074215e-05, 4.626953125) (-5.195540618896484e-05, 4.62890625) (-5.789014434814453e-05, 4.630859375) (-6.397480010986327e-05, 4.6328125) (-6.964213562011718e-05, 4.634765625) (-7.426989746093749e-05, 4.63671875) (-7.735943603515624e-05, 4.638671875) (-7.861546325683593e-05, 4.640625) (-7.779836273193359e-05, 4.642578125) (-7.491046142578125e-05, 4.64453125) (-7.031828308105469e-05, 4.646484375) (-6.475982666015624e-05, 4.6484375) (-5.955671691894531e-05, 4.650390625) (-5.617987823486328e-05, 4.65234375) (-5.563589477539062e-05, 4.654296875) (-5.8143882751464844e-05, 4.65625) (-6.325428009033203e-05, 4.658203125) (-6.999732971191406e-05, 4.66015625) (-7.697042846679688e-05, 4.662109375) (-8.197129821777344e-05, 4.6640625) (-8.165679168701172e-05, 4.666015625) (-7.261581420898437e-05, 4.66796875) (-5.1923458099365235e-05, 4.669921875) (-1.9396976470947264e-05, 4.671875) (2.1910072326660156e-05, 4.673828125) (7.089366149902343e-05, 4.67578125) (0.0001272689971923828, 4.677734375) (0.00019138165283203123, 4.6796875) (0.0002658756103515625, 4.681640625) (0.00034438708496093746, 4.68359375) (0.0004136824951171875, 4.685546875) (0.0004620418701171875, 4.6875) (0.00047603280639648435, 4.689453125) (0.0004536607666015625, 4.69140625) (0.0004054793090820312, 4.693359375) (0.00034130377197265626, 4.6953125) (0.000273307373046875, 4.697265625) (0.0002080845031738281, 4.69921875) (0.0001433827667236328, 4.701171875) (7.926348876953124e-05, 4.703125) (1.664699363708496e-05, 4.705078125) (-4.146323013305664e-05, 4.70703125) (-8.865995025634766e-05, 4.708984375) (-0.00012192213439941406, 4.7109375) (-0.00014126171875, 4.712890625) (-0.0001479530487060547, 4.71484375) (-0.00014505422973632812, 4.716796875) (-0.00013515597534179686, 4.71875) (-0.00012040261840820312, 4.720703125) (-0.00010396060180664061, 4.72265625) (-8.877696990966797e-05, 4.724609375) (-7.663507080078124e-05, 4.7265625) (-6.857048797607421e-05, 4.728515625) (-6.465762329101562e-05, 4.73046875) (-6.417823028564452e-05, 4.732421875) (-6.656436157226563e-05, 4.734375) (-7.101789093017577e-05, 4.736328125) (-7.609368896484374e-05, 4.73828125) (-8.065380096435547e-05, 4.740234375) (-8.407435607910156e-05, 4.7421875) (-8.60261993408203e-05, 4.744140625) (-8.670818328857422e-05, 4.74609375) (-8.654986572265624e-05, 4.748046875) (-8.582679748535156e-05, 4.75) (-8.495265960693359e-05, 4.751953125) (-8.452091979980468e-05, 4.75390625) (-8.485908508300781e-05, 4.755859375) (-8.609037780761718e-05, 4.7578125) (-8.820631408691406e-05, 4.759765625) (-9.097308349609374e-05, 4.76171875) (-9.414238739013671e-05, 4.763671875) (-9.751080322265624e-05, 4.765625) (-0.00010079189300537108, 4.767578125) (-0.00010365798950195313, 4.76953125) (-0.00010588085937499999, 4.771484375) (-0.00010732916259765625, 4.7734375) (-0.00010794850158691406, 4.775390625) (-0.00010776356506347655, 4.77734375) (-0.00010680010986328124, 4.779296875) (-0.00010507523345947265, 4.78125) (-0.00010264622497558594, 4.783203125) (-9.960743713378906e-05, 4.78515625) (-9.605976867675781e-05, 4.787109375) (-9.210263824462891e-05, 4.7890625) (-8.781999969482422e-05, 4.791015625) (-8.327752685546875e-05, 4.79296875) (-7.857170104980468e-05, 4.794921875) (-7.383522033691407e-05, 4.796875) (-6.922987365722656e-05, 4.798828125) (-6.494795227050781e-05, 4.80078125) (-6.114241027832032e-05, 4.802734375) (-5.7903255462646484e-05, 4.8046875) (-5.529116821289062e-05, 4.806640625) (-5.333440399169922e-05, 4.80859375) (-5.2025749206542967e-05, 4.810546875) (-5.1338199615478513e-05, 4.8125) (-5.1197738647460936e-05, 4.814453125) (-5.147949981689453e-05, 4.81640625) (-5.207793045043945e-05, 4.818359375) (-5.291202163696289e-05, 4.8203125) (-5.3920227050781244e-05, 4.822265625) (-5.507013702392578e-05, 4.82421875) (-5.63079605102539e-05, 4.826171875) (-5.755490112304687e-05, 4.828125) (-5.872057723999023e-05, 4.830078125) (-5.969600677490234e-05, 4.83203125) (-6.039214324951171e-05, 4.833984375) (-6.075196838378906e-05, 4.8359375) (-6.072562789916992e-05, 4.837890625) (-6.027674484252929e-05, 4.83984375) (-5.939888381958007e-05, 4.841796875) (-5.8103385925292966e-05, 4.84375) (-5.643958282470703e-05, 4.845703125) (-5.449799346923828e-05, 4.84765625) (-5.234409713745117e-05, 4.849609375) (-5.0017459869384766e-05, 4.8515625) (-4.7543685913085934e-05, 4.853515625) (-4.4923675537109375e-05, 4.85546875) (-4.2166587829589843e-05, 4.857421875) (-3.9293727874755855e-05, 4.859375) (-3.6321475982666015e-05, 4.861328125) (-3.326665878295898e-05, 4.86328125) (-3.014418029785156e-05, 4.865234375) (-2.696174430847168e-05, 4.8671875) (-2.373095703125e-05, 4.869140625) (-2.0466121673583982e-05, 4.87109375) (-1.716597366333008e-05, 4.873046875) (-1.3818921089172362e-05, 4.875) (-1.039767551422119e-05, 4.876953125) (-6.856441974639892e-06, 4.87890625) (-3.164186954498291e-06, 4.880859375) (6.949241161346435e-07, 4.8828125) (4.731210708618164e-06, 4.884765625) (8.94349193572998e-06, 4.88671875) (1.3328766822814941e-05, 4.888671875) (1.7885059356689454e-05, 4.890625) (2.2600952148437497e-05, 4.892578125) (2.7457275390625e-05, 4.89453125) (3.243746948242187e-05, 4.896484375) (3.75254898071289e-05, 4.8984375) (4.270678329467773e-05, 4.900390625) (4.797003936767578e-05, 4.90234375) (5.3297828674316404e-05, 4.904296875) (5.866751480102539e-05, 4.90625) (6.405361938476562e-05, 4.908203125) (6.94263687133789e-05, 4.91015625) (7.475783538818359e-05, 4.912109375) (8.00228271484375e-05, 4.9140625) (8.519560241699219e-05, 4.916015625) (9.025122070312499e-05, 4.91796875) (9.516644287109375e-05, 4.919921875) (9.991879272460937e-05, 4.921875) (0.0001044889907836914, 4.923828125) (0.00010886132812499999, 4.92578125) (0.00011301881408691406, 4.927734375) (0.00011694367980957031, 4.9296875) (0.00012061878967285155, 4.931640625) (0.00012402674865722655, 4.93359375) (0.00012715165710449217, 4.935546875) (0.00012997947692871094, 4.9375) (0.00013249627685546874, 4.939453125) (0.00013468861389160156, 4.94140625) (0.000136544921875, 4.943359375) (0.00013805535888671876, 4.9453125) (0.00013921173095703124, 4.947265625) (0.00014000799560546874, 4.94921875) (0.0001404392547607422, 4.951171875) (0.00014050192260742187, 4.953125) (0.0001401943359375, 4.955078125) (0.00013951664733886717, 4.95703125) (0.00013847064208984374, 4.958984375) (0.00013705987548828124, 4.9609375) (0.00013528935241699218, 4.962890625) (0.00013316557312011718, 4.96484375) (0.00013069674682617187, 4.966796875) (0.0001278927459716797, 4.96875) (0.00012476502227783202, 4.970703125) (0.00012132692718505859, 4.97265625) (0.0001175933837890625, 4.974609375) (0.00011358065795898437, 4.9765625) (0.00010930662536621094, 4.978515625) (0.00010479053497314452, 4.98046875) (0.0001000526123046875, 4.982421875) (9.511404418945312e-05, 4.984375) (8.99964141845703e-05, 4.986328125) (8.472125244140624e-05, 4.98828125) (7.931031799316405e-05, 4.990234375) (7.378560638427734e-05, 4.9921875) (6.816899871826171e-05, 4.994140625) (6.248218536376953e-05, 4.99609375) (5.6746620178222655e-05, 4.998046875) (5.098324966430664e-05, 5.0) (4.521292114257812e-05, 5.001953125) (3.945658111572266e-05, 5.00390625) (3.3734588623046876e-05, 5.005859375) (2.8066699981689452e-05, 5.0078125) (2.2472076416015623e-05, 5.009765625) (1.696894073486328e-05, 5.01171875) (1.1574777603149414e-05, 5.013671875) (6.306338310241699e-06, 5.015625) (1.1790686845779418e-06, 5.017578125) (-3.7926182746887207e-06, 5.01953125) (-8.59515380859375e-06, 5.021484375) (-1.3216182708740234e-05, 5.0234375) (-1.7644306182861328e-05, 5.025390625) (-2.1868907928466796e-05, 5.02734375) (-2.588066482543945e-05, 5.029296875) (-2.967133331298828e-05, 5.03125) (-3.323382949829102e-05, 5.033203125) (-3.6563289642333984e-05, 5.03515625) (-3.9656776428222654e-05, 5.037109375) (-4.251298141479492e-05, 5.0390625) (-4.513294982910156e-05, 5.041015625) (-4.751957321166992e-05, 5.04296875) (-4.9677154541015624e-05, 5.044921875) (-5.16116714477539e-05, 5.046875) (-5.332961654663086e-05, 5.048828125) (-5.483738708496094e-05, 5.05078125) (-5.614230728149414e-05, 5.052734375) (-5.72526626586914e-05, 5.0546875) (-5.817715454101562e-05, 5.056640625) (-5.8924880981445306e-05, 5.05859375) (-5.950439071655273e-05, 5.060546875) (-5.992403793334961e-05, 5.0625) (-6.019374847412109e-05, 5.064453125) (-6.032449340820312e-05, 5.06640625) (-6.032772064208984e-05, 5.068359375) (-6.021424102783203e-05, 5.0703125) (-5.9992736816406246e-05, 5.072265625) (-5.9672706604003906e-05, 5.07421875) (-5.926692581176757e-05, 5.076171875) (-5.8790710449218747e-05, 5.078125) (-5.826137161254883e-05, 5.080078125) (-5.769630432128906e-05, 5.08203125) (-5.710934829711914e-05, 5.083984375) (-5.6512184143066406e-05, 5.0859375) (-5.5916957855224605e-05, 5.087890625) (-5.533461761474609e-05, 5.08984375) (-5.477585983276367e-05, 5.091796875) (-5.424876403808594e-05, 5.09375) (-5.3754283905029295e-05, 5.095703125) (-5.329122924804687e-05, 5.09765625) (-5.285887908935547e-05, 5.099609375) (-5.246131896972656e-05, 5.1015625) (-5.2111415863037104e-05, 5.103515625) (-5.181560516357422e-05, 5.10546875) (-5.156612396240234e-05, 5.107421875) (-5.134365081787109e-05, 5.109375) (-5.1118141174316406e-05, 5.111328125) (-5.086272811889648e-05, 5.11328125) (-5.056553649902344e-05, 5.115234375) (-5.021881103515625e-05, 5.1171875) (-4.9814388275146485e-05, 5.119140625) (-4.9355934143066405e-05, 5.12109375) (-4.885443115234375e-05, 5.123046875) (-4.8335391998291016e-05, 5.125) (-4.7844783782958984e-05, 5.126953125) (-4.74175796508789e-05, 5.12890625) (-4.707951736450195e-05, 5.130859375) (-4.683632659912109e-05, 5.1328125) (-4.665417098999023e-05, 5.134765625) (-4.6506584167480466e-05, 5.13671875) (-4.6380489349365235e-05, 5.138671875) (-4.630195999145507e-05, 5.140625) (-4.6380489349365235e-05, 5.142578125) (-4.671968078613281e-05, 5.14453125) (-4.7349235534667965e-05, 5.146484375) (-4.825829315185547e-05, 5.1484375) (-4.93603515625e-05, 5.150390625) (-5.0534076690673825e-05, 5.15234375) (-5.177680587768555e-05, 5.154296875) (-5.2980907440185545e-05, 5.15625) (-5.380633926391601e-05, 5.158203125) (-5.403775405883789e-05, 5.16015625) (-5.3570152282714844e-05, 5.162109375) (-5.248921203613281e-05, 5.1640625) (-5.14205322265625e-05, 5.166015625) (-5.092481231689453e-05, 5.16796875) (-5.095967864990234e-05, 5.169921875) (-5.1586879730224605e-05, 5.171875) (-5.303929901123047e-05, 5.173828125) (-5.4921318054199214e-05, 5.17578125) (-5.6721954345703125e-05, 5.177734375) (-5.765337371826172e-05, 5.1796875) (-5.570157241821289e-05, 5.181640625) (-5.056727600097656e-05, 5.18359375) (-4.4477054595947264e-05, 5.185546875) (-3.8282367706298824e-05, 5.1875) (-3.143324851989746e-05, 5.189453125) (-2.008315658569336e-05, 5.19140625) (2.9256789684295653e-06, 5.193359375) (3.9200195312499996e-05, 5.1953125) (8.13302001953125e-05, 5.197265625) (0.00011468507385253905, 5.19921875) (0.00012332408905029295, 5.201171875) (0.00010002615356445313, 5.203125) (5.1095897674560544e-05, 5.205078125) (-6.618623733520508e-06, 5.20703125) (-5.695504760742187e-05, 5.208984375) (-9.156908416748047e-05, 5.2109375) (-0.00011057879638671875, 5.212890625) (-0.00012099623107910155, 5.21484375) (-0.0001279597396850586, 5.216796875) (-0.00013139991760253904, 5.21875) (-0.00012997482299804687, 5.220703125) (-0.00012210072326660154, 5.22265625) (-0.00010795501708984375, 5.224609375) (-9.032617950439453e-05, 5.2265625) (-7.188973999023437e-05, 5.228515625) (-5.416963195800781e-05, 5.23046875) (-3.861103057861328e-05, 5.232421875) (-2.669712257385254e-05, 5.234375) (-1.8883661270141602e-05, 5.236328125) (-1.495687675476074e-05, 5.23828125) (-1.4128110885620116e-05, 5.240234375) (-1.4748585700988769e-05, 5.2421875) (-1.5798644065856932e-05, 5.244140625) (-1.7088397979736328e-05, 5.24609375) (-1.8231319427490232e-05, 5.248046875) (-1.8838634490966797e-05, 5.25) (-1.8824615478515624e-05, 5.251953125) (-1.8142738342285156e-05, 5.25390625) (-1.7143486022949217e-05, 5.255859375) (-1.656768798828125e-05, 5.2578125) (-1.6689888000488282e-05, 5.259765625) (-1.745771598815918e-05, 5.26171875) (-1.8781459808349607e-05, 5.263671875) (-2.0421241760253906e-05, 5.265625) (-2.2254566192626953e-05, 5.267578125) (-2.4287078857421874e-05, 5.26953125) (-2.6401317596435547e-05, 5.271484375) (-2.8426769256591795e-05, 5.2734375) (-3.0275806427001952e-05, 5.275390625) (-3.189395904541015e-05, 5.27734375) (-3.330305099487305e-05, 5.279296875) (-3.4571342468261715e-05, 5.28125) (-3.567371368408203e-05, 5.283203125) (-3.654865646362305e-05, 5.28515625) (-3.7126033782958984e-05, 5.287109375) (-3.735627746582031e-05, 5.2890625) (-3.727843475341797e-05, 5.291015625) (-3.6948547363281246e-05, 5.29296875) (-3.64161376953125e-05, 5.294921875) (-3.5744251251220704e-05, 5.296875) (-3.497188949584961e-05, 5.298828125) (-3.412733840942383e-05, 5.30078125) (-3.32517204284668e-05, 5.302734375) (-3.235997009277344e-05, 5.3046875) (-3.1439353942871094e-05, 5.306640625) (-3.0477294921874997e-05, 5.30859375) (-2.9442523956298826e-05, 5.310546875) (-2.830620193481445e-05, 5.3125) (-2.7070083618164063e-05, 5.314453125) (-2.5741128921508787e-05, 5.31640625) (-2.433587837219238e-05, 5.318359375) (-2.2866533279418943e-05, 5.3203125) (-2.1320316314697263e-05, 5.322265625) (-1.9687400817871094e-05, 5.32421875) (-1.7960855484008788e-05, 5.326171875) (-1.6127330780029296e-05, 5.328125) (-1.4175006866455078e-05, 5.330078125) (-1.2086355209350585e-05, 5.33203125) (-9.840945243835448e-06, 5.333984375) (-7.437427520751953e-06, 5.3359375) (-4.8884239196777345e-06, 5.337890625) (-2.2069997787475583e-06, 5.33984375) (5.815362930297852e-07, 5.341796875) (3.44922137260437e-06, 5.34375) (6.364842414855957e-06, 5.345703125) (9.282899856567382e-06, 5.34765625) (1.2171352386474609e-05, 5.349609375) (1.5012447357177733e-05, 5.3515625) (1.779474639892578e-05, 5.353515625) (2.0522396087646484e-05, 5.35546875) (2.320118141174316e-05, 5.357421875) (2.5832862854003904e-05, 5.359375) (2.842340850830078e-05, 5.361328125) (3.0977901458740233e-05, 5.36328125) (3.349856948852539e-05, 5.365234375) (3.599575424194336e-05, 5.3671875) (3.8473968505859376e-05, 5.369140625) (4.092807388305664e-05, 5.37109375) (4.3374347686767576e-05, 5.373046875) (4.584061050415039e-05, 5.375) (4.8377513885498046e-05, 5.376953125) (5.106795501708984e-05, 5.37890625) (5.396522521972656e-05, 5.380859375) (5.708903121948242e-05, 5.3828125) (6.0443237304687494e-05, 5.384765625) (6.400321960449219e-05, 5.38671875) (6.773085021972656e-05, 5.388671875) (7.158416748046874e-05, 5.390625) (7.549265289306641e-05, 5.392578125) (7.936251831054687e-05, 5.39453125) (8.311449432373046e-05, 5.396484375) (8.667452239990234e-05, 5.3984375) (8.998934936523437e-05, 5.400390625) (9.303265380859374e-05, 5.40234375) (9.574885559082031e-05, 5.404296875) (9.806520080566405e-05, 5.40625) (9.988598632812499e-05, 5.408203125) (0.00010108135223388671, 5.41015625) (0.00010155828857421874, 5.412109375) (0.00010126328277587891, 5.4140625) (0.00010015578460693359, 5.416015625) (9.822598266601562e-05, 5.41796875) (9.54969482421875e-05, 5.419921875) (9.201120758056641e-05, 5.421875) (8.787028503417969e-05, 5.423828125) (8.32310791015625e-05, 5.42578125) (7.823012542724609e-05, 5.427734375) (7.299610137939453e-05, 5.4296875) (6.763324737548828e-05, 5.431640625) (6.220894241333007e-05, 5.43359375) (5.6821994781494135e-05, 5.435546875) (5.158849334716797e-05, 5.4375) (4.663382720947265e-05, 5.439453125) (4.209751892089843e-05, 5.44140625) (3.808460998535156e-05, 5.443359375) (3.4669914245605467e-05, 5.4453125) (3.1929807662963865e-05, 5.447265625) (2.992876625061035e-05, 5.44921875) (2.8688310623168944e-05, 5.451171875) (2.8195154190063475e-05, 5.453125) (2.8348855972290037e-05, 5.455078125) (2.8967309951782226e-05, 5.45703125) (2.989167785644531e-05, 5.458984375) (3.0964454650878906e-05, 5.4609375) (3.207123184204101e-05, 5.462890625) (3.3153785705566404e-05, 5.46484375) (3.4092636108398436e-05, 5.466796875) (3.473611068725586e-05, 5.46875) (3.492375564575195e-05, 5.470703125) (3.449365234375e-05, 5.47265625) (3.337995910644531e-05, 5.474609375) (3.1610649108886715e-05, 5.4765625) (2.9143421173095703e-05, 5.478515625) (2.584540557861328e-05, 5.48046875) (2.1716222763061524e-05, 5.482421875) (1.6900518417358396e-05, 5.484375) (1.1881412506103515e-05, 5.486328125) (7.5033912658691405e-06, 5.48828125) (4.3251914978027345e-06, 5.490234375) (2.530909776687622e-06, 5.4921875) (2.1992979049682614e-06, 5.494140625) (3.38310432434082e-06, 5.49609375) (6.137160778045654e-06, 5.498046875) (1.0430278778076172e-05, 5.5) (1.550824737548828e-05, 5.501953125) (1.9734813690185547e-05, 5.50390625) (2.1966197967529295e-05, 5.505859375) (2.2008041381835936e-05, 5.5078125) (2.0388534545898436e-05, 5.509765625) (1.8258066177368165e-05, 5.51171875) (1.666011047363281e-05, 5.513671875) (1.65402774810791e-05, 5.515625) (1.9936283111572265e-05, 5.517578125) (3.0172060012817383e-05, 5.51953125) (4.995792007446289e-05, 5.521484375) (8.05489273071289e-05, 5.5234375) (0.00012161177062988281, 5.525390625) (0.00017121246337890625, 5.52734375) (0.00022721234130859374, 5.529296875) (0.000287413818359375, 5.53125) (0.00034793225097656246, 5.533203125) (0.0004029598693847656, 5.53515625) (0.00044711596679687497, 5.537109375) (0.00047634368896484373, 5.5390625) (0.0004881060180664062, 5.541015625) (0.0004833086547851562, 5.54296875) (0.00046317321777343746, 5.544921875) (0.000427112548828125, 5.546875) (0.00037795382690429687, 5.548828125) (0.00031776315307617184, 5.55078125) (0.00024839096069335936, 5.552734375) (0.0001787850341796875, 5.5546875) (0.00011495249938964843, 5.556640625) (6.29090118408203e-05, 5.55859375) (3.0181671142578122e-05, 5.560546875) (1.3110837936401367e-05, 5.5625) (6.824274063110351e-06, 5.564453125) (6.460763931274414e-06, 5.56640625) (4.594478130340576e-06, 5.568359375) (1.4615881443023682e-06, 5.5703125) (-1.472434639930725e-06, 5.572265625) (-4.639392375946044e-06, 5.57421875) (-7.5111584663391106e-06, 5.576171875) (-1.2090849876403808e-05, 5.578125) (-1.976871109008789e-05, 5.580078125) (-2.9614299774169922e-05, 5.58203125) (-4.05043716430664e-05, 5.583984375) (-5.0800399780273435e-05, 5.5859375) (-5.949722671508789e-05, 5.587890625) (-6.653932189941406e-05, 5.58984375) (-7.171532440185546e-05, 5.591796875) (-7.493412780761719e-05, 5.59375) (-7.636058807373047e-05, 5.595703125) (-7.628506469726562e-05, 5.59765625) (-7.536868286132813e-05, 5.599609375) (-7.441154479980468e-05, 5.6015625) (-7.382762145996094e-05, 5.603515625) (-7.376921844482422e-05, 5.60546875) (-7.432341003417968e-05, 5.607421875) (-7.546049499511719e-05, 5.609375) (-7.718891143798828e-05, 5.611328125) (-7.953758239746094e-05, 5.61328125) (-8.239022064208983e-05, 5.615234375) (-8.55601806640625e-05, 5.6171875) (-8.891237640380859e-05, 5.619140625) (-9.233987426757812e-05, 5.62109375) (-9.576808929443359e-05, 5.623046875) (-9.917229461669922e-05, 5.625) (-0.00010247982025146483, 5.626953125) (-0.00010557596588134765, 5.62890625) (-0.00010837359619140625, 5.630859375) (-0.0001107909698486328, 5.6328125) (-0.0001127775421142578, 5.634765625) (-0.00011433042907714843, 5.63671875) (-0.0001154508056640625, 5.638671875) (-0.00011613559722900391, 5.640625) (-0.00011639324188232421, 5.642578125) (-0.00011624147033691406, 5.64453125) (-0.00011570877075195312, 5.646484375) (-0.00011484519195556641, 5.6484375) (-0.00011369966125488281, 5.650390625) (-0.00011231044006347656, 5.65234375) (-0.00011072106933593749, 5.654296875) (-0.00010897506713867187, 5.65625) (-0.00010712544250488281, 5.658203125) (-0.00010523810577392578, 5.66015625) (-0.00010336738586425781, 5.662109375) (-0.0001015543441772461, 5.6640625) (-9.982933807373046e-05, 5.666015625) (-9.82093276977539e-05, 5.66796875) (-9.670579528808593e-05, 5.669921875) (-9.533000183105469e-05, 5.671875) (-9.408509826660155e-05, 5.673828125) (-9.296511840820313e-05, 5.67578125) (-9.196412658691406e-05, 5.677734375) (-9.107362365722656e-05, 5.6796875) (-9.028555297851562e-05, 5.681640625) (-8.95959243774414e-05, 5.68359375) (-8.899667358398437e-05, 5.685546875) (-8.847505950927734e-05, 5.6875) (-8.801580047607421e-05, 5.689453125) (-8.760069274902343e-05, 5.69140625) (-8.721267700195312e-05, 5.693359375) (-8.683770751953125e-05, 5.6953125) (-8.646149444580077e-05, 5.697265625) (-8.60690460205078e-05, 5.69921875) (-8.564620208740234e-05, 5.701171875) (-8.517886352539063e-05, 5.703125) (-8.465437316894531e-05, 5.705078125) (-8.406226348876952e-05, 5.70703125) (-8.339004516601562e-05, 5.708984375) (-8.26226577758789e-05, 5.7109375) (-8.17448272705078e-05, 5.712890625) (-8.074133300781249e-05, 5.71484375) (-7.95971221923828e-05, 5.716796875) (-7.829988861083984e-05, 5.71875) (-7.683781433105468e-05, 5.720703125) (-7.519532775878906e-05, 5.72265625) (-7.335905456542969e-05, 5.724609375) (-7.131947326660155e-05, 5.7265625) (-6.906768798828125e-05, 5.728515625) (-6.659967041015625e-05, 5.73046875) (-6.391594696044921e-05, 5.732421875) (-6.100832366943359e-05, 5.734375) (-5.78698501586914e-05, 5.736328125) (-5.451522064208984e-05, 5.73828125) (-5.095813751220703e-05, 5.740234375) (-4.721229553222656e-05, 5.7421875) (-4.329894638061523e-05, 5.744140625) (-3.921645355224609e-05, 5.74609375) (-3.495480346679688e-05, 5.748046875) (-3.054558563232422e-05, 5.75) (-2.602313995361328e-05, 5.751953125) (-2.1361202239990235e-05, 5.75390625) (-1.654547691345215e-05, 5.755859375) (-1.1569544792175292e-05, 5.7578125) (-6.4135828018188476e-06, 5.759765625) (-1.1322131156921385e-06, 5.76171875) (4.185728073120117e-06, 5.763671875) (9.553771018981933e-06, 5.765625) (1.501434326171875e-05, 5.767578125) (2.036842918395996e-05, 5.76953125) (2.538487434387207e-05, 5.771484375) (3.0160614013671873e-05, 5.7734375) (3.46571159362793e-05, 5.775390625) (3.880890655517578e-05, 5.77734375) (4.303224182128906e-05, 5.779296875) (4.6106788635253905e-05, 5.78125) (4.6845123291015624e-05, 5.783203125) (4.688161468505859e-05, 5.78515625) (4.669538116455078e-05, 5.787109375) (4.931252288818359e-05, 5.7890625) (5.836126327514648e-05, 5.791015625) (6.978270721435547e-05, 5.79296875) (8.086700439453124e-05, 5.794921875) (8.75897445678711e-05, 5.796875) (8.443067932128906e-05, 5.798828125) (7.624983978271484e-05, 5.80078125) (6.716761779785156e-05, 5.802734375) (6.0007186889648434e-05, 5.8046875) (5.944045257568359e-05, 5.806640625) (6.212326431274414e-05, 5.80859375) (6.466854858398438e-05, 5.810546875) (6.632643890380859e-05, 5.8125) (6.503717803955077e-05, 5.814453125) (6.200699615478515e-05, 5.81640625) (5.87867202758789e-05, 5.818359375) (5.509375e-05, 5.8203125) (5.113760375976562e-05, 5.822265625) (4.682966613769531e-05, 5.82421875) (4.1873893737792965e-05, 5.826171875) (3.649281311035156e-05, 5.828125) (3.0869974136352535e-05, 5.830078125) (2.4972721099853515e-05, 5.83203125) (1.8812223434448242e-05, 5.833984375) (1.2432319641113281e-05, 5.8359375) (5.854336261749268e-06, 5.837890625) (-9.066812992095947e-07, 5.83984375) (-7.828975677490234e-06, 5.841796875) (-1.4913759231567382e-05, 5.84375) (-2.216724395751953e-05, 5.845703125) (-2.954568290710449e-05, 5.84765625) (-3.700552368164062e-05, 5.849609375) (-4.4522933959960935e-05, 5.8515625) (-5.206751251220703e-05, 5.853515625) (-5.96111946105957e-05, 5.85546875) (-6.712911224365233e-05, 5.857421875) (-7.459046173095703e-05, 5.859375) (-8.196554565429687e-05, 5.861328125) (-8.923283386230469e-05, 5.86328125) (-9.637184143066405e-05, 5.865234375) (-0.00010336195373535156, 5.8671875) (-0.00011018520355224609, 5.869140625) (-0.00011682418823242187, 5.87109375) (-0.00012326292419433593, 5.873046875) (-0.00012948776245117188, 5.875) (-0.000135486328125, 5.876953125) (-0.0001412475128173828, 5.87890625) (-0.0001467616424560547, 5.880859375) (-0.000152020263671875, 5.8828125) (-0.00015701629638671875, 5.884765625) (-0.00016174395751953125, 5.88671875) (-0.000166198974609375, 5.888671875) (-0.00017037850952148436, 5.890625) (-0.0001742812957763672, 5.892578125) (-0.0001779075469970703, 5.89453125) (-0.000181259033203125, 5.896484375) (-0.00018433897399902343, 5.8984375) (-0.00018715199279785156, 5.900390625) (-0.00018970408630371093, 5.90234375) (-0.0001920027160644531, 5.904296875) (-0.00019405654907226561, 5.90625) (-0.0001958753967285156, 5.908203125) (-0.00019747019958496094, 5.91015625) (-0.00019885267639160154, 5.912109375) (-0.00020003546142578123, 5.9140625) (-0.00020103170776367187, 5.916015625) (-0.00020185482788085936, 5.91796875) (-0.0002025182647705078, 5.919921875) (-0.0002030352020263672, 5.921875) (-0.00020341845703125, 5.923828125) (-0.00020368011474609373, 5.92578125) (-0.00020383154296874998, 5.927734375) (-0.00020388331604003905, 5.9296875) (-0.00020384510803222655, 5.931640625) (-0.00020372567749023436, 5.93359375) (-0.0002035330810546875, 5.935546875) (-0.00020327479553222655, 5.9375) (-0.00020295770263671875, 5.939453125) (-0.0002025881652832031, 5.94140625) (-0.00020217218017578125, 5.943359375) (-0.00020171531677246093, 5.9453125) (-0.00020122274780273437, 5.947265625) (-0.00020069937133789062, 5.94921875) (-0.00020014962768554687, 5.951171875) (-0.00019957757568359375, 5.953125) (-0.00019898678588867186, 5.955078125) (-0.00019838024902343749, 5.95703125) (-0.00019776049804687499, 5.958984375) (-0.00019712954711914062, 5.9609375) (-0.00019648870849609375, 5.962890625) (-0.000195838623046875, 5.96484375) (-0.0001951793212890625, 5.966796875) (-0.0001945099182128906, 5.96875) (-0.00019382894897460937, 5.970703125) (-0.0001931342315673828, 5.97265625) (-0.00019242297363281248, 5.974609375) (-0.0001916917724609375, 5.9765625) (-0.0001909367980957031, 5.978515625) (-0.000190154052734375, 5.98046875) (-0.00018933941650390625, 5.982421875) (-0.00018848899841308593, 5.984375) (-0.00018759921264648437, 5.986328125) (-0.00018666696166992185, 5.98828125) (-0.00018568972778320312, 5.990234375) (-0.00018466571044921875, 5.9921875) (-0.00018359375, 5.994140625) (-0.00018247338867187498, 5.99609375) (-0.00018130488586425781, 5.998046875) (-0.0001800888671875, 6.0) (-0.0001788263702392578, 6.001953125) (-0.00017751873779296874, 6.00390625) (-0.00017616751098632812, 6.005859375) (-0.00017477426147460937, 6.0078125) (-0.0001733406219482422, 6.009765625) (-0.00017186805725097654, 6.01171875) (-0.00017035797119140624, 6.013671875) (-0.00016881161499023438, 6.015625) (-0.000167230224609375, 6.017578125) (-0.0001656148681640625, 6.01953125) (-0.0001639666748046875, 6.021484375) (-0.00016228668212890624, 6.0234375) (-0.000160576171875, 6.025390625) (-0.00015883648681640623, 6.02734375) (-0.00015706935119628906, 6.029296875) (-0.00015527682495117186, 6.03125) (-0.00015346142578125, 6.033203125) (-0.00015162603759765625, 6.03515625) (-0.0001497740783691406, 6.037109375) (-0.00014790940856933594, 6.0390625) (-0.00014603634643554686, 6.041015625) (-0.00014415950012207032, 6.04296875) (-0.00014228366088867188, 6.044921875) (-0.00014041368103027342, 6.046875) (-0.0001385542755126953, 6.048828125) (-0.0001367099609375, 6.05078125) (-0.00013488488769531248, 6.052734375) (-0.00013308274841308592, 6.0546875) (-0.00013130667114257812, 6.056640625) (-0.0001295592803955078, 6.05859375) (-0.00012784266662597656, 6.060546875) (-0.00012615843200683592, 6.0625) (-0.00012450785064697264, 6.064453125) (-0.00012289193725585938, 6.06640625) (-0.00012131149291992187, 6.068359375) (-0.00011976731872558593, 6.0703125) (-0.00011826026916503906, 6.072265625) (-0.00011679136657714844, 6.07421875) (-0.00011536186218261718, 6.076171875) (-0.00011397323608398437, 6.078125) (-0.00011262726593017578, 6.080078125) (-0.00011132593536376952, 6.08203125) (-0.00011007155609130859, 6.083984375) (-0.00010886657714843749, 6.0859375) (-0.00010771347045898437, 6.087890625) (-0.00010661470031738281, 6.08984375) (-0.00010557255554199218, 6.091796875) (-0.00010458907318115234, 6.09375) (-0.00010366598510742187, 6.095703125) (-0.0001028045425415039, 6.09765625) (-0.00010200537109374999, 6.099609375) (-0.00010126841735839843, 6.1015625) (-0.000100593017578125, 6.103515625) (-9.997781372070312e-05, 6.10546875) (-9.94207992553711e-05, 6.107421875) (-9.891937255859375e-05, 6.109375) (-9.847042846679687e-05, 6.111328125) (-9.807038879394531e-05, 6.11328125) (-9.771541595458985e-05, 6.115234375) (-9.740155029296874e-05, 6.1171875) (-9.712474060058593e-05, 6.119140625) (-9.688091278076171e-05, 6.12109375) (-9.666590881347655e-05, 6.123046875) (-9.647563171386718e-05, 6.125) (-9.630594635009766e-05, 6.126953125) (-9.615273284912109e-05, 6.12890625) (-9.601188659667968e-05, 6.130859375) (-9.587895202636718e-05, 6.1328125) (-9.574903869628906e-05, 6.134765625) (-9.561694335937499e-05, 6.13671875) (-9.547705078125e-05, 6.138671875) (-9.532328033447266e-05, 6.140625) (-9.514903259277343e-05, 6.142578125) (-9.494696044921874e-05, 6.14453125) (-9.470890808105469e-05, 6.146484375) (-9.442636108398437e-05, 6.1484375) (-9.409059143066406e-05, 6.150390625) (-9.369264221191406e-05, 6.15234375) (-9.322340393066406e-05, 6.154296875) (-9.267362213134766e-05, 6.15625) (-9.203412628173827e-05, 6.158203125) (-9.129605865478515e-05, 6.16015625) (-9.045126342773437e-05, 6.162109375) (-8.949227142333983e-05, 6.1640625) (-8.841216278076171e-05, 6.166015625) (-8.720472717285156e-05, 6.16796875) (-8.586468505859375e-05, 6.169921875) (-8.438778686523438e-05, 6.171875) (-8.277091979980469e-05, 6.173828125) (-8.101211547851561e-05, 6.17578125) (-7.911021423339843e-05, 6.177734375) (-7.70647201538086e-05, 6.1796875) (-7.487608337402343e-05, 6.181640625) (-7.254569244384765e-05, 6.18359375) (-7.007594299316406e-05, 6.185546875) (-6.747001647949219e-05, 6.1875) (-6.473147583007813e-05, 6.189453125) (-6.186432647705077e-05, 6.19140625) (-5.887311553955078e-05, 6.193359375) (-5.576338958740234e-05, 6.1953125) (-5.2541961669921874e-05, 6.197265625) (-4.9216186523437494e-05, 6.19921875) (-4.579371261596679e-05, 6.201171875) (-4.2283634185791015e-05, 6.203125) (-3.8696620941162105e-05, 6.205078125) (-3.5045497894287106e-05, 6.20703125) (-3.134609603881836e-05, 6.208984375) (-2.76151180267334e-05, 6.2109375) (-2.3869302749633788e-05, 6.212890625) (-2.0126758575439453e-05, 6.21484375) (-1.6406543731689453e-05, 6.216796875) (-1.2727866172790526e-05, 6.21875) (-9.11042881011963e-06, 6.220703125) (-5.571892738342285e-06, 6.22265625) (-2.126476764678955e-06, 6.224609375) (1.2112724781036377e-06, 6.2265625) (4.4260416030883785e-06, 6.228515625) (7.501633644104004e-06, 6.23046875) (1.0420394897460937e-05, 6.232421875) (1.316693878173828e-05, 6.234375) (1.572869110107422e-05, 6.236328125) (1.8093959808349608e-05, 6.23828125) (2.025206184387207e-05, 6.240234375) (2.219330596923828e-05, 6.2421875) (2.3909152984619138e-05, 6.244140625) (2.5396873474121092e-05, 6.24609375) (2.665785789489746e-05, 6.248046875) (2.769037628173828e-05, 6.25) (2.849155044555664e-05, 6.251953125) (2.9050380706787108e-05, 6.25390625) (2.9346338272094726e-05, 6.255859375) (2.9365699768066406e-05, 6.2578125) (2.910034942626953e-05, 6.259765625) (2.8546104431152342e-05, 6.26171875) (2.7708505630493163e-05, 6.263671875) (2.6596153259277344e-05, 6.265625) (2.522058868408203e-05, 6.267578125) (2.3609554290771482e-05, 6.26953125) (2.1803768157958982e-05, 6.271484375) (1.9843868255615232e-05, 6.2734375) (1.7771255493164063e-05, 6.275390625) (1.5617053031921387e-05, 6.27734375) (1.3408565521240233e-05, 6.279296875) (1.118717861175537e-05, 6.28125) (8.99568748474121e-06, 6.283203125) (6.8905773162841796e-06, 6.28515625) (4.9406628608703614e-06, 6.287109375) (3.1961774826049804e-06, 6.2890625) (1.7021847963333129e-06, 6.291015625) (4.919098019599914e-07, 6.29296875) (-4.3963891267776486e-07, 6.294921875) (-1.112581729888916e-06, 6.296875) (-1.560049295425415e-06, 6.298828125) (-1.8431932926177977e-06, 6.30078125) (-2.022348403930664e-06, 6.302734375) (-2.166283130645752e-06, 6.3046875) (-2.3741776943206785e-06, 6.306640625) (-2.7421371936798093e-06, 6.30859375) (-3.373885154724121e-06, 6.310546875) (-4.370505809783935e-06, 6.3125) (-5.788783073425293e-06, 6.314453125) (-7.756365299224853e-06, 6.31640625) (-1.046237850189209e-05, 6.318359375) (-1.3969942092895507e-05, 6.3203125) (-1.8232433319091798e-05, 6.322265625) (-2.2983234405517576e-05, 6.32421875) (-2.772689628601074e-05, 6.326171875) (-3.2085800170898435e-05, 6.328125) (-3.575601577758789e-05, 6.330078125) (-3.8296447753906245e-05, 6.33203125) (-3.937761688232422e-05, 6.333984375) (-3.894244384765625e-05, 6.3359375) (-3.717115783691406e-05, 6.337890625) (-3.49927978515625e-05, 6.33984375) (-3.364579391479492e-05, 6.341796875) (-3.377595520019531e-05, 6.34375) (-3.627447128295898e-05, 6.345703125) (-4.208222198486328e-05, 6.34765625) (-5.094606018066406e-05, 6.349609375) (-6.241603851318359e-05, 6.3515625) (-7.456778717041015e-05, 6.353515625) 