(-0.0006360965576171875, 0.0) (-0.0008446655273437499, 0.001953125) (-0.000982297119140625, 0.00390625) (-0.00102744677734375, 0.005859375) (-0.0009879364013671876, 0.0078125) (-0.000900267578125, 0.009765625) (-0.0008083630981445312, 0.01171875) (-0.0007372276000976563, 0.013671875) (-0.0006961829833984375, 0.015625) (-0.000674122314453125, 0.017578125) (-0.0006489786376953125, 0.01953125) (-0.0006110509033203125, 0.021484375) (-0.0005575162353515624, 0.0234375) (-0.0004944226379394531, 0.025390625) (-0.00043544778442382813, 0.02734375) (-0.00038644635009765625, 0.029296875) (-0.00034858599853515625, 0.03125) (-0.00032073718261718746, 0.033203125) (-0.00029793392944335936, 0.03515625) (-0.00027711328124999996, 0.037109375) (-0.0002570706176757812, 0.0390625) (-0.00023578329467773435, 0.041015625) (-0.0002115950927734375, 0.04296875) (-0.00018364726257324217, 0.044921875) (-0.0001514000549316406, 0.046875) (-0.00011506876373291016, 0.048828125) (-7.553393554687499e-05, 0.05078125) (-3.370831298828125e-05, 0.052734375) (9.583179473876952e-06, 0.0546875) (5.312760925292968e-05, 0.056640625) (9.55384521484375e-05, 0.05859375) (0.0001360030059814453, 0.060546875) (0.00017410606384277342, 0.0625) (0.00020976414489746093, 0.064453125) (0.00024326776123046874, 0.06640625) (0.00027488726806640623, 0.068359375) (0.000304810791015625, 0.0703125) (0.0003333829040527344, 0.072265625) (0.00036105319213867185, 0.07421875) (0.00038809130859374997, 0.076171875) (0.0004146753234863281, 0.078125) (0.0004409331970214844, 0.080078125) (0.0004668515930175781, 0.08203125) (0.0004924573364257812, 0.083984375) (0.0005178212280273438, 0.0859375) (0.000542932861328125, 0.087890625) (0.000567752197265625, 0.08984375) (0.0005922517700195312, 0.091796875) (0.0006163771362304687, 0.09375) (0.0006400552978515625, 0.095703125) (0.0006632090454101562, 0.09765625) (0.0006857044067382813, 0.099609375) (0.0007073809814453125, 0.1015625) (0.00072809033203125, 0.103515625) (0.0007476534423828125, 0.10546875) (0.0007658771972656249, 0.107421875) (0.0007825460205078124, 0.109375) (0.0007974100952148437, 0.111328125) (0.0008102519531249999, 0.11328125) (0.0008208887939453125, 0.115234375) (0.0008291580810546875, 0.1171875) (0.0008349372558593749, 0.119140625) (0.0008381317749023437, 0.12109375) (0.0008386696166992187, 0.123046875) (0.0008365258178710937, 0.125) (0.0008317257080078125, 0.126953125) (0.0008243273315429687, 0.12890625) (0.0008144201660156249, 0.130859375) (0.0008021137084960937, 0.1328125) (0.000787532958984375, 0.134765625) (0.000770837158203125, 0.13671875) (0.00075221875, 0.138671875) (0.00073190283203125, 0.140625) (0.0007101222534179687, 0.142578125) (0.0006870800781249999, 0.14453125) (0.0006629578857421874, 0.146484375) (0.0006379219360351562, 0.1484375) (0.0006121207275390625, 0.150390625) (0.00058569189453125, 0.15234375) (0.0005587539672851562, 0.154296875) (0.000531396240234375, 0.15625) (0.0005036858825683594, 0.158203125) (0.0004756776428222656, 0.16015625) (0.0004474173889160156, 0.162109375) (0.0004189427795410156, 0.1640625) (0.0003902730712890625, 0.166015625) (0.000361409912109375, 0.16796875) (0.00033234124755859374, 0.169921875) (0.00030303952026367183, 0.171875) (0.00027348974609375, 0.173828125) (0.00024370329284667967, 0.17578125) (0.0002137047424316406, 0.177734375) (0.00018353927612304688, 0.1796875) (0.00015327186584472655, 0.181640625) (0.0001229701690673828, 0.18359375) (9.271305847167968e-05, 0.185546875) (6.259072875976562e-05, 0.1875) (3.268524551391602e-05, 0.189453125) (3.079631805419922e-06, 0.19140625) (-2.6137748718261717e-05, 0.193359375) (-5.488089370727539e-05, 0.1953125) (-8.305265045166015e-05, 0.197265625) (-0.00011055809020996093, 0.19921875) (-0.0001373247528076172, 0.201171875) (-0.00016328627014160156, 0.203125) (-0.00018839108276367186, 0.205078125) (-0.00021261619567871092, 0.20703125) (-0.00023595162963867185, 0.208984375) (-0.0002584194946289062, 0.2109375) (-0.0002800868530273437, 0.212890625) (-0.0003010222778320312, 0.21484375) (-0.0003212844543457031, 0.216796875) (-0.00034092852783203123, 0.21875) (-0.0003599840698242187, 0.220703125) (-0.000378482666015625, 0.22265625) (-0.00039648046874999997, 0.224609375) (-0.00041402227783203125, 0.2265625) (-0.000431144775390625, 0.228515625) (-0.000447866943359375, 0.23046875) (-0.00046415258789062497, 0.232421875) (-0.00047994299316406246, 0.234375) (-0.0004951634521484375, 0.236328125) (-0.0005096915283203125, 0.23828125) (-0.0005233778076171874, 0.240234375) (-0.0005360314331054688, 0.2421875) (-0.0005474030761718749, 0.244140625) (-0.000557249267578125, 0.24609375) (-0.0005653496704101562, 0.248046875) (-0.0005714833984375, 0.25) (-0.0005754560546875, 0.251953125) (-0.0005770586547851562, 0.25390625) (-0.0005760447387695312, 0.255859375) (-0.000572205322265625, 0.2578125) (-0.0005653231201171875, 0.259765625) (-0.0005551891479492187, 0.26171875) (-0.0005417557373046875, 0.263671875) (-0.0005250812377929687, 0.265625) (-0.0005053323974609375, 0.267578125) (-0.00048284521484374997, 0.26953125) (-0.0004579286499023437, 0.271484375) (-0.00043084588623046874, 0.2734375) (-0.0004020186157226562, 0.275390625) (-0.00037187200927734374, 0.27734375) (-0.000340570556640625, 0.279296875) (-0.00030811038208007814, 0.28125) (-0.00027420974731445313, 0.283203125) (-0.0002384152374267578, 0.28515625) (-0.00020065142822265624, 0.287109375) (-0.00016109414672851562, 0.2890625) (-0.00011985389709472655, 0.291015625) (-7.721987915039062e-05, 0.29296875) (-3.386877059936523e-05, 0.294921875) (9.134175300598144e-06, 0.296875) (5.0153198242187496e-05, 0.298828125) (8.736019134521484e-05, 0.30078125) (0.00011942692565917968, 0.302734375) (0.00014531158447265625, 0.3046875) (0.00016399301147460938, 0.306640625) (0.00017482652282714843, 0.30859375) (0.0001777810516357422, 0.310546875) (0.00017359027099609375, 0.3125) (0.00016391452026367185, 0.314453125) (0.00015084326171875, 0.31640625) (0.0001363586883544922, 0.318359375) (0.00012254031372070312, 0.3203125) (0.00011170675659179687, 0.322265625) (0.00010591554260253906, 0.32421875) (0.00010658615112304687, 0.326171875) (0.00011436263275146484, 0.328125) (0.00012900445556640624, 0.330078125) (0.00014975535583496092, 0.33203125) (0.00017566845703125, 0.333984375) (0.00020541526794433593, 0.3359375) (0.00023721099853515624, 0.337890625) (0.0002694020080566406, 0.33984375) (0.00030083563232421876, 0.341796875) (0.000330740234375, 0.34375) (0.0003587744445800781, 0.345703125) (0.00038482061767578126, 0.34765625) (0.0004088049926757812, 0.349609375) (0.00043101940917968746, 0.3515625) (0.00045219207763671875, 0.353515625) (0.0004728836975097656, 0.35546875) (0.0004931722106933593, 0.357421875) (0.0005129613647460937, 0.359375) (0.0005320398559570313, 0.361328125) (0.00055027099609375, 0.36328125) (0.0005676091918945313, 0.365234375) (0.0005834990844726562, 0.3671875) (0.000596711669921875, 0.369140625) (0.0006058999633789062, 0.37109375) (0.0006101282958984375, 0.373046875) (0.0006086785888671875, 0.375) (0.0006008601074218749, 0.376953125) (0.0005858295288085938, 0.37890625) (0.0005626121826171875, 0.380859375) (0.0005308655395507813, 0.3828125) (0.0004912898559570313, 0.384765625) (0.0004450811767578125, 0.38671875) (0.00039307272338867183, 0.388671875) (0.00033582553100585934, 0.390625) (0.00027380230712890626, 0.392578125) (0.00020743162536621094, 0.39453125) (0.00013749798583984375, 0.396484375) (6.448112487792969e-05, 0.3984375) (-1.2072311401367187e-05, 0.400390625) (-9.276927185058594e-05, 0.40234375) (-0.00017754487609863282, 0.404296875) (-0.0002659095764160156, 0.40625) (-0.0003568236389160156, 0.408203125) (-0.0004487200317382812, 0.41015625) (-0.0005405517578124999, 0.412109375) (-0.00063123388671875, 0.4140625) (-0.0007190396118164062, 0.416015625) (-0.000802692626953125, 0.41796875) (-0.0008816520996093749, 0.419921875) (-0.0009557196044921875, 0.421875) (-0.001025507080078125, 0.423828125) (-0.001092193603515625, 0.42578125) (-0.00115618359375, 0.427734375) (-0.0012178499755859374, 0.4296875) (-0.001278032470703125, 0.431640625) (-0.00133663818359375, 0.43359375) (-0.0013930056152343748, 0.435546875) (-0.0014465537109375, 0.4375) (-0.0014959814453125, 0.439453125) (-0.0015408698730468749, 0.44140625) (-0.0015830517578124999, 0.443359375) (-0.0016226816406249998, 0.4453125) (-0.0016586086425781248, 0.447265625) (-0.0016892626953124998, 0.44921875) (-0.001710997802734375, 0.451171875) (-0.0017257827148437499, 0.453125) (-0.0017404453125, 0.455078125) (-0.0017610679931640623, 0.45703125) (-0.00179393603515625, 0.458984375) (-0.0018367441406249999, 0.4609375) (-0.0018807766113281249, 0.462890625) (-0.001919236328125, 0.46484375) (-0.0019453920898437498, 0.466796875) (-0.0019588614501953126, 0.46875) (-0.0019607711181640623, 0.470703125) (-0.0019468941650390625, 0.47265625) (-0.001913215087890625, 0.474609375) (-0.0018530324707031248, 0.4765625) (-0.001764277587890625, 0.478515625) (-0.001654677001953125, 0.48046875) (-0.0015326298828125, 0.482421875) (-0.0014078596191406249, 0.484375) (-0.0012867882080078124, 0.486328125) (-0.00116763232421875, 0.48828125) (-0.00104923828125, 0.490234375) (-0.0009331114501953125, 0.4921875) (-0.0008205463256835937, 0.494140625) (-0.0007163763427734375, 0.49609375) (-0.0006238181762695312, 0.498046875) (-0.0005384194335937499, 0.5) (-0.0004562816162109375, 0.501953125) (-0.0003724310913085937, 0.50390625) (-0.000281634521484375, 0.505859375) (-0.000186980224609375, 0.5078125) (-9.131522369384765e-05, 0.509765625) (3.066669702529907e-06, 0.51171875) (9.206385803222656e-05, 0.513671875) (0.00017701937866210937, 0.515625) (0.00025897964477539063, 0.517578125) (0.00033716207885742185, 0.51953125) (0.0004122061157226562, 0.521484375) (0.000482611083984375, 0.5234375) (0.0005469332885742188, 0.525390625) (0.0006053418579101562, 0.52734375) (0.0006577553100585937, 0.529296875) (0.0007045756225585937, 0.53125) (0.0007465737915039062, 0.533203125) (0.0007841737670898437, 0.53515625) (0.00081771728515625, 0.537109375) (0.0008475908203125, 0.5390625) (0.0008740520629882812, 0.541015625) (0.0008972777709960937, 0.54296875) (0.0009174943237304687, 0.544921875) (0.0009349120483398437, 0.546875) (0.0009496944580078125, 0.548828125) (0.0009620120849609374, 0.55078125) (0.0009720464477539062, 0.552734375) (0.0009799860229492187, 0.5546875) (0.000986036865234375, 0.556640625) (0.0009904146728515625, 0.55859375) (0.0009933026123046874, 0.560546875) (0.0009948020019531249, 0.5625) (0.00099495849609375, 0.564453125) (0.000993791015625, 0.56640625) (0.0009912987670898437, 0.568359375) (0.0009874810180664061, 0.5703125) (0.0009823299560546876, 0.572265625) (0.000975822509765625, 0.57421875) (0.0009679288940429687, 0.576171875) (0.0009586491088867187, 0.578125) (0.0009480130004882812, 0.580078125) (0.0009360510864257812, 0.58203125) (0.0009227935791015625, 0.583984375) (0.0009082456054687499, 0.5859375) (0.0008924014892578125, 0.587890625) (0.0008752785644531249, 0.58984375) (0.0008569169311523437, 0.591796875) (0.000837408935546875, 0.59375) (0.000816891357421875, 0.595703125) (0.0007955152587890624, 0.59765625) (0.0007734593505859374, 0.599609375) (0.0007509315185546875, 0.6015625) (0.0007281646728515624, 0.603515625) (0.000705427001953125, 0.60546875) (0.0006830064086914062, 0.607421875) (0.0006611668090820312, 0.609375) (0.0006401505126953124, 0.611328125) (0.00062020947265625, 0.61328125) (0.0006016011352539063, 0.615234375) (0.0005846064453125, 0.6171875) (0.0005695169677734375, 0.619140625) (0.0005565771484375, 0.62109375) (0.0005460043334960937, 0.623046875) (0.000537990234375, 0.625) (0.00053268408203125, 0.626953125) (0.000530222900390625, 0.62890625) (0.00053071142578125, 0.630859375) (0.0005341892700195313, 0.6328125) (0.0005406446533203125, 0.634765625) (0.000550030029296875, 0.63671875) (0.0005622359008789062, 0.638671875) (0.0005770973510742187, 0.640625) (0.0005944786376953125, 0.642578125) (0.000614232666015625, 0.64453125) (0.000636138427734375, 0.646484375) (0.0006599596557617187, 0.6484375) (0.0006854212646484375, 0.650390625) (0.0007121331176757812, 0.65234375) (0.0007397086181640624, 0.654296875) (0.0007678787841796875, 0.65625) (0.0007961838378906249, 0.658203125) (0.000823939453125, 0.66015625) (0.000850803955078125, 0.662109375) (0.0008765731201171874, 0.6640625) (0.000900837890625, 0.666015625) (0.0009238196411132812, 0.66796875) (0.0009451273803710937, 0.669921875) (0.0009628230590820312, 0.671875) (0.0009771157836914062, 0.673828125) (0.0009898001098632811, 0.67578125) (0.0010033819580078124, 0.677734375) (0.0010239699707031249, 0.6796875) (0.0010534808349609375, 0.681640625) (0.001086099853515625, 0.68359375) (0.0011145994873046875, 0.685546875) (0.0011283328857421874, 0.6875) (0.0011209698486328125, 0.689453125) (0.00110031396484375, 0.69140625) (0.0010781977539062499, 0.693359375) (0.0010668020019531249, 0.6953125) (0.0010758670654296874, 0.697265625) (0.0011007944335937499, 0.69921875) (0.0011304416503906249, 0.701171875) (0.001156539306640625, 0.703125) (0.001171861572265625, 0.705078125) (0.001177396728515625, 0.70703125) (0.00118009228515625, 0.708984375) (0.0011835170898437499, 0.7109375) (0.0011901907958984375, 0.712890625) (0.001200585693359375, 0.71484375) (0.001212194091796875, 0.716796875) (0.0012241519775390624, 0.71875) (0.0012365533447265624, 0.720703125) (0.001249103271484375, 0.72265625) (0.0012619781494140625, 0.724609375) (0.0012750805664062499, 0.7265625) (0.001287873779296875, 0.728515625) (0.001300087646484375, 0.73046875) (0.0013116319580078124, 0.732421875) (0.001322354248046875, 0.734375) (0.001332155517578125, 0.736328125) (0.0013410299072265624, 0.73828125) (0.0013489620361328124, 0.740234375) (0.0013559564208984374, 0.7421875) (0.0013620469970703124, 0.744140625) (0.0013672052001953124, 0.74609375) (0.0013713751220703124, 0.748046875) (0.001374539306640625, 0.75) (0.001376709716796875, 0.751953125) (0.0013779278564453124, 0.75390625) (0.00137826708984375, 0.755859375) (0.0013778181152343748, 0.7578125) (0.0013766593017578124, 0.759765625) (0.0013748565673828124, 0.76171875) (0.0013724630126953124, 0.763671875) (0.0013695146484375, 0.765625) (0.0013660399169921874, 0.767578125) (0.00136206103515625, 0.76953125) (0.00135758837890625, 0.771484375) (0.00135261767578125, 0.7734375) (0.0013471480712890624, 0.775390625) (0.0013411888427734375, 0.77734375) (0.0013347519531249998, 0.779296875) (0.0013278518066406249, 0.78125) (0.0013204881591796875, 0.783203125) (0.0013126412353515625, 0.78515625) (0.00130428955078125, 0.787109375) (0.0012954102783203124, 0.7890625) (0.00128599462890625, 0.791015625) (0.001276055419921875, 0.79296875) (0.0012656015625, 0.794921875) (0.0012546397705078124, 0.796875) (0.0012431730957031249, 0.798828125) (0.00123119580078125, 0.80078125) (0.0012187188720703124, 0.802734375) (0.0012057781982421874, 0.8046875) (0.0011924127197265625, 0.806640625) (0.0011786617431640625, 0.80859375) (0.00116456689453125, 0.810546875) (0.0011501651611328125, 0.8125) (0.00113551513671875, 0.814453125) (0.0011207023925781249, 0.81640625) (0.001105793212890625, 0.818359375) (0.0010908303222656249, 0.8203125) (0.0010758284912109374, 0.822265625) (0.0010607637939453124, 0.82421875) (0.001045627685546875, 0.826171875) (0.0010304315185546875, 0.828125) (0.0010151881103515625, 0.830078125) (0.0009999254150390624, 0.83203125) (0.000984659912109375, 0.833984375) (0.000969375244140625, 0.8359375) (0.0009540499267578124, 0.837890625) (0.0009386615600585937, 0.83984375) (0.0009231695556640624, 0.841796875) (0.00090753076171875, 0.84375) (0.0008916791381835937, 0.845703125) (0.0008755083007812499, 0.84765625) (0.0008589409179687499, 0.849609375) (0.0008419475708007812, 0.8515625) (0.000824538330078125, 0.853515625) (0.0008067761840820312, 0.85546875) (0.0007887194824218749, 0.857421875) (0.0007704055786132813, 0.859375) (0.0007518800659179687, 0.861328125) (0.0007331844482421875, 0.86328125) (0.0007143600463867187, 0.865234375) (0.0006954799194335938, 0.8671875) (0.0006766332397460937, 0.869140625) (0.0006579136962890624, 0.87109375) (0.0006394512939453125, 0.873046875) (0.0006213916625976562, 0.875) (0.0006038902587890625, 0.876953125) (0.0005871443481445313, 0.87890625) (0.0005713336791992187, 0.880859375) (0.0005565794067382813, 0.8828125) (0.0005429632568359374, 0.884765625) (0.0005305178222656249, 0.88671875) (0.000519252685546875, 0.888671875) (0.000509186279296875, 0.890625) (0.0005003281860351562, 0.892578125) (0.0004926768493652343, 0.89453125) (0.0004862392578125, 0.896484375) (0.0004810018920898437, 0.8984375) (0.00047691403198242186, 0.900390625) (0.0004739054260253906, 0.90234375) (0.00047186016845703125, 0.904296875) (0.0004706311645507812, 0.90625) (0.00047006915283203125, 0.908203125) (0.00046998934936523436, 0.91015625) (0.00047019409179687496, 0.912109375) (0.0004705308227539062, 0.9140625) (0.0004708766479492187, 0.916015625) (0.00047113916015625, 0.91796875) (0.00047126556396484375, 0.919921875) (0.00047120178222656247, 0.921875) (0.0004708856811523437, 0.923828125) (0.00047026547241210936, 0.92578125) (0.0004692759094238281, 0.927734375) (0.0004678509521484375, 0.9296875) (0.00046596533203125, 0.931640625) (0.00046361819458007813, 0.93359375) (0.00046083746337890623, 0.935546875) (0.0004576844787597656, 0.9375) (0.00045422344970703123, 0.939453125) (0.00045054287719726563, 0.94140625) (0.00044676257324218746, 0.943359375) (0.0004429773559570312, 0.9453125) (0.00043925604248046875, 0.947265625) (0.00043564978027343747, 0.94921875) (0.00043217358398437496, 0.951171875) (0.00042883944702148437, 0.953125) (0.00042567709350585937, 0.955078125) (0.0004227103271484375, 0.95703125) (0.00041996923828125, 0.958984375) (0.0004174949035644531, 0.9609375) (0.000415305419921875, 0.962890625) (0.00041340475463867184, 0.96484375) (0.00041179113769531246, 0.966796875) (0.00041044146728515626, 0.96875) (0.0004093224182128906, 0.970703125) (0.0004083822326660156, 0.97265625) (0.00040754135131835937, 0.974609375) (0.00040672839355468745, 0.9765625) (0.00040588595581054685, 0.978515625) (0.00040496258544921876, 0.98046875) (0.000403919189453125, 0.982421875) (0.0004027094116210937, 0.984375) (0.0004012752685546875, 0.986328125) (0.00039956335449218747, 0.98828125) (0.00039752099609374997, 0.990234375) (0.000395089599609375, 0.9921875) (0.00039221209716796873, 0.994140625) (0.00038882882690429685, 0.99609375) (0.0003848796997070312, 0.998046875) (0.0003803148193359375, 1.0) (0.0003750971984863281, 1.001953125) (0.00036921234130859375, 1.00390625) (0.0003626614990234375, 1.005859375) (0.0003554498291015625, 1.0078125) (0.000347600830078125, 1.009765625) (0.00033915472412109375, 1.01171875) (0.0003301722717285156, 1.013671875) (0.00032075265502929686, 1.015625) (0.0003110048828125, 1.017578125) (0.00030103308105468746, 1.01953125) (0.00029095388793945313, 1.021484375) (0.0002808833312988281, 1.0234375) (0.00027094549560546875, 1.025390625) (0.0002612878723144531, 1.02734375) (0.0002520412139892578, 1.029296875) (0.00024331764221191405, 1.03125) (0.00023520881652832031, 1.033203125) (0.00022775608825683591, 1.03515625) (0.00022099722290039062, 1.037109375) (0.00021496990966796874, 1.0390625) (0.0002096536407470703, 1.041015625) (0.00020498048400878905, 1.04296875) (0.0002008104248046875, 1.044921875) (0.00019688652038574219, 1.046875) (0.00019296241760253906, 1.048828125) (0.00018884304809570313, 1.05078125) (0.00018422543334960936, 1.052734375) (0.00017875180053710936, 1.0546875) (0.00017195187377929688, 1.056640625) (0.00016316642761230469, 1.05859375) (0.00015191700744628906, 1.060546875) (0.00013796017456054686, 1.0625) (0.00012103130340576171, 1.064453125) (0.00010089138793945312, 1.06640625) (7.741981506347656e-05, 1.068359375) (5.055259323120117e-05, 1.0703125) (2.0735916137695312e-05, 1.072265625) (-1.0967336654663086e-05, 1.07421875) (-4.3775516510009764e-05, 1.076171875) (-7.724546813964843e-05, 1.078125) (-0.00011107018280029296, 1.080078125) (-0.00014522607421875, 1.08203125) (-0.0001796361083984375, 1.083984375) (-0.00021413653564453125, 1.0859375) (-0.00024951373291015627, 1.087890625) (-0.0002875347290039062, 1.08984375) (-0.000329652587890625, 1.091796875) (-0.00037709323120117187, 1.09375) (-0.00042970526123046874, 1.095703125) (-0.00048540405273437496, 1.09765625) (-0.000542476806640625, 1.099609375) (-0.0005990422973632812, 1.1015625) (-0.0006541015625, 1.103515625) (-0.0007096078491210938, 1.10546875) (-0.000765870361328125, 1.107421875) (-0.0008208377685546875, 1.109375) (-0.0008694412841796875, 1.111328125) (-0.0008983386840820312, 1.11328125) (-0.0008941840209960937, 1.115234375) (-0.0008487767944335938, 1.1171875) (-0.0007585390625, 1.119140625) (-0.0006344683227539062, 1.12109375) (-0.0004954727478027344, 1.123046875) (-0.00036013375854492186, 1.125) (-0.0002485625762939453, 1.126953125) (-0.00016964813232421875, 1.12890625) (-0.00012051630401611328, 1.130859375) (-9.397737884521484e-05, 1.1328125) (-7.778990936279296e-05, 1.134765625) (-6.396331787109374e-05, 1.13671875) (-5.3337306976318356e-05, 1.138671875) (-4.951346588134765e-05, 1.140625) (-5.4560539245605464e-05, 1.142578125) (-6.790370178222656e-05, 1.14453125) (-8.359312438964843e-05, 1.146484375) (-9.419145202636718e-05, 1.1484375) (-9.924131774902343e-05, 1.150390625) (-0.00010011133575439453, 1.15234375) (-9.955541229248046e-05, 1.154296875) (-0.00010190684509277343, 1.15625) (-0.00010605966186523437, 1.158203125) (-0.00011084237670898437, 1.16015625) (-0.00011673593139648437, 1.162109375) (-0.00012325259399414062, 1.1640625) (-0.00013169964599609374, 1.166015625) (-0.000142998046875, 1.16796875) (-0.00015645864868164063, 1.169921875) (-0.00017157559204101561, 1.171875) (-0.00018765524291992187, 1.173828125) (-0.00020389524841308592, 1.17578125) (-0.00021984268188476563, 1.177734375) (-0.00023506962585449217, 1.1796875) (-0.00024923072814941405, 1.181640625) (-0.00026224371337890624, 1.18359375) (-0.00027415841674804687, 1.185546875) (-0.00028505258178710937, 1.1875) (-0.0002949456787109375, 1.189453125) (-0.0003038275146484375, 1.19140625) (-0.00031170809936523436, 1.193359375) (-0.000318646728515625, 1.1953125) (-0.0003247484436035156, 1.197265625) (-0.00033011407470703126, 1.19921875) (-0.00033484478759765625, 1.201171875) (-0.0003390355224609375, 1.203125) (-0.0003427942199707031, 1.205078125) (-0.0003462335815429687, 1.20703125) (-0.00034942932128906247, 1.208984375) (-0.0003524338684082031, 1.2109375) (-0.00035527520751953124, 1.212890625) (-0.0003579696350097656, 1.21484375) (-0.00036054293823242187, 1.216796875) (-0.00036304278564453125, 1.21875) (-0.00036553857421874996, 1.220703125) (-0.0003681118774414062, 1.22265625) (-0.0003708540344238281, 1.224609375) (-0.0003738125305175781, 1.2265625) (-0.00037698446655273435, 1.228515625) (-0.00038032745361328123, 1.23046875) (-0.00038374313354492184, 1.232421875) (-0.0003871268310546875, 1.234375) (-0.0003903803100585937, 1.236328125) (-0.0003934060363769531, 1.23828125) (-0.0003961307373046875, 1.240234375) (-0.00039849560546874996, 1.2421875) (-0.00040046118164062497, 1.244140625) (-0.00040201220703125, 1.24609375) (-0.00040315087890625, 1.248046875) (-0.0004038780517578125, 1.25) (-0.00040416595458984375, 1.251953125) (-0.0004039541320800781, 1.25390625) (-0.000403161376953125, 1.255859375) (-0.00040174261474609373, 1.2578125) (-0.0003997064819335937, 1.259765625) (-0.00039710882568359373, 1.26171875) (-0.00039406024169921875, 1.263671875) (-0.00039067095947265624, 1.265625) (-0.0003870509338378906, 1.267578125) (-0.0003833299560546875, 1.26953125) (-0.00037962960815429687, 1.271484375) (-0.00037605950927734375, 1.2734375) (-0.00037268786621093747, 1.275390625) (-0.0003695296936035156, 1.27734375) (-0.00036655841064453125, 1.279296875) (-0.00036373101806640623, 1.28125) (-0.0003610358276367187, 1.283203125) (-0.00035848736572265626, 1.28515625) (-0.00035610394287109373, 1.287109375) (-0.000353866943359375, 1.2890625) (-0.00035170312499999996, 1.291015625) (-0.0003494951171875, 1.29296875) (-0.0003470821838378906, 1.294921875) (-0.0003442986450195312, 1.296875) (-0.00034094949340820313, 1.298828125) (-0.00033678884887695313, 1.30078125) (-0.00033155990600585935, 1.302734375) (-0.00032501165771484374, 1.3046875) (-0.00031695117187499996, 1.306640625) (-0.00030724890136718747, 1.30859375) (-0.00029581048583984375, 1.310546875) (-0.00028255084228515624, 1.3125) (-0.000267355712890625, 1.314453125) (-0.000250111083984375, 1.31640625) (-0.00023072706604003904, 1.318359375) (-0.0002091595764160156, 1.3203125) (-0.00018541424560546875, 1.322265625) (-0.0001595315399169922, 1.32421875) (-0.0001315985107421875, 1.326171875) (-0.00010173616027832031, 1.328125) (-7.01330108642578e-05, 1.330078125) (-3.7054683685302736e-05, 1.33203125) (-2.796682357788086e-06, 1.333984375) (3.2336753845214845e-05, 1.3359375) (6.807655334472656e-05, 1.337890625) (0.00010418081665039062, 1.33984375) (0.00014039738464355467, 1.341796875) (0.00017644091796875, 1.34375) (0.00021198870849609375, 1.345703125) (0.00024672125244140625, 1.34765625) (0.00028033581542968747, 1.349609375) (0.0003125641784667969, 1.3515625) (0.00034315631103515624, 1.353515625) (0.00037186950683593746, 1.35546875) (0.00039851397705078123, 1.357421875) (0.000422951171875, 1.359375) (0.0004451090087890625, 1.361328125) (0.00046498507690429685, 1.36328125) (0.00048259582519531247, 1.365234375) (0.0004979575805664062, 1.3671875) (0.0005110903930664062, 1.369140625) (0.0005220302124023437, 1.37109375) (0.0005308567504882812, 1.373046875) (0.0005377230224609374, 1.375) (0.000542831298828125, 1.376953125) (0.000546403076171875, 1.37890625) (0.0005486842041015625, 1.380859375) (0.0005499178466796874, 1.3828125) (0.0005503682250976562, 1.384765625) (0.0005503248291015625, 1.38671875) (0.0005500321044921875, 1.388671875) (0.0005496976318359374, 1.390625) (0.0005495038452148438, 1.392578125) (0.0005495974731445312, 1.39453125) (0.00055014453125, 1.396484375) (0.0005513492431640625, 1.3984375) (0.00055340185546875, 1.400390625) (0.0005564765014648437, 1.40234375) (0.0005607218017578125, 1.404296875) (0.0005662145385742187, 1.40625) (0.0005729898681640624, 1.408203125) (0.0005810549926757812, 1.41015625) (0.0005903675537109375, 1.412109375) (0.0006008725585937499, 1.4140625) (0.00061248779296875, 1.416015625) (0.0006250997314453125, 1.41796875) (0.0006386292724609374, 1.419921875) (0.0006530118408203125, 1.421875) (0.000668177490234375, 1.423828125) (0.00068407177734375, 1.42578125) (0.000700596435546875, 1.427734375) (0.0007175909423828125, 1.4296875) (0.0007348933105468749, 1.431640625) (0.0007523265380859375, 1.43359375) (0.0007697015380859375, 1.435546875) (0.000786871337890625, 1.4375) (0.0008037045288085937, 1.439453125) (0.00082008203125, 1.44140625) (0.0008359248046874999, 1.443359375) (0.000851154541015625, 1.4453125) (0.0008657001953125, 1.447265625) (0.0008795050659179687, 1.44921875) (0.000892480712890625, 1.451171875) (0.0009045343017578124, 1.453125) (0.0009155803222656249, 1.455078125) (0.0009255164184570312, 1.45703125) (0.0009342786865234375, 1.458984375) (0.0009418544311523438, 1.4609375) (0.0009482423706054687, 1.462890625) (0.000953473388671875, 1.46484375) (0.0009576060791015625, 1.466796875) (0.0009606851806640625, 1.46875) (0.00096276416015625, 1.470703125) (0.0009639047851562499, 1.47265625) (0.0009641489257812499, 1.474609375) (0.0009635513916015625, 1.4765625) (0.0009621741943359374, 1.478515625) (0.0009600782470703124, 1.48046875) (0.0009573585815429687, 1.482421875) (0.0009541123046875, 1.484375) (0.00095043359375, 1.486328125) (0.0009464321899414062, 1.48828125) (0.0009421953125, 1.490234375) (0.0009377883300781249, 1.4921875) (0.0009332764892578125, 1.494140625) (0.0009287063598632812, 1.49609375) (0.0009241017456054687, 1.498046875) (0.0009194822387695312, 1.5) (0.0009148449096679687, 1.501953125) (0.0009101693115234374, 1.50390625) (0.0009054488525390625, 1.505859375) (0.0009006640625, 1.5078125) (0.0008957899780273437, 1.509765625) (0.0008907989501953125, 1.51171875) (0.0008856304321289062, 1.513671875) (0.0008802280273437499, 1.515625) (0.0008745501708984374, 1.517578125) (0.0008685555419921875, 1.51953125) (0.0008622154541015625, 1.521484375) (0.0008555001220703124, 1.5234375) (0.0008483609008789062, 1.525390625) (0.0008407460937499999, 1.52734375) (0.0008326301879882812, 1.529296875) (0.00082401171875, 1.53125) (0.0008149247436523437, 1.533203125) (0.0008054244384765625, 1.53515625) (0.0007955518798828125, 1.537109375) (0.0007853614501953125, 1.5390625) (0.0007749182739257812, 1.541015625) (0.00076429833984375, 1.54296875) (0.0007536134033203125, 1.544921875) (0.0007429623413085937, 1.546875) (0.000732409912109375, 1.548828125) (0.00072201318359375, 1.55078125) (0.0007118314819335937, 1.552734375) (0.0007019417724609374, 1.5546875) (0.0006924617919921874, 1.556640625) (0.0006835264892578125, 1.55859375) (0.0006752312011718749, 1.560546875) (0.0006676343994140624, 1.5625) (0.0006607562255859375, 1.564453125) (0.0006545943603515625, 1.56640625) (0.0006491635742187499, 1.568359375) (0.0006444598999023437, 1.5703125) (0.0006404528808593749, 1.572265625) (0.0006370942993164062, 1.57421875) (0.0006343010864257812, 1.576171875) (0.0006320112915039062, 1.578125) (0.000630210693359375, 1.580078125) (0.0006288833618164063, 1.58203125) (0.0006279874267578125, 1.583984375) (0.0006274507446289063, 1.5859375) (0.0006271446533203125, 1.587890625) (0.0006269156494140625, 1.58984375) (0.0006266572265625, 1.591796875) (0.0006262911987304687, 1.59375) (0.0006257613525390625, 1.595703125) (0.000625029541015625, 1.59765625) (0.0006240382080078125, 1.599609375) (0.0006227464599609375, 1.6015625) (0.0006211476440429688, 1.603515625) (0.0006192466430664062, 1.60546875) (0.0006170647583007812, 1.607421875) (0.0006145967407226562, 1.609375) (0.0006117861938476563, 1.611328125) (0.00060858544921875, 1.61328125) (0.000604985595703125, 1.615234375) (0.0006010067138671874, 1.6171875) (0.0005967195434570312, 1.619140625) (0.0005922189331054687, 1.62109375) (0.0005875574951171874, 1.623046875) (0.000582774658203125, 1.625) (0.000577908935546875, 1.626953125) (0.0005729827270507812, 1.62890625) (0.0005680310058593749, 1.630859375) (0.000563078369140625, 1.6328125) (0.0005581183471679688, 1.634765625) (0.0005531407470703124, 1.63671875) (0.0005481400756835937, 1.638671875) (0.0005431328125, 1.640625) (0.0005381727905273437, 1.642578125) (0.0005333095092773438, 1.64453125) (0.0005285602416992188, 1.646484375) (0.0005239246215820312, 1.6484375) (0.0005193730468749999, 1.650390625) (0.0005148598022460938, 1.65234375) (0.0005103651123046875, 1.654296875) (0.0005058732299804687, 1.65625) (0.0005013604736328125, 1.658203125) (0.0004968156127929688, 1.66015625) (0.0004922261962890625, 1.662109375) (0.00048758605957031247, 1.6640625) (0.00048291253662109375, 1.666015625) (0.0004782261047363281, 1.66796875) (0.000473537109375, 1.669921875) (0.00046884643554687496, 1.671875) (0.0004641387939453125, 1.673828125) (0.00045939910888671874, 1.67578125) (0.00045463043212890626, 1.677734375) (0.00044984326171875, 1.6796875) (0.0004450567626953125, 1.681640625) (0.00044029733276367184, 1.68359375) (0.00043558056640625, 1.685546875) (0.0004309226379394531, 1.6875) (0.0004263478088378906, 1.689453125) (0.00042187567138671873, 1.69140625) (0.0004175238037109375, 1.693359375) (0.0004133021850585937, 1.6953125) (0.00040920520019531247, 1.697265625) (0.00040522198486328125, 1.69921875) (0.0004013447265625, 1.701171875) (0.00039756307983398434, 1.703125) (0.0003938633422851562, 1.705078125) (0.00039022381591796875, 1.70703125) (0.0003866089477539062, 1.708984375) (0.00038298104858398434, 1.7109375) (0.0003793028869628906, 1.712890625) (0.00037553622436523434, 1.71484375) (0.00037164593505859374, 1.716796875) (0.00036759197998046875, 1.71875) (0.00036333065795898437, 1.720703125) (0.00035881890869140625, 1.72265625) (0.0003540125732421875, 1.724609375) (0.00034888037109375, 1.7265625) (0.00034339984130859374, 1.728515625) (0.0003375501098632812, 1.73046875) (0.0003313181457519531, 1.732421875) (0.0003247025146484375, 1.734375) (0.000317722412109375, 1.736328125) (0.0003104261779785156, 1.73828125) (0.0003028811645507812, 1.740234375) (0.00029515472412109376, 1.7421875) (0.0002873189697265625, 1.744140625) (0.00027945050048828123, 1.74609375) (0.0002716285400390625, 1.748046875) (0.0002639420471191406, 1.75) (0.0002564649047851562, 1.751953125) (0.0002492511291503906, 1.75390625) (0.00024234765625, 1.755859375) (0.00023578619384765625, 1.7578125) (0.00022960418701171875, 1.759765625) (0.0002238490295410156, 1.76171875) (0.0002185511474609375, 1.763671875) (0.00021372045898437498, 1.765625) (0.00020930697631835936, 1.767578125) (0.0002052105712890625, 1.76953125) (0.0002013333282470703, 1.771484375) (0.00019749813842773436, 1.7734375) (0.0001934361877441406, 1.775390625) (0.00018881695556640624, 1.77734375) (0.00018319609069824218, 1.779296875) (0.0001761058349609375, 1.78125) (0.00016722625732421874, 1.783203125) (0.00015630929565429687, 1.78515625) (0.00014310763549804686, 1.787109375) (0.00012767376708984373, 1.7890625) (0.00011020227050781249, 1.791015625) (9.090264892578125e-05, 1.79296875) (7.029313659667969e-05, 1.794921875) (4.888908767700195e-05, 1.796875) (2.7038850784301758e-05, 1.798828125) (5.077632904052734e-06, 1.80078125) (-1.6845458984374998e-05, 1.802734375) (-3.916010284423828e-05, 1.8046875) (-6.2518310546875e-05, 1.806640625) (-8.747236633300781e-05, 1.80859375) (-0.00011488446044921874, 1.810546875) (-0.00014559007263183592, 1.8125) (-0.0001803546447753906, 1.814453125) (-0.000219916748046875, 1.81640625) (-0.0002647644958496094, 1.818359375) (-0.0003147239379882812, 1.8203125) (-0.00036871374511718747, 1.822265625) (-0.00042574200439453124, 1.82421875) (-0.00048364617919921873, 1.826171875) (-0.0005386654663085938, 1.828125) (-0.000588596435546875, 1.830078125) (-0.000631845947265625, 1.83203125) (-0.0006680241088867187, 1.833984375) (-0.0006998706665039062, 1.8359375) (-0.0007254179687499999, 1.837890625) (-0.0007379651489257813, 1.83984375) (-0.0007309530029296874, 1.841796875) (-0.000696371337890625, 1.84375) (-0.0006349900512695313, 1.845703125) (-0.0005570789794921875, 1.84765625) (-0.0004723108520507812, 1.849609375) (-0.00039113372802734376, 1.8515625) (-0.0003181427001953125, 1.853515625) (-0.0002511374816894531, 1.85546875) (-0.00019040133666992188, 1.857421875) (-0.0001366505126953125, 1.859375) (-9.120386505126952e-05, 1.861328125) (-5.6926212310791015e-05, 1.86328125) (-3.389471054077148e-05, 1.865234375) (-2.0415645599365234e-05, 1.8671875) (-1.5144272804260253e-05, 1.869140625) (-1.6036865234375e-05, 1.87109375) (-2.079776382446289e-05, 1.873046875) (-2.7558719635009765e-05, 1.875) (-3.439998626708984e-05, 1.876953125) (-4.010483169555664e-05, 1.87890625) (-4.45833625793457e-05, 1.880859375) (-4.814089202880859e-05, 1.8828125) (-5.108019256591797e-05, 1.884765625) (-5.38326416015625e-05, 1.88671875) (-5.696918487548828e-05, 1.888671875) (-6.117327117919922e-05, 1.890625) (-6.725564575195312e-05, 1.892578125) (-7.562145233154296e-05, 1.89453125) (-8.614114379882812e-05, 1.896484375) (-9.844937133789062e-05, 1.8984375) (-0.00011205331420898437, 1.900390625) (-0.0001264581756591797, 1.90234375) (-0.00014121830749511718, 1.904296875) (-0.00015585635375976563, 1.90625) (-0.00016987303161621094, 1.908203125) (-0.0001829660949707031, 1.91015625) (-0.0001950330352783203, 1.912109375) (-0.0002060875244140625, 1.9140625) (-0.00021624609375, 1.916015625) (-0.00022562852478027342, 1.91796875) (-0.00023433290100097656, 1.919921875) (-0.00024245724487304687, 1.921875) (-0.00025010470581054685, 1.923828125) (-0.0002573312377929687, 1.92578125) (-0.0002641423950195312, 1.927734375) (-0.00027056494140625, 1.9296875) (-0.00027663763427734374, 1.931640625) (-0.00028241827392578125, 1.93359375) (-0.0002879906005859375, 1.935546875) (-0.00029342022705078125, 1.9375) (-0.00029874682617187496, 1.939453125) (-0.00030401174926757813, 1.94140625) (-0.00030925958251953124, 1.943359375) (-0.000314498046875, 1.9453125) (-0.00031970684814453123, 1.947265625) (-0.0003248402099609375, 1.94921875) (-0.000329824951171875, 1.951171875) (-0.00033461300659179687, 1.953125) (-0.00033917791748046874, 1.955078125) (-0.00034350830078124997, 1.95703125) (-0.00034761322021484374, 1.958984375) (-0.00035148486328125, 1.9609375) (-0.0003551025085449219, 1.962890625) (-0.0003584428100585937, 1.96484375) (-0.00036147637939453126, 1.966796875) (-0.00036416744995117185, 1.96875) (-0.00036647225952148434, 1.970703125) (-0.0003683301391601562, 1.97265625) (-0.00036966485595703124, 1.974609375) (-0.0003704303283691406, 1.9765625) (-0.00037060754394531247, 1.978515625) (-0.00037018408203125, 1.98046875) (-0.0003691554565429687, 1.982421875) (-0.00036750399780273435, 1.984375) (-0.00036520721435546875, 1.986328125) (-0.00036224383544921875, 1.98828125) (-0.00035859588623046875, 1.990234375) (-0.00035423712158203126, 1.9921875) (-0.0003491251525878906, 1.994140625) (-0.0003432417297363281, 1.99609375) (-0.00033658056640625, 1.998046875) (-0.000329154541015625, 2.0) (-0.00032101864624023435, 2.001953125) (-0.00031223541259765624, 2.00390625) (-0.00030287237548828124, 2.005859375) (-0.00029302227783203124, 2.0078125) (-0.0002827821044921875, 2.009765625) (-0.000272216064453125, 2.01171875) (-0.00026141766357421875, 2.013671875) (-0.0002505019836425781, 2.015625) (-0.00023955528259277342, 2.017578125) (-0.0002287098388671875, 2.01953125) (-0.00021811557006835936, 2.021484375) (-0.00020785783386230468, 2.0234375) (-0.00019803497314453125, 2.025390625) (-0.00018889944458007812, 2.02734375) (-0.00018069950866699217, 2.029296875) (-0.0001734326477050781, 2.03125) (-0.000167151611328125, 2.033203125) (-0.00016190599060058594, 2.03515625) (-0.00015740631103515625, 2.037109375) (-0.00015448844909667967, 2.0390625) (-0.0001539332275390625, 2.041015625) (-0.00015453558349609375, 2.04296875) (-0.00015586300659179686, 2.044921875) (-0.00015568630981445313, 2.046875) (-0.00015138722229003906, 2.048828125) (-0.00014571142578125, 2.05078125) (-0.0001404638671875, 2.052734375) (-0.00013836407470703126, 2.0546875) (-0.00014314678955078126, 2.056640625) (-0.00015132337951660155, 2.05859375) (-0.00015994985961914062, 2.060546875) (-0.0001670012969970703, 2.0625) (-0.00016917959594726562, 2.064453125) (-0.00016878173828125, 2.06640625) (-0.0001681300354003906, 2.068359375) (-0.00016771902465820312, 2.0703125) (-0.00016898814392089844, 2.072265625) (-0.00017111236572265624, 2.07421875) (-0.00017304318237304687, 2.076171875) (-0.00017502536010742187, 2.078125) (-0.00017693572998046873, 2.080078125) (-0.00017885241699218749, 2.08203125) (-0.00018100347900390623, 2.083984375) (-0.00018324963378906248, 2.0859375) (-0.00018548629760742187, 2.087890625) (-0.00018775320434570312, 2.08984375) (-0.0001900377960205078, 2.091796875) (-0.00019229991149902342, 2.09375) (-0.0001945223388671875, 2.095703125) (-0.00019669361877441404, 2.09765625) (-0.0001988028564453125, 2.099609375) (-0.00020085772705078124, 2.1015625) (-0.00020285829162597656, 2.103515625) (-0.00020477569580078125, 2.10546875) (-0.00020659037780761718, 2.107421875) (-0.0002082897186279297, 2.109375) (-0.0002098596649169922, 2.111328125) (-0.00021128289794921875, 2.11328125) (-0.0002125337371826172, 2.115234375) (-0.00021358981323242186, 2.1171875) (-0.00021443231201171873, 2.119140625) (-0.000215051025390625, 2.12109375) (-0.00021544345092773437, 2.123046875) (-0.00021559864807128905, 2.125) (-0.00021549990844726562, 2.126953125) (-0.00021513624572753906, 2.12890625) (-0.0002145030822753906, 2.130859375) (-0.00021359352111816404, 2.1328125) (-0.00021239462280273438, 2.134765625) (-0.00021087443542480467, 2.13671875) (-0.00020897879028320313, 2.138671875) (-0.0002066670379638672, 2.140625) (-0.00020392443847656248, 2.142578125) (-0.0002007613525390625, 2.14453125) (-0.00019720980834960936, 2.146484375) (-0.00019330282592773437, 2.1484375) (-0.00018908206176757812, 2.150390625) (-0.00018460214233398438, 2.15234375) (-0.00017993594360351563, 2.154296875) (-0.0001751815185546875, 2.15625) (-0.00017043200683593748, 2.158203125) (-0.00016576139831542969, 2.16015625) (-0.00016122863769531248, 2.162109375) (-0.0001568935546875, 2.1640625) (-0.00015283207702636718, 2.166015625) (-0.00014914743041992187, 2.16796875) (-0.00014596554565429688, 2.169921875) (-0.00014338922119140623, 2.171875) (-0.0001414870910644531, 2.173828125) (-0.00014029891967773438, 2.17578125) (-0.000139842041015625, 2.177734375) (-0.00014012896728515624, 2.1796875) (-0.00014115011596679686, 2.181640625) (-0.00014286729431152342, 2.18359375) (-0.00014520614624023438, 2.185546875) (-0.0001480614776611328, 2.1875) (-0.0001513446807861328, 2.189453125) (-0.00015499322509765625, 2.19140625) (-0.00015896063232421874, 2.193359375) (-0.00016320126342773438, 2.1953125) (-0.00016765377807617185, 2.197265625) (-0.0001722334747314453, 2.19921875) (-0.00017684344482421873, 2.201171875) (-0.00018140931701660155, 2.203125) (-0.0001858754425048828, 2.205078125) (-0.0001901987609863281, 2.20703125) (-0.0001943456573486328, 2.208984375) (-0.0001982816162109375, 2.2109375) (-0.00020199185180664063, 2.212890625) (-0.00020548773193359375, 2.21484375) (-0.00020880990600585938, 2.216796875) (-0.0002120169219970703, 2.21875) (-0.0002151472473144531, 2.220703125) (-0.00021821604919433591, 2.22265625) (-0.00022122547912597655, 2.224609375) (-0.00022417398071289063, 2.2265625) (-0.0002270657043457031, 2.228515625) (-0.0002299132080078125, 2.23046875) (-0.00023272709655761716, 2.232421875) (-0.0002355021514892578, 2.234375) (-0.00023823025512695312, 2.236328125) (-0.0002409039306640625, 2.23828125) (-0.00024351586914062498, 2.240234375) (-0.00024606256103515623, 2.2421875) (-0.0002485300598144531, 2.244140625) (-0.00025089059448242187, 2.24609375) (-0.0002531043090820312, 2.248046875) (-0.00025512716674804686, 2.25) (-0.00025692730712890624, 2.251953125) (-0.00025848477172851563, 2.25390625) (-0.00025978646850585935, 2.255859375) (-0.0002608229675292969, 2.2578125) (-0.00026158651733398437, 2.259765625) (-0.00026207147216796874, 2.26171875) (-0.0002622792663574219, 2.263671875) (-0.00026221969604492185, 2.265625) (-0.0002619013977050781, 2.267578125) (-0.00026133114624023434, 2.26953125) (-0.00026051538085937497, 2.271484375) (-0.00025945989990234375, 2.2734375) (-0.0002581754150390625, 2.275390625) (-0.00025667822265625, 2.27734375) (-0.00025498770141601563, 2.279296875) (-0.0002531242980957031, 2.28125) (-0.00025110739135742187, 2.283203125) (-0.00024895567321777344, 2.28515625) (-0.00024668800354003904, 2.287109375) (-0.0002443240051269531, 2.2890625) (-0.00024188285827636717, 2.291015625) (-0.00023938278198242186, 2.29296875) (-0.00023684024047851562, 2.294921875) (-0.00023427067565917967, 2.296875) (-0.00023169117736816406, 2.298828125) (-0.00022912025451660156, 2.30078125) (-0.0002265768127441406, 2.302734375) (-0.0002240799102783203, 2.3046875) (-0.00022164793395996094, 2.306640625) (-0.00021929832458496092, 2.30859375) (-0.00021704852294921875, 2.310546875) (-0.00021491552734374998, 2.3125) (-0.00021291485595703125, 2.314453125) (-0.00021106053161621093, 2.31640625) (-0.0002093651580810547, 2.318359375) (-0.00020783973693847655, 2.3203125) (-0.00020649417114257813, 2.322265625) (-0.0002053372344970703, 2.32421875) (-0.00020437603759765625, 2.326171875) (-0.0002036161193847656, 2.328125) (-0.0002030615539550781, 2.330078125) (-0.00020271473693847655, 2.33203125) (-0.00020257666015625, 2.333984375) (-0.00020264672851562498, 2.3359375) (-0.00020292274475097657, 2.337890625) (-0.00020340093994140624, 2.33984375) (-0.00020407595825195312, 2.341796875) (-0.0002049413146972656, 2.34375) (-0.00020598910522460936, 2.345703125) (-0.00020721032714843748, 2.34765625) (-0.00020859474182128906, 2.349609375) (-0.00021013104248046875, 2.3515625) (-0.0002118070068359375, 2.353515625) (-0.00021360955810546873, 2.35546875) (-0.00021552496337890625, 2.357421875) (-0.00021753880310058593, 2.359375) (-0.00021963580322265623, 2.361328125) (-0.00022180018615722654, 2.36328125) (-0.0002240157470703125, 2.365234375) (-0.0002262660217285156, 2.3671875) (-0.00022853445434570311, 2.369140625) (-0.00023080438232421873, 2.37109375) (-0.00023305914306640625, 2.373046875) (-0.00023528228759765624, 2.375) (-0.0002374577941894531, 2.376953125) (-0.0002395701904296875, 2.37890625) (-0.00024160476684570312, 2.380859375) (-0.00024354742431640625, 2.3828125) (-0.00024538485717773436, 2.384765625) (-0.0002471045532226562, 2.38671875) (-0.00024869506835937497, 2.388671875) (-0.00025014616394042967, 2.390625) (-0.0002514486999511719, 2.392578125) (-0.00025259472656249997, 2.39453125) (-0.0002535775146484375, 2.396484375) (-0.0002543916778564453, 2.3984375) (-0.0002550331573486328, 2.400390625) (-0.0002554992065429687, 2.40234375) (-0.0002557884063720703, 2.404296875) (-0.0002559005432128906, 2.40625) (-0.0002558365020751953, 2.408203125) (-0.0002555982971191406, 2.41015625) (-0.0002551890411376953, 2.412109375) (-0.0002546128692626953, 2.4140625) (-0.000253875, 2.416015625) (-0.00025298150634765624, 2.41796875) (-0.0002519393310546875, 2.419921875) (-0.00025075628662109376, 2.421875) (-0.00024944094848632813, 2.423828125) (-0.000248002685546875, 2.42578125) (-0.0002464514465332031, 2.427734375) (-0.00024479757690429684, 2.4296875) (-0.00024305181884765623, 2.431640625) (-0.00024122518920898436, 2.43359375) (-0.00023932887268066406, 2.435546875) (-0.0002373741455078125, 2.4375) (-0.00023537234497070312, 2.439453125) (-0.00023333480834960936, 2.44140625) (-0.00023127255249023437, 2.443359375) (-0.00022919650268554687, 2.4453125) (-0.0002271173095703125, 2.447265625) (-0.00022504528808593748, 2.44921875) (-0.00022299035644531248, 2.451171875) (-0.00022096163940429686, 2.453125) (-0.00021896734619140625, 2.455078125) (-0.00021701495361328124, 2.45703125) (-0.00021511102294921873, 2.458984375) (-0.00021326119995117187, 2.4609375) (-0.00021146998596191405, 2.462890625) (-0.00020974087524414063, 2.46484375) (-0.0002080762023925781, 2.466796875) (-0.00020647760009765624, 2.46875) (-0.00020494613647460938, 2.470703125) (-0.00020348202514648437, 2.47265625) (-0.000202084716796875, 2.474609375) (-0.0002007528839111328, 2.4765625) (-0.0001994844055175781, 2.478515625) (-0.0001982765197753906, 2.48046875) (-0.00019712586975097654, 2.482421875) (-0.0001960282287597656, 2.484375) (-0.00019497850036621092, 2.486328125) (-0.00019397096252441406, 2.48828125) (-0.00019299923706054688, 2.490234375) (-0.0001920566864013672, 2.4921875) (-0.00019113635253906248, 2.494140625) (-0.000190231201171875, 2.49609375) (-0.00018933407592773436, 2.498046875) (-0.0001884376678466797, 2.5) (-0.00018753466796875, 2.501953125) (-0.0001866177978515625, 2.50390625) (-0.00018567987060546875, 2.505859375) (-0.000184713623046875, 2.5078125) (-0.0001837117462158203, 2.509765625) (-0.00018266696166992187, 2.51171875) (-0.00018157208251953124, 2.513671875) (-0.00018042074584960938, 2.515625) (-0.00017920761108398438, 2.517578125) (-0.00017792796325683593, 2.51953125) (-0.00017657765197753904, 2.521484375) (-0.00017515390014648436, 2.5234375) (-0.0001736551055908203, 2.525390625) (-0.00017208099365234375, 2.52734375) (-0.0001704328155517578, 2.529296875) (-0.00016871186828613282, 2.53125) (-0.00016691905212402343, 2.533203125) (-0.00016505606079101563, 2.53515625) (-0.00016312538146972654, 2.537109375) (-0.00016112930297851563, 2.5390625) (-0.0001590705108642578, 2.541015625) (-0.00015695120239257813, 2.54296875) (-0.00015477282714843749, 2.544921875) (-0.000152538818359375, 2.546875) (-0.00015025482177734374, 2.548828125) (-0.00014792724609375, 2.55078125) (-0.000145563720703125, 2.552734375) (-0.00014317224121093749, 2.5546875) (-0.00014076051330566406, 2.556640625) (-0.00013833709716796875, 2.55859375) (-0.000135911376953125, 2.560546875) (-0.00013349090576171875, 2.5625) (-0.0001310820770263672, 2.564453125) (-0.00012868878173828124, 2.56640625) (-0.00012631178283691404, 2.568359375) (-0.0001239541473388672, 2.5703125) (-0.00012162071228027344, 2.572265625) (-0.00011931837463378906, 2.57421875) (-0.00011705734252929687, 2.576171875) (-0.0001148437042236328, 2.578125) (-0.00011267784118652344, 2.580078125) (-0.00011056008911132812, 2.58203125) (-0.00010848967742919921, 2.583984375) (-0.0001064588394165039, 2.5859375) (-0.00010445568084716797, 2.587890625) (-0.00010245831298828125, 2.58984375) (-0.00010043363952636719, 2.591796875) (-9.835820007324219e-05, 2.59375) (-9.621778869628905e-05, 2.595703125) (-9.400498962402344e-05, 2.59765625) (-9.172308349609375e-05, 2.599609375) (-8.937413787841797e-05, 2.6015625) (-8.69589614868164e-05, 2.603515625) (-8.448043823242187e-05, 2.60546875) (-8.194075012207031e-05, 2.607421875) (-7.934197998046875e-05, 2.609375) (-7.668904113769531e-05, 2.611328125) (-7.398179626464844e-05, 2.61328125) (-7.121578979492187e-05, 2.615234375) (-6.840433502197265e-05, 2.6171875) (-6.557259368896484e-05, 2.619140625) (-6.277031326293944e-05, 2.62109375) (-6.007704925537109e-05, 2.623046875) (-5.755529403686523e-05, 2.625) (-5.525214767456055e-05, 2.626953125) (-5.3204486846923826e-05, 2.62890625) (-5.14295654296875e-05, 2.630859375) (-4.99375991821289e-05, 2.6328125) (-4.8733428955078125e-05, 2.634765625) (-4.780556488037109e-05, 2.63671875) (-4.712841796875e-05, 2.638671875) (-4.6686981201171873e-05, 2.640625) (-4.647028732299804e-05, 2.642578125) (-4.647654724121094e-05, 2.64453125) (-4.6716732025146484e-05, 2.646484375) (-4.7172401428222655e-05, 2.6484375) (-4.780601119995117e-05, 2.650390625) (-4.85427131652832e-05, 2.65234375) (-4.925597381591797e-05, 2.654296875) (-4.9826644897460934e-05, 2.65625) (-5.013934326171875e-05, 2.658203125) (-5.0079624176025386e-05, 2.66015625) (-4.9552818298339844e-05, 2.662109375) (-4.8480224609375e-05, 2.6640625) (-4.6788436889648434e-05, 2.666015625) (-4.442878723144531e-05, 2.66796875) (-4.1385459899902345e-05, 2.669921875) (-3.7627044677734376e-05, 2.671875) (-3.312881088256836e-05, 2.673828125) (-2.7880762100219724e-05, 2.67578125) (-2.185991287231445e-05, 2.677734375) (-1.506635570526123e-05, 2.6796875) (-7.523413181304931e-06, 2.681640625) (6.933343410491943e-07, 2.68359375) (9.420099258422851e-06, 2.685546875) (1.844167137145996e-05, 2.6875) (2.749768257141113e-05, 2.689453125) (3.6356132507324214e-05, 2.69140625) (4.482596588134765e-05, 2.693359375) (5.262989044189453e-05, 2.6953125) (5.940423965454101e-05, 2.697265625) (6.472512817382812e-05, 2.69921875) (6.814907836914062e-05, 2.701171875) (6.935071563720702e-05, 2.703125) (6.820960235595703e-05, 2.705078125) (6.453453063964844e-05, 2.70703125) (5.7954673767089844e-05, 2.708984375) (4.834902191162109e-05, 2.7109375) (3.572840499877929e-05, 2.712890625) (2.0365320205688474e-05, 2.71484375) (3.176084995269775e-06, 2.716796875) (-1.5103113174438475e-05, 2.71875) (-3.4475753784179685e-05, 2.720703125) (-5.477816772460937e-05, 2.72265625) (-7.644548034667969e-05, 2.724609375) (-0.00010111724853515624, 2.7265625) (-0.0001285876007080078, 2.728515625) (-0.00015833863830566405, 2.73046875) (-0.0001895980682373047, 2.732421875) (-0.00021874018859863281, 2.734375) (-0.0002463517150878906, 2.736328125) (-0.00027667825317382813, 2.73828125) (-0.0003137562255859375, 2.740234375) (-0.0003635839233398437, 2.7421875) (-0.0004249866027832031, 2.744140625) (-0.000488606201171875, 2.74609375) (-0.0005453398437499999, 2.748046875) (-0.0005858585815429687, 2.75) (-0.0006063532104492187, 2.751953125) (-0.0006100137939453125, 2.75390625) (-0.0005987400512695312, 2.755859375) (-0.0005736002197265624, 2.7578125) (-0.0005350765380859375, 2.759765625) (-0.00048272509765625, 2.76171875) (-0.00041882214355468746, 2.763671875) (-0.00034743109130859376, 2.765625) (-0.0002725174560546875, 2.767578125) (-0.00019756491088867187, 2.76953125) (-0.00012566997528076171, 2.771484375) (-5.997575378417969e-05, 2.7734375) (-3.2146759033203125e-06, 2.775390625) (4.274213409423828e-05, 2.77734375) (7.745356750488281e-05, 2.779296875) (0.00010185455322265625, 2.78125) (0.00011731684875488281, 2.783203125) (0.00012497354125976562, 2.78515625) (0.0001262821807861328, 2.787109375) (0.0001232422103881836, 2.7890625) (0.00011790951538085937, 2.791015625) (0.00011229095458984375, 2.79296875) (0.00010752745056152344, 2.794921875) (0.00010371625518798828, 2.796875) (0.00010068946838378905, 2.798828125) (9.827254486083983e-05, 2.80078125) (9.615110015869141e-05, 2.802734375) (9.387629699707031e-05, 2.8046875) (9.079745483398436e-05, 2.806640625) (8.61064453125e-05, 2.80859375) (7.948880767822265e-05, 2.810546875) (7.115853881835937e-05, 2.8125) (6.151618576049805e-05, 2.814453125) (5.1106849670410156e-05, 2.81640625) (4.040431213378906e-05, 2.818359375) (2.9772060394287108e-05, 2.8203125) (1.9680410385131833e-05, 2.822265625) (1.065753936767578e-05, 2.82421875) (3.0613842010498045e-06, 2.826171875) (-2.893970966339111e-06, 2.828125) (-7.150577545166015e-06, 2.830078125) (-9.804265022277832e-06, 2.83203125) (-1.0948281288146973e-05, 2.833984375) (-1.0673044204711913e-05, 2.8359375) (-9.097038269042968e-06, 2.837890625) (-6.354791164398193e-06, 2.83984375) (-2.602201223373413e-06, 2.841796875) (1.995073556900024e-06, 2.84375) (7.269751548767089e-06, 2.845703125) (1.3053489685058594e-05, 2.84765625) (1.9212711334228515e-05, 2.849609375) (2.5645687103271482e-05, 2.8515625) (3.2230712890625e-05, 2.853515625) (3.884580230712891e-05, 2.85546875) (4.534958267211914e-05, 2.857421875) (5.156681823730469e-05, 2.859375) (5.738414001464843e-05, 2.861328125) (6.274515533447266e-05, 2.86328125) (6.760704040527344e-05, 2.865234375) (7.195910644531249e-05, 2.8671875) (7.579326629638671e-05, 2.869140625) (7.909732055664062e-05, 2.87109375) (8.190139770507813e-05, 2.873046875) (8.426832580566406e-05, 2.875) (8.626516723632813e-05, 2.876953125) (8.796834564208984e-05, 2.87890625) (8.943039703369141e-05, 2.880859375) (9.067655944824218e-05, 2.8828125) (9.175458526611327e-05, 2.884765625) (9.272280883789062e-05, 2.88671875) (9.365257263183593e-05, 2.888671875) (9.463821411132813e-05, 2.890625) (9.573825073242187e-05, 2.892578125) (9.697612762451171e-05, 2.89453125) (9.837351989746093e-05, 2.896484375) (9.99388427734375e-05, 2.8984375) (0.0001016750259399414, 2.900390625) (0.00010358669281005858, 2.90234375) (0.00010565408325195312, 2.904296875) (0.00010783493041992186, 2.90625) (0.00011009265899658202, 2.908203125) (0.00011239312744140624, 2.91015625) (0.00011470866394042968, 2.912109375) (0.00011702322387695312, 2.9140625) (0.00011930947875976562, 2.916015625) (0.00012153146362304687, 2.91796875) (0.00012365097045898438, 2.919921875) (0.0001256240463256836, 2.921875) (0.00012741891479492188, 2.923828125) (0.00012901669311523437, 2.92578125) (0.00013039898681640625, 2.927734375) (0.00013155096435546874, 2.9296875) (0.00013246243286132813, 2.931640625) (0.00013312525939941405, 2.93359375) (0.0001335408477783203, 2.935546875) (0.00013372036743164063, 2.9375) (0.00013367129516601563, 2.939453125) (0.00013339831542968748, 2.94140625) (0.00013290652465820313, 2.943359375) (0.00013219921875, 2.9453125) (0.000131283935546875, 2.947265625) (0.00013017257690429686, 2.94921875) (0.00012887710571289062, 2.951171875) (0.00012741014099121092, 2.953125) (0.00012578440856933593, 2.955078125) (0.00012401248931884765, 2.95703125) (0.0001221080322265625, 2.958984375) (0.00012008584594726562, 2.9609375) (0.00011796012115478515, 2.962890625) (0.00011574456787109374, 2.96484375) (0.00011345219421386718, 2.966796875) (0.0001110950469970703, 2.96875) (0.00010868659210205078, 2.970703125) (0.0001062415771484375, 2.97265625) (0.00010377488708496093, 2.974609375) (0.00010130165100097655, 2.9765625) (9.88365249633789e-05, 2.978515625) (9.63935317993164e-05, 2.98046875) (9.398668670654297e-05, 2.982421875) (9.162980651855469e-05, 2.984375) (8.933547973632812e-05, 2.986328125) (8.711505889892577e-05, 2.98828125) (8.497894287109374e-05, 2.990234375) (8.293647766113281e-05, 2.9921875) (8.099627685546875e-05, 2.994140625) (7.916620635986327e-05, 2.99609375) (7.745304870605468e-05, 2.998046875) (7.586251068115234e-05, 3.0) (7.439947509765625e-05, 3.001953125) (7.306802368164062e-05, 3.00390625) (7.187118530273437e-05, 3.005859375) (7.081094360351562e-05, 3.0078125) (6.98883056640625e-05, 3.009765625) (6.910330200195313e-05, 3.01171875) (6.845523071289063e-05, 3.013671875) (6.794281005859375e-05, 3.015625) (6.75639190673828e-05, 3.017578125) (6.731566619873046e-05, 3.01953125) (6.719451141357422e-05, 3.021484375) (6.71962661743164e-05, 3.0234375) (6.731631469726562e-05, 3.025390625) (6.754971313476562e-05, 3.02734375) (6.789108276367187e-05, 3.029296875) (6.833470153808594e-05, 3.03125) (6.887456512451171e-05, 3.033203125) (6.950444030761718e-05, 3.03515625) (7.021804046630859e-05, 3.037109375) (7.10091552734375e-05, 3.0390625) (7.187154388427734e-05, 3.041015625) (7.279895782470703e-05, 3.04296875) (7.378516387939452e-05, 3.044921875) (7.482395935058594e-05, 3.046875) (7.590947723388672e-05, 3.048828125) (7.703620147705078e-05, 3.05078125) (7.81988525390625e-05, 3.052734375) (7.939239501953125e-05, 3.0546875) (8.061204528808594e-05, 3.056640625) (8.185319519042969e-05, 3.05859375) (8.311161041259765e-05, 3.060546875) (8.438340759277344e-05, 3.0625) (8.566490173339844e-05, 3.064453125) (8.695257568359375e-05, 3.06640625) (8.824314880371093e-05, 3.068359375) (8.953353881835937e-05, 3.0703125) (9.082095336914062e-05, 3.072265625) (9.210292053222656e-05, 3.07421875) (9.337716674804687e-05, 3.076171875) (9.464160919189452e-05, 3.078125) (9.589431762695311e-05, 3.080078125) (9.713351440429688e-05, 3.08203125) (9.835768127441406e-05, 3.083984375) (9.956542205810546e-05, 3.0859375) (0.00010075541687011718, 3.087890625) (0.00010192642211914063, 3.08984375) (0.00010307720947265625, 3.091796875) (0.00010420652770996093, 3.09375) (0.00010531324005126952, 3.095703125) (0.00010639620971679687, 3.09765625) (0.00010745433044433593, 3.099609375) (0.00010848642730712891, 3.1015625) (0.00010949127197265624, 3.103515625) (0.00011046762084960936, 3.10546875) (0.00011141424560546874, 3.107421875) (0.00011232997894287109, 3.109375) (0.00011321358489990234, 3.111328125) (0.00011406375122070312, 3.11328125) (0.00011487912750244141, 3.115234375) (0.00011565826416015624, 3.1171875) (0.00011639977264404296, 3.119140625) (0.0001171022491455078, 3.12109375) (0.00011776425170898436, 3.123046875) (0.00011838431549072265, 3.125) (0.00011896094512939452, 3.126953125) (0.00011949270629882811, 3.12890625) (0.00011997821807861328, 3.130859375) (0.00012041616821289062, 3.1328125) (0.00012080528259277343, 3.134765625) (0.00012114430236816405, 3.13671875) (0.00012143197631835937, 3.138671875) (0.00012166711425781249, 3.140625) (0.0001218486328125, 3.142578125) (0.00012197555541992187, 3.14453125) (0.00012204698181152343, 3.146484375) (0.00012206201171874999, 3.1484375) (0.00012201994323730468, 3.150390625) (0.0001219201431274414, 3.15234375) (0.00012176226806640625, 3.154296875) (0.00012154620361328124, 3.15625) (0.00012127200317382812, 3.158203125) (0.00012093984985351562, 3.16015625) (0.00012055021667480469, 3.162109375) (0.00012010380554199219, 3.1640625) (0.0001196015625, 3.166015625) (0.00011904473876953125, 3.16796875) (0.00011843475341796874, 3.169921875) (0.00011777307891845703, 3.171875) (0.00011706141662597655, 3.173828125) (0.00011630165863037109, 3.17578125) (0.00011549594116210937, 3.177734375) (0.000114646728515625, 3.1796875) (0.00011375674438476562, 3.181640625) (0.0001128288345336914, 3.18359375) (0.0001118661651611328, 3.185546875) (0.00011087216186523437, 3.1875) (0.00010985049438476562, 3.189453125) (0.00010880517578125, 3.19140625) (0.0001077403106689453, 3.193359375) (0.00010665999603271484, 3.1953125) (0.00010556839752197264, 3.197265625) (0.00010446980285644531, 3.19921875) (0.0001033686065673828, 3.201171875) (0.0001022693862915039, 3.203125) (0.00010117671203613281, 3.205078125) (0.00010009508514404296, 3.20703125) (9.90291519165039e-05, 3.208984375) (9.798370361328125e-05, 3.2109375) (9.696353149414062e-05, 3.212890625) (9.597345733642578e-05, 3.21484375) (9.501810455322265e-05, 3.216796875) (9.410172271728515e-05, 3.21875) (9.322845458984375e-05, 3.220703125) (9.24022979736328e-05, 3.22265625) (9.162676239013672e-05, 3.224609375) (9.09049835205078e-05, 3.2265625) (9.023970031738281e-05, 3.228515625) (8.963302612304687e-05, 3.23046875) (8.908696746826172e-05, 3.232421875) (8.86033706665039e-05, 3.234375) (8.818376159667969e-05, 3.236328125) (8.782937622070313e-05, 3.23828125) (8.754107666015624e-05, 3.240234375) (8.73189697265625e-05, 3.2421875) (8.716261291503907e-05, 3.244140625) (8.707110595703124e-05, 3.24609375) (8.70428009033203e-05, 3.248046875) (8.707536315917968e-05, 3.25) (8.716571044921875e-05, 3.251953125) (8.730975341796875e-05, 3.25390625) (8.750294494628905e-05, 3.255859375) (8.774065399169921e-05, 3.2578125) (8.801786041259765e-05, 3.259765625) (8.832921600341797e-05, 3.26171875) (8.866909790039062e-05, 3.263671875) (8.90312042236328e-05, 3.265625) (8.940904235839843e-05, 3.267578125) (8.979610443115234e-05, 3.26953125) (9.018511962890625e-05, 3.271484375) (9.056816101074218e-05, 3.2734375) (9.093706512451171e-05, 3.275390625) (9.128324127197266e-05, 3.27734375) (9.159789276123046e-05, 3.279296875) (9.187258148193358e-05, 3.28125) (9.209842681884765e-05, 3.283203125) (9.226612091064452e-05, 3.28515625) (9.236770629882812e-05, 3.287109375) (9.239595794677733e-05, 3.2890625) (9.234413146972655e-05, 3.291015625) (9.220654296874999e-05, 3.29296875) (9.197764587402343e-05, 3.294921875) (9.16514892578125e-05, 3.296875) (9.122343444824218e-05, 3.298828125) (9.068988037109375e-05, 3.30078125) (9.004618072509765e-05, 3.302734375) (8.928801727294921e-05, 3.3046875) (8.841091156005859e-05, 3.306640625) (8.740938568115234e-05, 3.30859375) (8.62802734375e-05, 3.310546875) (8.502307891845703e-05, 3.3125) (8.363853454589843e-05, 3.314453125) (8.212986755371093e-05, 3.31640625) (8.050175476074218e-05, 3.318359375) (7.875830078125e-05, 3.3203125) (7.690644836425782e-05, 3.322265625) (7.495654296874999e-05, 3.32421875) (7.291685485839843e-05, 3.326171875) (7.079542541503905e-05, 3.328125) (6.859648895263671e-05, 3.330078125) (6.631795501708985e-05, 3.33203125) (6.396505737304687e-05, 3.333984375) (6.155152511596679e-05, 3.3359375) (5.9095504760742185e-05, 3.337890625) (5.6622039794921875e-05, 3.33984375) (5.4155807495117185e-05, 3.341796875) (5.171640396118164e-05, 3.34375) (4.932936859130859e-05, 3.345703125) (4.7026359558105464e-05, 3.34765625) (4.4829704284667966e-05, 3.349609375) (4.2756488800048826e-05, 3.3515625) (4.0811317443847656e-05, 3.353515625) (3.897984313964844e-05, 3.35546875) (3.725650024414062e-05, 3.357421875) (3.564689254760742e-05, 3.359375) (3.416588973999023e-05, 3.361328125) (3.284518814086914e-05, 3.36328125) (3.1706569671630856e-05, 3.365234375) (3.074989891052246e-05, 3.3671875) (2.996635627746582e-05, 3.369140625) (2.9339641571044922e-05, 3.37109375) (2.884763717651367e-05, 3.373046875) (2.846910858154297e-05, 3.375) (2.816211700439453e-05, 3.376953125) (2.785506820678711e-05, 3.37890625) (2.749081802368164e-05, 3.380859375) (2.7034671783447266e-05, 3.3828125) (2.648245048522949e-05, 3.384765625) (2.5872226715087888e-05, 3.38671875) (2.5229202270507813e-05, 3.388671875) (2.4551059722900388e-05, 3.390625) (2.3820785522460936e-05, 3.392578125) (2.299922943115234e-05, 3.39453125) (2.2054330825805663e-05, 3.396484375) (2.0981672286987305e-05, 3.3984375) (1.9784706115722655e-05, 3.400390625) (1.846279716491699e-05, 3.40234375) (1.7024173736572266e-05, 3.404296875) (1.548996925354004e-05, 3.40625) (1.3914864540100097e-05, 3.408203125) (1.2408391952514648e-05, 3.41015625) (1.1075817108154296e-05, 3.412109375) (9.980619430541991e-06, 3.4140625) (9.137479782104492e-06, 3.416015625) (8.507498741149903e-06, 3.41796875) (8.061516761779785e-06, 3.419921875) (7.80615520477295e-06, 3.421875) (7.76971435546875e-06, 3.423828125) (7.990765571594237e-06, 3.42578125) (8.497685432434081e-06, 3.427734375) (9.310355186462403e-06, 3.4296875) (1.0436902999877929e-05, 3.431640625) (1.1889314651489257e-05, 3.43359375) (1.367573833465576e-05, 3.435546875) (1.5743828773498534e-05, 3.4375) (1.7990318298339843e-05, 3.439453125) (2.027577018737793e-05, 3.44140625) (2.2409976959228514e-05, 3.443359375) (2.4174648284912107e-05, 3.4453125) (2.5415512084960935e-05, 3.447265625) (2.6033866882324218e-05, 3.44921875) (2.5861042022705077e-05, 3.451171875) (2.477075958251953e-05, 3.453125) (2.2596361160278318e-05, 3.455078125) (1.8993242263793945e-05, 3.45703125) (1.3748899459838866e-05, 3.458984375) (6.8899941444396965e-06, 3.4609375) (-1.6771612167358397e-06, 3.462890625) (-1.2182275772094726e-05, 3.46484375) (-2.4601375579833984e-05, 3.466796875) (-3.910032272338867e-05, 3.46875) (-5.508674621582031e-05, 3.470703125) (-7.036825561523437e-05, 3.47265625) (-8.35542984008789e-05, 3.474609375) (-9.495222473144531e-05, 3.4765625) (-0.00010752412414550781, 3.478515625) (-0.00012782199096679687, 3.48046875) (-0.00016073446655273438, 3.482421875) (-0.000204200927734375, 3.484375) (-0.00024936682128906247, 3.486328125) (-0.00028253573608398434, 3.48828125) (-0.00029337130737304684, 3.490234375) (-0.00028522808837890624, 3.4921875) (-0.0002732593994140625, 3.494140625) (-0.00027757940673828126, 3.49609375) (-0.0003131101379394531, 3.498046875) (-0.0003787230224609375, 3.5) (-0.0004602667846679687, 3.501953125) (-0.000539556396484375, 3.50390625) (-0.0006045262451171875, 3.505859375) (-0.0006540896606445312, 3.5078125) (-0.0006933619384765625, 3.509765625) (-0.0007262385253906249, 3.51171875) (-0.000746789306640625, 3.513671875) (-0.0007427310180664062, 3.515625) (-0.0007031880493164062, 3.517578125) (-0.0006249754638671874, 3.51953125) (-0.0005199616088867187, 3.521484375) (-0.000407161376953125, 3.5234375) (-0.0003051467590332031, 3.525390625) (-0.00022651951599121092, 3.52734375) (-0.00017097355651855467, 3.529296875) (-0.00013191854858398436, 3.53125) (-0.00010043025207519531, 3.533203125) (-6.865428924560546e-05, 3.53515625) (-3.536149978637695e-05, 3.537109375) (-3.000117301940918e-06, 3.5390625) (2.4341880798339842e-05, 3.541015625) (4.350736999511719e-05, 3.54296875) (5.4929782867431636e-05, 3.544921875) (6.148699188232421e-05, 3.546875) (6.681183624267578e-05, 3.548828125) (7.265024566650391e-05, 3.55078125) (7.859487915039062e-05, 3.552734375) (8.382176971435547e-05, 3.5546875) (8.763096618652343e-05, 3.556640625) (9.007606506347656e-05, 3.55859375) (9.174346160888671e-05, 3.560546875) (9.256059265136719e-05, 3.5625) (9.203205871582031e-05, 3.564453125) (9.047261047363281e-05, 3.56640625) (8.894664001464843e-05, 3.568359375) (8.832551574707031e-05, 3.5703125) (8.91778335571289e-05, 3.572265625) (9.142526245117187e-05, 3.57421875) (9.431413269042968e-05, 3.576171875) (9.752563476562499e-05, 3.578125) (0.00010116365814208984, 3.580078125) (0.00010487896728515625, 3.58203125) (0.00010796329498291015, 3.583984375) (0.0001098902359008789, 3.5859375) (0.00011030484771728516, 3.587890625) (0.00010937103271484374, 3.58984375) (0.00010783415222167968, 3.591796875) (0.00010611874389648437, 3.59375) (0.00010430323791503906, 3.595703125) (0.00010254354858398437, 3.59765625) (0.00010097930908203125, 3.599609375) (9.970025634765625e-05, 3.6015625) (9.878143310546874e-05, 3.603515625) (9.803146362304687e-05, 3.60546875) (9.698926544189453e-05, 3.607421875) (9.535082244873046e-05, 3.609375) (9.298738098144531e-05, 3.611328125) (8.984202575683594e-05, 3.61328125) (8.597262573242187e-05, 3.615234375) (8.142425537109375e-05, 3.6171875) (7.620264434814453e-05, 3.619140625) (7.038361358642578e-05, 3.62109375) (6.409938049316406e-05, 3.623046875) (5.7460041046142575e-05, 3.625) (5.055635833740234e-05, 3.626953125) (4.345128631591797e-05, 3.62890625) (3.616890716552734e-05, 3.630859375) (2.8752824783325193e-05, 3.6328125) (2.127487564086914e-05, 3.634765625) (1.3811677932739257e-05, 3.63671875) (6.451171875e-06, 3.638671875) (-7.250657081604004e-07, 3.640625) (-7.658952713012695e-06, 3.642578125) (-1.4305107116699218e-05, 3.64453125) (-2.0628087997436523e-05, 3.646484375) (-2.660135269165039e-05, 3.6484375) (-3.2200767517089845e-05, 3.650390625) (-3.7407894134521485e-05, 3.65234375) (-4.221450805664062e-05, 3.654296875) (-4.661457824707031e-05, 3.65625) (-5.059831237792969e-05, 3.658203125) (-5.4150917053222655e-05, 3.66015625) (-5.7249107360839843e-05, 3.662109375) (-5.98744888305664e-05, 3.6640625) (-6.202406311035155e-05, 3.666015625) (-6.370319366455078e-05, 3.66796875) (-6.492668151855468e-05, 3.669921875) (-6.57165069580078e-05, 3.671875) (-6.60887451171875e-05, 3.673828125) (-6.606059265136718e-05, 3.67578125) (-6.565719604492187e-05, 3.677734375) (-6.489787292480469e-05, 3.6796875) (-6.379554748535156e-05, 3.681640625) (-6.235704803466797e-05, 3.68359375) (-6.057386016845703e-05, 3.685546875) (-5.8437034606933594e-05, 3.6875) (-5.5951705932617185e-05, 3.689453125) (-5.313285064697265e-05, 3.69140625) (-5.000865936279297e-05, 3.693359375) (-4.660874938964844e-05, 3.6953125) (-4.2946125030517574e-05, 3.697265625) (-3.903114318847656e-05, 3.69921875) (-3.4873172760009765e-05, 3.701171875) (-3.046803855895996e-05, 3.703125) (-2.581631851196289e-05, 3.705078125) (-2.0913978576660156e-05, 3.70703125) (-1.5736921310424804e-05, 3.708984375) (-1.0278286933898925e-05, 3.7109375) (-4.55809211730957e-06, 3.712890625) (1.3870072364807128e-06, 3.71484375) (7.486532688140869e-06, 3.716796875) (1.3656656265258788e-05, 3.71875) (1.9836788177490235e-05, 3.720703125) (2.5977691650390622e-05, 3.72265625) (3.204039764404297e-05, 3.724609375) (3.799528884887695e-05, 3.7265625) (4.3795894622802735e-05, 3.728515625) (4.939481735229492e-05, 3.73046875) (5.4754241943359374e-05, 3.732421875) (5.9821838378906244e-05, 3.734375) (6.454505920410155e-05, 3.736328125) (6.8864013671875e-05, 3.73828125) (7.269097900390625e-05, 3.740234375) (7.595932006835937e-05, 3.7421875) (7.864462280273437e-05, 3.744140625) (8.074611663818358e-05, 3.74609375) (8.230596160888672e-05, 3.748046875) (8.339250183105469e-05, 3.75) (8.404910278320313e-05, 3.751953125) (8.431070709228515e-05, 3.75390625) (8.421279144287109e-05, 3.755859375) (8.37767333984375e-05, 3.7578125) (8.303401947021483e-05, 3.759765625) (8.201751708984375e-05, 3.76171875) (8.074335479736328e-05, 3.763671875) (7.923696899414062e-05, 3.765625) (7.753436279296874e-05, 3.767578125) (7.568277740478516e-05, 3.76953125) (7.375618743896484e-05, 3.771484375) (7.181897735595703e-05, 3.7734375) (6.99011993408203e-05, 3.775390625) (6.801582336425781e-05, 3.77734375) (6.614781951904296e-05, 3.779296875) (6.426044464111327e-05, 3.78125) (6.233639907836914e-05, 3.783203125) (6.036484146118164e-05, 3.78515625) (5.832964324951172e-05, 3.787109375) (5.6229187011718746e-05, 3.7890625) (5.40638198852539e-05, 3.791015625) (5.1835884094238276e-05, 3.79296875) (4.956571578979492e-05, 3.794921875) (4.727465057373047e-05, 3.796875) (4.497285461425781e-05, 3.798828125) (4.266297912597656e-05, 3.80078125) (4.0334327697753905e-05, 3.802734375) (3.797614288330078e-05, 3.8046875) (3.559447479248047e-05, 3.806640625) (3.3203319549560546e-05, 3.80859375) (3.082561111450195e-05, 3.810546875) (2.8494138717651364e-05, 3.8125) (2.6233818054199218e-05, 3.814453125) (2.4066749572753906e-05, 3.81640625) (2.201947784423828e-05, 3.818359375) (2.0110862731933594e-05, 3.8203125) (1.8353981018066405e-05, 3.822265625) (1.6758811950683593e-05, 3.82421875) (1.5324689865112306e-05, 3.826171875) (1.4046110153198241e-05, 3.828125) (1.2922584533691406e-05, 3.830078125) (1.1955400466918944e-05, 3.83203125) (1.1147453308105467e-05, 3.833984375) (1.0503177642822265e-05, 3.8359375) (1.0022216796875e-05, 3.837890625) (9.701205253601073e-06, 3.83984375) (9.536131858825684e-06, 3.841796875) (9.520326614379882e-06, 3.84375) (9.646591186523437e-06, 3.845703125) (9.906925201416015e-06, 3.84765625) (1.0290522575378418e-05, 3.849609375) (1.0786792755126953e-05, 3.8515625) (1.1386713027954101e-05, 3.853515625) (1.2081571578979492e-05, 3.85546875) (1.2864215850830078e-05, 3.857421875) (1.3728641510009766e-05, 3.859375) (1.4667099952697754e-05, 3.861328125) (1.5671121597290037e-05, 3.86328125) (1.673245048522949e-05, 3.865234375) (1.7841712951660156e-05, 3.8671875) (1.8989253997802734e-05, 3.869140625) (2.0165523529052735e-05, 3.87109375) (2.1360063552856444e-05, 3.873046875) (2.256216812133789e-05, 3.875) (2.376197814941406e-05, 3.876953125) (2.4950164794921873e-05, 3.87890625) (2.6117883682250974e-05, 3.880859375) (2.7257167816162107e-05, 3.8828125) (2.8360431671142577e-05, 3.884765625) (2.942055320739746e-05, 3.88671875) (3.0431304931640624e-05, 3.888671875) (3.138717269897461e-05, 3.890625) (3.228326797485351e-05, 3.892578125) (3.311541748046875e-05, 3.89453125) (3.388011169433594e-05, 3.896484375) (3.4574462890625e-05, 3.8984375) (3.5196334838867184e-05, 3.900390625) (3.5744308471679686e-05, 3.90234375) (3.6217559814453124e-05, 3.904296875) (3.661599731445312e-05, 3.90625) (3.694021606445312e-05, 3.908203125) (3.719153594970703e-05, 3.91015625) (3.737202453613281e-05, 3.912109375) (3.7484413146972656e-05, 3.9140625) (3.753199005126953e-05, 3.916015625) (3.75186538696289e-05, 3.91796875) (3.744888687133789e-05, 3.919921875) (3.732757949829101e-05, 3.921875) (3.716011047363281e-05, 3.923828125) (3.695226287841797e-05, 3.92578125) (3.671003723144531e-05, 3.927734375) (3.6439758300781245e-05, 3.9296875) (3.6148075103759766e-05, 3.931640625) (3.584185791015625e-05, 3.93359375) (3.5528129577636716e-05, 3.935546875) (3.521428680419922e-05, 3.9375) (3.490792465209961e-05, 3.939453125) (3.4616172790527345e-05, 3.94140625) (3.434569549560547e-05, 3.943359375) (3.4103271484375e-05, 3.9453125) (3.389521026611328e-05, 3.947265625) (3.3728179931640625e-05, 3.94921875) (3.360976791381836e-05, 3.951171875) (3.3544101715087886e-05, 3.953125) (3.3531887054443355e-05, 3.955078125) (3.357492446899414e-05, 3.95703125) (3.367488479614258e-05, 3.958984375) (3.383415222167969e-05, 3.9609375) (3.405904388427734e-05, 3.962890625) (3.434945297241211e-05, 3.96484375) (3.469608688354492e-05, 3.966796875) (3.5103824615478514e-05, 3.96875) (3.5589195251464845e-05, 3.970703125) (3.6163848876953125e-05, 3.97265625) (3.684157562255859e-05, 3.974609375) (3.762002944946289e-05, 3.9765625) (3.846897888183594e-05, 3.978515625) (3.9381332397460937e-05, 3.98046875) (4.038072967529297e-05, 3.982421875) (4.144126892089843e-05, 3.984375) (4.2497459411621094e-05, 3.986328125) (4.34974365234375e-05, 3.98828125) (4.438270568847656e-05, 3.990234375) (4.5142013549804686e-05, 3.9921875) (4.58469352722168e-05, 3.994140625) (4.651144790649414e-05, 3.99609375) (4.704592132568359e-05, 3.998046875) (4.753121185302734e-05, 4.0) (4.8258949279785154e-05, 4.001953125) (4.928070831298828e-05, 4.00390625) (5.0503002166748044e-05, 4.005859375) (5.195832061767578e-05, 4.0078125) (5.331317138671875e-05, 4.009765625) (5.517807006835937e-05, 4.01171875) (5.940052795410156e-05, 4.013671875) (6.55368423461914e-05, 4.015625) (7.189651489257812e-05, 4.017578125) (7.563624572753906e-05, 4.01953125) (7.146686553955078e-05, 4.021484375) (5.981376266479492e-05, 4.0234375) (4.5951377868652344e-05, 4.025390625) (3.517311096191406e-05, 4.02734375) (3.499184799194336e-05, 4.029296875) (4.573856353759765e-05, 4.03125) (6.0335544586181635e-05, 4.033203125) (7.332221221923828e-05, 4.03515625) (7.875765228271484e-05, 4.037109375) (7.571940612792968e-05, 4.0390625) (6.950717163085937e-05, 4.041015625) (6.333890533447265e-05, 4.04296875) (5.945461273193359e-05, 4.044921875) (5.848443222045898e-05, 4.046875) (5.826537322998047e-05, 4.048828125) (5.784471893310547e-05, 4.05078125) (5.729181671142578e-05, 4.052734375) (5.653900909423828e-05, 4.0546875) (5.591848373413086e-05, 4.056640625) (5.550904464721679e-05, 4.05859375) (5.5023590087890624e-05, 4.060546875) (5.438158416748047e-05, 4.0625) (5.3637107849121095e-05, 4.064453125) (5.278682708740234e-05, 4.06640625) (5.1822700500488276e-05, 4.068359375) (5.076129913330078e-05, 4.0703125) (4.96202392578125e-05, 4.072265625) (4.843160629272461e-05, 4.07421875) (4.725020599365234e-05, 4.076171875) (4.6095058441162105e-05, 4.078125) (4.494702529907227e-05, 4.080078125) (4.380303955078125e-05, 4.08203125) (4.266950607299804e-05, 4.083984375) (4.154878234863281e-05, 4.0859375) (4.0446475982666014e-05, 4.087890625) (3.93642463684082e-05, 4.08984375) (3.8298393249511715e-05, 4.091796875) (3.7250640869140624e-05, 4.09375) (3.6226989746093746e-05, 4.095703125) (3.523118591308593e-05, 4.09765625) (3.426626586914062e-05, 4.099609375) (3.333480072021484e-05, 4.1015625) (3.2438262939453126e-05, 4.103515625) (3.1578622817993164e-05, 4.10546875) (3.07576732635498e-05, 4.107421875) (2.997649002075195e-05, 4.109375) (2.9236619949340818e-05, 4.111328125) (2.8539810180664062e-05, 4.11328125) (2.788717460632324e-05, 4.115234375) (2.7279527664184567e-05, 4.1171875) (2.6717159271240235e-05, 4.119140625) (2.6199726104736326e-05, 4.12109375) (2.5727670669555664e-05, 4.123046875) (2.530206489562988e-05, 4.125) (2.49228458404541e-05, 4.126953125) (2.4589212417602538e-05, 4.12890625) (2.4300750732421874e-05, 4.130859375) (2.4057092666625977e-05, 4.1328125) (2.38585262298584e-05, 4.134765625) (2.370682716369629e-05, 4.13671875) (2.3602731704711912e-05, 4.138671875) (2.3546155929565427e-05, 4.140625) (2.3538349151611327e-05, 4.142578125) (2.358074951171875e-05, 4.14453125) (2.3675643920898437e-05, 4.146484375) (2.3826930999755857e-05, 4.1484375) (2.4037954330444334e-05, 4.150390625) (2.431051826477051e-05, 4.15234375) (2.464624214172363e-05, 4.154296875) (2.504562568664551e-05, 4.15625) (2.5509990692138672e-05, 4.158203125) (2.6044094085693358e-05, 4.16015625) (2.6648937225341795e-05, 4.162109375) (2.7321434020996092e-05, 4.1640625) (2.8057594299316406e-05, 4.166015625) (2.8850217819213865e-05, 4.16796875) (2.9699649810791013e-05, 4.169921875) (3.061608123779297e-05, 4.171875) (3.160527992248535e-05, 4.173828125) (3.266853332519531e-05, 4.17578125) (3.380921936035156e-05, 4.177734375) (3.502792358398437e-05, 4.1796875) (3.6327743530273435e-05, 4.181640625) (3.772180557250976e-05, 4.18359375) (3.9212188720703124e-05, 4.185546875) (4.079151916503906e-05, 4.1875) (4.245669937133789e-05, 4.189453125) (4.419480895996093e-05, 4.19140625) (4.599869537353516e-05, 4.193359375) (4.787513732910156e-05, 4.1953125) (4.9825614929199213e-05, 4.197265625) (5.184738159179687e-05, 4.19921875) (5.392051315307617e-05, 4.201171875) (5.599481201171875e-05, 4.203125) (5.801503753662109e-05, 4.205078125) (5.99356575012207e-05, 4.20703125) (6.169930267333984e-05, 4.208984375) (6.324483108520507e-05, 4.2109375) (6.451005554199218e-05, 4.212890625) (6.541103363037109e-05, 4.21484375) (6.58931655883789e-05, 4.216796875) (6.593453216552734e-05, 4.21875) (6.55020751953125e-05, 4.220703125) (6.458329010009766e-05, 4.22265625) (6.316529464721679e-05, 4.224609375) (6.121580505371094e-05, 4.2265625) (5.872060394287109e-05, 4.228515625) (5.566667175292969e-05, 4.23046875) (5.206029891967773e-05, 4.232421875) (4.798112106323242e-05, 4.234375) (4.355784606933593e-05, 4.236328125) (3.893612670898437e-05, 4.23828125) (3.430228424072265e-05, 4.240234375) (2.9809823989868164e-05, 4.2421875) (2.5569732666015624e-05, 4.244140625) (2.1803705215454102e-05, 4.24609375) (1.8725475311279296e-05, 4.248046875) (1.6426698684692382e-05, 4.25) (1.4949104309082031e-05, 4.251953125) (1.414387321472168e-05, 4.25390625) (1.374919319152832e-05, 4.255859375) (1.3745267868041992e-05, 4.2578125) (1.4308122634887694e-05, 4.259765625) (1.5408296585083006e-05, 4.26171875) (1.685819435119629e-05, 4.263671875) (1.8669166564941405e-05, 4.265625) (2.0771715164184568e-05, 4.267578125) (2.3330104827880858e-05, 4.26953125) (2.7065753936767576e-05, 4.271484375) (3.115124130249023e-05, 4.2734375) (3.399481201171875e-05, 4.275390625) (3.572377777099609e-05, 4.27734375) (3.5910171508789064e-05, 4.279296875) (3.578941345214844e-05, 4.28125) (3.8004493713378906e-05, 4.283203125) (3.945583343505859e-05, 4.28515625) (3.596675872802734e-05, 4.287109375) (2.3804594039916993e-05, 4.2890625) (-2.551124334335327e-06, 4.291015625) (-4.0901962280273436e-05, 4.29296875) (-8.443121337890625e-05, 4.294921875) (-0.00012848989868164063, 4.296875) (-0.00016617399597167968, 4.298828125) (-0.00019495201110839843, 4.30078125) (-0.0002193849182128906, 4.302734375) (-0.00024230361938476562, 4.3046875) (-0.00026771118164062497, 4.306640625) (-0.0002996333312988281, 4.30859375) (-0.0003362994689941406, 4.310546875) (-0.0003764215393066406, 4.3125) (-0.00041972259521484375, 4.314453125) (-0.0004650760498046875, 4.31640625) (-0.0005131682739257812, 4.318359375) (-0.000563445556640625, 4.3203125) (-0.0006127936401367187, 4.322265625) (-0.0006572078857421874, 4.32421875) (-0.0006921797485351562, 4.326171875) (-0.0007140501098632813, 4.328125) (-0.0007202604370117187, 4.330078125) (-0.0007085689697265624, 4.33203125) (-0.0006778260498046875, 4.333984375) (-0.00062873876953125, 4.3359375) (-0.0005637335815429687, 4.337890625) (-0.0004870885009765625, 4.33984375) (-0.00040406555175781245, 4.341796875) (-0.0003194357299804687, 4.34375) (-0.00023776519775390624, 4.345703125) (-0.00016385693359374998, 4.34765625) (-0.00010153341674804687, 4.349609375) (-5.289714050292968e-05, 4.3515625) (-1.8519744873046873e-05, 4.353515625) (2.791940689086914e-06, 4.35546875) (1.3376487731933593e-05, 4.357421875) (1.553822708129883e-05, 4.359375) (1.1879528045654297e-05, 4.361328125) (5.687765598297119e-06, 4.36328125) (-9.98314619064331e-08, 4.365234375) (-3.580768585205078e-06, 4.3671875) (-3.785440444946289e-06, 4.369140625) (-7.98201322555542e-07, 4.37109375) (4.64520263671875e-06, 4.373046875) (1.1840368270874023e-05, 4.375) (1.99140625e-05, 4.376953125) (2.7582708358764648e-05, 4.37890625) (3.365226745605469e-05, 4.380859375) (3.746632385253906e-05, 4.3828125) (3.888287734985351e-05, 4.384765625) (3.8243705749511714e-05, 4.38671875) (3.615485382080078e-05, 4.388671875) (3.316504287719726e-05, 4.390625) (2.9795639038085935e-05, 4.392578125) (2.664065170288086e-05, 4.39453125) (2.424648094177246e-05, 4.396484375) (2.29221134185791e-05, 4.3984375) (2.2752925872802734e-05, 4.400390625) (2.3655849456787107e-05, 4.40234375) (2.543744659423828e-05, 4.404296875) (2.792511749267578e-05, 4.40625) (3.098037528991699e-05, 4.408203125) (3.443839645385742e-05, 4.41015625) (3.812319183349609e-05, 4.412109375) (4.189215850830078e-05, 4.4140625) (4.561474227905273e-05, 4.416015625) (4.917318344116211e-05, 4.41796875) (5.2475685119628905e-05, 4.419921875) (5.540920639038086e-05, 4.421875) (5.785307312011718e-05, 4.423828125) (5.973118591308593e-05, 4.42578125) (6.099610137939453e-05, 4.427734375) (6.162850189208985e-05, 4.4296875) (6.164920806884765e-05, 4.431640625) (6.108829498291015e-05, 4.43359375) (5.9981010437011715e-05, 4.435546875) (5.838414001464844e-05, 4.4375) (5.63603401184082e-05, 4.439453125) (5.396690368652344e-05, 4.44140625) (5.126477813720703e-05, 4.443359375) (4.831129455566406e-05, 4.4453125) (4.5160354614257813e-05, 4.447265625) (4.187638473510742e-05, 4.44921875) (3.852522277832031e-05, 4.451171875) (3.5171836853027345e-05, 4.453125) (3.18813533782959e-05, 4.455078125) (2.8702270507812497e-05, 4.45703125) (2.5668378829956054e-05, 4.458984375) (2.2804439544677735e-05, 4.4609375) (2.0122428894042966e-05, 4.462890625) (1.7627357482910155e-05, 4.46484375) (1.53211612701416e-05, 4.466796875) (1.3198184013366698e-05, 4.46875) (1.1248346328735352e-05, 4.470703125) (9.466092109680176e-06, 4.47265625) (7.847275733947754e-06, 4.474609375) (6.388588905334472e-06, 4.4765625) (5.0894136428833004e-06, 4.478515625) (3.945277452468872e-06, 4.48046875) (2.948866844177246e-06, 4.482421875) (2.093032360076904e-06, 4.484375) (1.3696047067642212e-06, 4.486328125) (7.714055180549621e-07, 4.48828125) (2.929463386535644e-07, 4.490234375) (-7.139314711093903e-08, 4.4921875) (-3.27397346496582e-07, 4.494140625) (-4.798591732978821e-07, 4.49609375) (-5.334368944168091e-07, 4.498046875) (-4.92476612329483e-07, 4.5) (-3.6098620295524595e-07, 4.501953125) (-1.4530372619628906e-07, 4.50390625) (1.4620694518089293e-07, 4.505859375) (5.043465495109558e-07, 4.5078125) (9.189579486846923e-07, 4.509765625) (1.3797004222869872e-06, 4.51171875) (1.876351237297058e-06, 4.513671875) (2.398116111755371e-06, 4.515625) (2.9338116645812985e-06, 4.517578125) (3.473004341125488e-06, 4.51953125) (4.005893230438232e-06, 4.521484375) (4.52316427230835e-06, 4.5234375) (5.016265869140625e-06, 4.525390625) (5.476875305175781e-06, 4.52734375) (5.89686918258667e-06, 4.529296875) (6.268798828125e-06, 4.53125) (6.5859055519104e-06, 4.533203125) (6.841921806335449e-06, 4.53515625) (7.031218528747558e-06, 4.537109375) (7.1487407684326165e-06, 4.5390625) (7.189744472503661e-06, 4.541015625) (7.150156021118164e-06, 4.54296875) (7.026657104492187e-06, 4.544921875) (6.816522598266601e-06, 4.546875) (6.517727851867676e-06, 4.548828125) (6.128940105438232e-06, 4.55078125) (5.6494135856628415e-06, 4.552734375) (5.0791330337524415e-06, 4.5546875) (4.418950080871582e-06, 4.556640625) (3.6703979969024657e-06, 4.55859375) (2.835708618164062e-06, 4.560546875) (1.917842864990234e-06, 4.5625) (9.204007983207703e-07, 4.564453125) (-1.521942615509033e-07, 4.56640625) (-1.294649600982666e-06, 4.568359375) (-2.5009441375732422e-06, 4.5703125) (-3.7643215656280515e-06, 4.572265625) (-5.077274322509765e-06, 4.57421875) (-6.431646347045898e-06, 4.576171875) (-7.818603515625e-06, 4.578125) (-9.228675842285155e-06, 4.580078125) (-1.0652092933654784e-05, 4.58203125) (-1.2078846931457518e-05, 4.583984375) (-1.3498687744140624e-05, 4.5859375) (-1.490127944946289e-05, 4.587890625) (-1.6276165008544922e-05, 4.58984375) (-1.7612783432006836e-05, 4.591796875) (-1.8900657653808593e-05, 4.59375) (-2.012942123413086e-05, 4.595703125) (-2.128879165649414e-05, 4.59765625) (-2.2368635177612303e-05, 4.599609375) (-2.3359031677246093e-05, 4.6015625) (-2.425027275085449e-05, 4.603515625) (-2.5033039093017576e-05, 4.60546875) (-2.5698469161987302e-05, 4.607421875) (-2.6238193511962888e-05, 4.609375) (-2.6644393920898438e-05, 4.611328125) (-2.690984535217285e-05, 4.61328125) (-2.7027931213378906e-05, 4.615234375) (-2.699274444580078e-05, 4.6171875) (-2.679913520812988e-05, 4.619140625) (-2.644271469116211e-05, 4.62109375) (-2.591989707946777e-05, 4.623046875) (-2.5227928161621092e-05, 4.625) (-2.436490821838379e-05, 4.626953125) (-2.3329919815063475e-05, 4.62890625) (-2.212305450439453e-05, 4.630859375) (-2.074543762207031e-05, 4.6328125) (-1.9199241638183594e-05, 4.634765625) (-1.7487667083740234e-05, 4.63671875) (-1.5614946365356445e-05, 4.638671875) (-1.3586355209350586e-05, 4.640625) (-1.1408173561096191e-05, 4.642578125) (-9.087586402893065e-06, 4.64453125) (-6.632625579833984e-06, 4.646484375) (-4.052098274230957e-06, 4.6484375) (-1.3555455207824705e-06, 4.650390625) (1.4467794895172118e-06, 4.65234375) (4.3439579010009765e-06, 4.654296875) (7.3244795799255365e-06, 4.65625) (1.0376312255859375e-05, 4.658203125) (1.3486956596374512e-05, 4.66015625) (1.6643508911132812e-05, 4.662109375) (1.983271026611328e-05, 4.6640625) (2.3041038513183594e-05, 4.666015625) (2.6254812240600584e-05, 4.66796875) (2.9460290908813476e-05, 4.669921875) (3.2643756866455074e-05, 4.671875) (3.579158020019531e-05, 4.673828125) (3.889025497436523e-05, 4.67578125) (4.192646408081054e-05, 4.677734375) (4.4887138366699214e-05, 4.6796875) (4.775952911376953e-05, 4.681640625) (5.053127288818359e-05, 4.68359375) (5.319036865234375e-05, 4.685546875) (5.572529602050781e-05, 4.6875) (5.8125053405761716e-05, 4.689453125) (6.0379264831542966e-05, 4.69140625) (6.24782257080078e-05, 4.693359375) (6.441300964355468e-05, 4.6953125) (6.617544555664062e-05, 4.697265625) (6.775814819335937e-05, 4.69921875) (6.915456390380859e-05, 4.701171875) (7.035900115966796e-05, 4.703125) (7.136662292480468e-05, 4.705078125) (7.217347717285155e-05, 4.70703125) (7.277644348144532e-05, 4.708984375) (7.317318725585938e-05, 4.7109375) (7.336233520507812e-05, 4.712890625) (7.334333801269531e-05, 4.71484375) (7.311660766601562e-05, 4.716796875) (7.26834945678711e-05, 4.71875) (7.204621887207031e-05, 4.720703125) (7.120791625976562e-05, 4.72265625) (7.01725616455078e-05, 4.724609375) (6.894502258300781e-05, 4.7265625) (6.75309600830078e-05, 4.728515625) (6.593679809570312e-05, 4.73046875) (6.416964721679687e-05, 4.732421875) (6.223725509643555e-05, 4.734375) (6.014797973632812e-05, 4.736328125) (5.791078186035156e-05, 4.73828125) (5.553517913818359e-05, 4.740234375) (5.303125e-05, 4.7421875) (5.040951156616211e-05, 4.744140625) (4.768096160888671e-05, 4.74609375) (4.485698318481445e-05, 4.748046875) (4.194932556152343e-05, 4.75) (3.897004699707031e-05, 4.751953125) (3.593142318725586e-05, 4.75390625) (3.2845886230468746e-05, 4.755859375) (2.97259578704834e-05, 4.7578125) (2.658425521850586e-05, 4.759765625) (2.3433450698852538e-05, 4.76171875) (2.0286235809326173e-05, 4.763671875) (1.7155292510986327e-05, 4.765625) (1.4053251266479492e-05, 4.767578125) (1.0992673873901366e-05, 4.76953125) (7.986008644104004e-06, 4.771484375) (5.0455641746521e-06, 4.7734375) (2.1834325790405274e-06, 4.775390625) (-5.885971784591675e-07, 4.77734375) (-3.2591097354888914e-06, 4.779296875) (-5.817130088806152e-06, 4.78125) (-8.252164840698242e-06, 4.783203125) (-1.0554229736328125e-05, 4.78515625) (-1.271389102935791e-05, 4.787109375) (-1.4722301483154296e-05, 4.7890625) (-1.657122802734375e-05, 4.791015625) (-1.8253070831298827e-05, 4.79296875) (-1.9760889053344725e-05, 4.794921875) (-2.108839225769043e-05, 4.796875) (-2.2229972839355467e-05, 4.798828125) (-2.318072700500488e-05, 4.80078125) (-2.3936485290527343e-05, 4.802734375) (-2.4493839263916014e-05, 4.8046875) (-2.485017395019531e-05, 4.806640625) (-2.500360870361328e-05, 4.80859375) (-2.4953022003173826e-05, 4.810546875) (-2.4698009490966796e-05, 4.8125) (-2.423887825012207e-05, 4.814453125) (-2.3576675415039062e-05, 4.81640625) (-2.2713207244873045e-05, 4.818359375) (-2.1650993347167967e-05, 4.8203125) (-2.0393287658691405e-05, 4.822265625) (-1.8944101333618163e-05, 4.82421875) (-1.730818557739258e-05, 4.826171875) (-1.5491092681884765e-05, 4.828125) (-1.3499199867248534e-05, 4.830078125) (-1.1339660644531249e-05, 4.83203125) (-9.020374298095704e-06, 4.833984375) (-6.549981117248535e-06, 4.8359375) (-3.937812805175781e-06, 4.837890625) (-1.19386351108551e-06, 4.83984375) (1.6712012290954588e-06, 4.841796875) (4.646138668060302e-06, 4.84375) (7.719229698181152e-06, 4.845703125) (1.0878310203552246e-05, 4.84765625) (1.4110805511474608e-05, 4.849609375) (1.740376091003418e-05, 4.8515625) (2.074386978149414e-05, 4.853515625) (2.4117584228515625e-05, 4.85546875) (2.751125717163086e-05, 4.857421875) (3.091113662719726e-05, 4.859375) (3.430339050292969e-05, 4.861328125) (3.767407989501953e-05, 4.86328125) (4.100919723510742e-05, 4.865234375) (4.42947998046875e-05, 4.8671875) (4.751712036132812e-05, 4.869140625) (5.066248321533203e-05, 4.87109375) (5.371733474731445e-05, 4.873046875) (5.6668216705322266e-05, 4.875) (5.950167083740234e-05, 4.876953125) (6.220463180541991e-05, 4.87890625) (6.47645263671875e-05, 4.880859375) (6.716921234130859e-05, 4.8828125) (6.940705108642577e-05, 4.884765625) (7.146697998046875e-05, 4.88671875) (7.333840179443359e-05, 4.888671875) (7.501148223876952e-05, 4.890625) (7.647740173339844e-05, 4.892578125) (7.772817993164062e-05, 4.89453125) (7.875664520263671e-05, 4.896484375) (7.95565948486328e-05, 4.8984375) (8.012267303466797e-05, 4.900390625) (8.045059204101562e-05, 4.90234375) (8.053743743896484e-05, 4.904296875) (8.038150024414063e-05, 4.90625) (7.998208618164062e-05, 4.908203125) (7.933953857421874e-05, 4.91015625) (7.845520782470702e-05, 4.912109375) (7.733158111572265e-05, 4.9140625) (7.597228240966797e-05, 4.916015625) (7.438215637207032e-05, 4.91796875) (7.256702423095703e-05, 4.919921875) (7.053329467773437e-05, 4.921875) (6.82880630493164e-05, 4.923828125) (6.583993530273437e-05, 4.92578125) (6.319879531860351e-05, 4.927734375) (6.037603759765625e-05, 4.9296875) (5.738518905639648e-05, 4.931640625) (5.4238590240478514e-05, 4.93359375) (5.094687271118164e-05, 4.935546875) (4.752349853515625e-05, 4.9375) (4.3984096527099605e-05, 4.939453125) (4.034585571289062e-05, 4.94140625) (3.663039398193359e-05, 4.943359375) (3.285544967651367e-05, 4.9453125) (2.9031398773193357e-05, 4.947265625) (2.518174362182617e-05, 4.94921875) (2.134244728088379e-05, 4.951171875) (1.754500579833984e-05, 4.953125) (1.382187271118164e-05, 4.955078125) (1.0192634582519531e-05, 4.95703125) (6.65200662612915e-06, 4.958984375) (3.215038776397705e-06, 4.9609375) (-7.359445095062256e-08, 4.962890625) (-3.2132680416107178e-06, 4.96484375) (-6.241915702819824e-06, 4.966796875) (-9.184633255004882e-06, 4.96875) (-1.2071142196655274e-05, 4.970703125) (-1.4890360832214354e-05, 4.97265625) (-1.7556154251098632e-05, 4.974609375) (-2.0034999847412107e-05, 4.9765625) (-2.2393020629882812e-05, 4.978515625) (-2.4547000885009765e-05, 4.98046875) (-2.6216279983520507e-05, 4.982421875) (-2.7329145431518552e-05, 4.984375) (-2.7956682205200193e-05, 4.986328125) (-2.8058109283447263e-05, 4.98828125) (-2.7917743682861326e-05, 4.990234375) (-2.701131248474121e-05, 4.9921875) (-2.36494026184082e-05, 4.994140625) (-1.817036247253418e-05, 4.99609375) (-1.2153350830078124e-05, 4.998046875) (-8.152657508850098e-06, 5.0) (-1.101158332824707e-05, 5.001953125) (-2.0563568115234374e-05, 5.00390625) (-3.2004127502441406e-05, 5.005859375) (-4.057197189331054e-05, 5.0078125) (-3.9483455657958984e-05, 5.009765625) (-2.822634506225586e-05, 5.01171875) (-1.331102466583252e-05, 5.013671875) (2.093815803527832e-07, 5.015625) (6.91690731048584e-06, 5.017578125) (5.743550777435302e-06, 5.01953125) (1.4825105667114257e-06, 5.021484375) (-2.9091067314147948e-06, 5.0234375) (-5.456129074096679e-06, 5.025390625) (-5.531912326812744e-06, 5.02734375) (-5.099165916442871e-06, 5.029296875) (-5.0391349792480465e-06, 5.03125) (-5.221223831176758e-06, 5.033203125) (-5.648580074310303e-06, 5.03515625) (-5.954809188842773e-06, 5.037109375) (-5.992611885070801e-06, 5.0390625) (-5.971024513244629e-06, 5.041015625) (-5.917912006378173e-06, 5.04296875) (-5.739861011505126e-06, 5.044921875) (-5.38493537902832e-06, 5.046875) (-4.8032789230346675e-06, 5.048828125) (-3.932102203369141e-06, 5.05078125) (-2.6951730251312257e-06, 5.052734375) (-1.0278809070587157e-06, 5.0546875) (1.1765999794006346e-06, 5.056640625) (4.018130779266358e-06, 5.05859375) (7.416535854339599e-06, 5.060546875) (1.1180063247680664e-05, 5.0625) (1.5017395019531249e-05, 5.064453125) (1.8499832153320312e-05, 5.06640625) (2.126932144165039e-05, 5.068359375) (2.3116737365722656e-05, 5.0703125) (2.3720796585083008e-05, 5.072265625) (2.266644287109375e-05, 5.07421875) (1.9833740234374998e-05, 5.076171875) (1.5267616271972657e-05, 5.078125) (9.316307067871093e-06, 5.080078125) (2.7128317356109616e-06, 5.08203125) (-4.248796463012695e-06, 5.083984375) (-1.170201301574707e-05, 5.0859375) (-1.964249038696289e-05, 5.087890625) (-2.7992477416992186e-05, 5.08984375) (-3.68607063293457e-05, 5.091796875) (-4.649464416503906e-05, 5.09375) (-5.7845245361328124e-05, 5.095703125) (-7.254063415527344e-05, 5.09765625) (-9.146061706542969e-05, 5.099609375) (-0.00011490353393554687, 5.1015625) (-0.00014313662719726562, 5.103515625) (-0.00017634844970703124, 5.10546875) (-0.00021496057128906249, 5.107421875) (-0.0002592655334472656, 5.109375) (-0.0003084053039550781, 5.111328125) (-0.00036049023437499997, 5.11328125) (-0.00041385690307617183, 5.115234375) (-0.0004669195861816406, 5.1171875) (-0.000518107666015625, 5.119140625) (-0.0005658041381835937, 5.12109375) (-0.000607449951171875, 5.123046875) (-0.0006402262573242187, 5.125) (-0.0006621286621093749, 5.126953125) (-0.000672013916015625, 5.12890625) (-0.0006692856445312499, 5.130859375) (-0.0006539188842773437, 5.1328125) (-0.0006259987182617188, 5.134765625) (-0.0005857510375976562, 5.13671875) (-0.000534629150390625, 5.138671875) (-0.00047489556884765623, 5.140625) (-0.00040899859619140624, 5.142578125) (-0.0003394444580078125, 5.14453125) (-0.0002683703918457031, 5.146484375) (-0.00019746163940429686, 5.1484375) (-0.00012855644226074218, 5.150390625) (-6.397193145751953e-05, 5.15234375) (-5.670076370239258e-06, 5.154296875) (4.488558197021484e-05, 5.15625) (8.662115478515625e-05, 5.158203125) (0.00011907022094726562, 5.16015625) (0.00014206166076660156, 5.162109375) (0.0001553600158691406, 5.1640625) (0.00015903005981445311, 5.166015625) (0.00015420608520507812, 5.16796875) (0.0001427209014892578, 5.169921875) (0.00012674210357666016, 5.171875) (0.0001087427749633789, 5.173828125) (9.085111999511718e-05, 5.17578125) (7.458134460449218e-05, 5.177734375) (6.141890716552734e-05, 5.1796875) (5.284078216552734e-05, 5.181640625) (4.94588394165039e-05, 5.18359375) (5.106127548217773e-05, 5.185546875) (5.6825641632080074e-05, 5.1875) (6.517911529541015e-05, 5.189453125) (7.453240203857421e-05, 5.19140625) (8.395285034179687e-05, 5.193359375) (9.263291931152343e-05, 5.1953125) (9.963703918457031e-05, 5.197265625) (0.00010444114685058593, 5.19921875) (0.00010691955566406249, 5.201171875) (0.00010730674743652343, 5.203125) (0.00010647240447998047, 5.205078125) (0.000105431396484375, 5.20703125) (0.00010468711853027343, 5.208984375) (0.00010450469970703125, 5.2109375) (0.00010511256408691405, 5.212890625) (0.00010656886291503905, 5.21484375) (0.000108892578125, 5.216796875) (0.00011199290466308593, 5.21875) (0.0001154518814086914, 5.220703125) (0.00011872565460205077, 5.22265625) (0.00012145841217041015, 5.224609375) (0.00012346331787109374, 5.2265625) (0.00012474765014648437, 5.228515625) (0.00012528285217285157, 5.23046875) (0.00012479379272460937, 5.232421875) (0.00012326251220703125, 5.234375) (0.00012091577911376953, 5.236328125) (0.0001178274688720703, 5.23828125) (0.00011436917114257813, 5.240234375) (0.00011014490509033202, 5.2421875) (0.00010360644531249999, 5.244140625) (9.513921356201171e-05, 5.24609375) (8.636866760253906e-05, 5.248046875) (8.010551452636718e-05, 5.25) (8.10929183959961e-05, 5.251953125) (8.972463989257812e-05, 5.25390625) (0.00010193316650390625, 5.255859375) (0.00011158753204345702, 5.2578125) (0.00011127316284179687, 5.259765625) (9.872634887695311e-05, 5.26171875) (7.804000854492187e-05, 5.263671875) (5.716290664672851e-05, 5.265625) (4.3593605041503905e-05, 5.267578125) (4.0869056701660156e-05, 5.26953125) (4.786231231689453e-05, 5.271484375) (5.818164825439453e-05, 5.2734375) (6.681355285644532e-05, 5.275390625) (7.124340057373047e-05, 5.27734375) (7.023362731933594e-05, 5.279296875) (6.698393249511718e-05, 5.28125) (6.379903793334961e-05, 5.283203125) (6.125181579589843e-05, 5.28515625) (6.0463500976562494e-05, 5.287109375) (6.0522056579589844e-05, 5.2890625) (6.060960388183594e-05, 5.291015625) (6.099666976928711e-05, 5.29296875) (6.148772430419922e-05, 5.294921875) (6.215030288696289e-05, 5.296875) (6.320327758789062e-05, 5.298828125) (6.448113250732421e-05, 5.30078125) (6.584272003173828e-05, 5.302734375) (6.72825927734375e-05, 5.3046875) (6.874293518066405e-05, 5.306640625) (7.017698669433594e-05, 5.30859375) (7.159024810791015e-05, 5.310546875) (7.29786376953125e-05, 5.3125) (7.432506561279297e-05, 5.314453125) (7.563259124755859e-05, 5.31640625) (7.690576171875e-05, 5.318359375) (7.811875152587891e-05, 5.3203125) (7.925198364257812e-05, 5.322265625) (8.029533386230468e-05, 5.32421875) (8.123004150390625e-05, 5.326171875) (8.204090118408202e-05, 5.328125) (8.271576690673828e-05, 5.330078125) (8.323870849609375e-05, 5.33203125) (8.359574127197265e-05, 5.333984375) (8.377811431884765e-05, 5.3359375) (8.377740478515625e-05, 5.337890625) (8.358551025390625e-05, 5.33984375) (8.319622802734375e-05, 5.341796875) (8.260405731201171e-05, 5.34375) (8.18050308227539e-05, 5.345703125) (8.079727172851562e-05, 5.34765625) (7.958034515380859e-05, 5.349609375) (7.815538024902343e-05, 5.3515625) (7.652503967285156e-05, 5.353515625) (7.469352722167968e-05, 5.35546875) (7.266658020019531e-05, 5.357421875) (7.045137786865234e-05, 5.359375) (6.805638122558593e-05, 5.361328125) (6.549140930175781e-05, 5.36328125) (6.276755142211914e-05, 5.365234375) (5.98970832824707e-05, 5.3671875) (5.6893295288085933e-05, 5.369140625) (5.377036666870117e-05, 5.37109375) (5.05433120727539e-05, 5.373046875) (4.72278823852539e-05, 5.375) (4.384049224853515e-05, 5.376953125) (4.039815139770508e-05, 5.37890625) (3.691814422607422e-05, 5.380859375) (3.3417953491210936e-05, 5.3828125) (2.9915279388427735e-05, 5.384765625) (2.6427995681762696e-05, 5.38671875) (2.2974040985107422e-05, 5.388671875) (1.957135772705078e-05, 5.390625) (1.6237693786621093e-05, 5.392578125) (1.2990478515625e-05, 5.39453125) (9.846805572509765e-06, 5.396484375) (6.823285102844238e-06, 5.3984375) (3.935900211334228e-06, 5.400390625) (1.1998754739761352e-06, 5.40234375) (-1.3704626560211181e-06, 5.404296875) (-3.761799335479736e-06, 5.40625) (-5.961898803710937e-06, 5.408203125) (-7.959668636322021e-06, 5.41015625) (-9.745235443115234e-06, 5.412109375) (-1.1310020446777343e-05, 5.4140625) (-1.2646814346313477e-05, 5.416015625) (-1.3749831199645996e-05, 5.41796875) (-1.4614736557006836e-05, 5.419921875) (-1.5238653182983398e-05, 5.421875) (-1.562015914916992e-05, 5.423828125) (-1.575928783416748e-05, 5.42578125) (-1.5657519340515135e-05, 5.427734375) (-1.5317728996276853e-05, 5.4296875) (-1.4744110107421874e-05, 5.431640625) (-1.3942101478576659e-05, 5.43359375) (-1.291833209991455e-05, 5.435546875) (-1.1680564880371093e-05, 5.4375) (-1.0237660408020019e-05, 5.439453125) (-8.599504470825195e-06, 5.44140625) (-6.776921272277831e-06, 5.443359375) (-4.781610965728759e-06, 5.4453125) (-2.6261003017425534e-06, 5.447265625) (-3.236751556396484e-07, 5.44921875) (2.111700057983398e-06, 5.451171875) (4.6654858589172365e-06, 5.453125) (7.3226900100708e-06, 5.455078125) (1.0067985534667969e-05, 5.45703125) (1.2885816574096678e-05, 5.458984375) (1.5760512351989744e-05, 5.4609375) (1.8676401138305663e-05, 5.462890625) (2.1617925643920898e-05, 5.46484375) (2.4569759368896483e-05, 5.466796875) (2.7516887664794922e-05, 5.46875) (3.0444698333740232e-05, 5.470703125) (3.333907699584961e-05, 5.47265625) (3.618648529052734e-05, 5.474609375) (3.897408294677734e-05, 5.4765625) (4.168980407714844e-05, 5.478515625) (4.432247161865234e-05, 5.48046875) (4.6861854553222656e-05, 5.482421875) (4.9298706054687496e-05, 5.484375) (5.162486267089843e-05, 5.486328125) (5.3833232879638666e-05, 5.48828125) (5.591780853271484e-05, 5.490234375) (5.7873641967773435e-05, 5.4921875) (5.9696804046630856e-05, 5.494140625) (6.138436126708985e-05, 5.49609375) (6.293431854248047e-05, 5.498046875) (6.434561157226562e-05, 5.5) (6.561809539794922e-05, 5.501953125) (6.675247955322265e-05, 5.50390625) (6.775036621093749e-05, 5.505859375) (6.861412048339844e-05, 5.5078125) (6.934696197509765e-05, 5.509765625) (6.995284271240234e-05, 5.51171875) (7.043641662597656e-05, 5.513671875) (7.080300903320312e-05, 5.515625) (7.105850219726562e-05, 5.517578125) (7.12092514038086e-05, 5.51953125) (7.126204681396484e-05, 5.521484375) (7.122403717041015e-05, 5.5234375) (7.110268402099609e-05, 5.525390625) (7.090568542480468e-05, 5.52734375) (7.064091491699218e-05, 5.529296875) (7.031642150878906e-05, 5.53125) (6.994039154052735e-05, 5.533203125) (6.952107238769531e-05, 5.53515625) (6.906670379638672e-05, 5.537109375) (6.858547973632812e-05, 5.5390625) (6.808540344238281e-05, 5.541015625) (6.757426452636719e-05, 5.54296875) (6.70595703125e-05, 5.544921875) (6.654843139648437e-05, 5.546875) (6.604747772216796e-05, 5.548828125) (6.556291198730468e-05, 5.55078125) (6.510038757324219e-05, 5.552734375) (6.466514587402344e-05, 5.5546875) (6.426199340820312e-05, 5.556640625) (6.389533615112305e-05, 5.55859375) (6.356918334960937e-05, 5.560546875) (6.328719329833984e-05, 5.5625) (6.305262374877929e-05, 5.564453125) (6.286837005615234e-05, 5.56640625) (6.273703002929687e-05, 5.568359375) (6.266073608398437e-05, 5.5703125) (6.264130401611328e-05, 5.572265625) (6.268017196655274e-05, 5.57421875) (6.277838134765625e-05, 5.576171875) (6.29367218017578e-05, 5.578125) (6.315577697753906e-05, 5.580078125) (6.343589019775391e-05, 5.58203125) (6.377719116210937e-05, 5.583984375) (6.417969512939453e-05, 5.5859375) (6.464318847656249e-05, 5.587890625) (6.51672592163086e-05, 5.58984375) (6.575143432617187e-05, 5.591796875) (6.639485168457031e-05, 5.59375) (6.709629821777343e-05, 5.595703125) (6.785427856445313e-05, 5.59765625) (6.866699981689453e-05, 5.599609375) (6.95323257446289e-05, 5.6015625) (7.044790649414063e-05, 5.603515625) (7.141102600097656e-05, 5.60546875) (7.241864013671875e-05, 5.607421875) (7.346766662597655e-05, 5.609375) (7.4554931640625e-05, 5.611328125) (7.567721557617188e-05, 5.61328125) (7.683125305175781e-05, 5.615234375) (7.801350402832031e-05, 5.6171875) (7.922021484375e-05, 5.619140625) (8.044754791259765e-05, 5.62109375) (8.169132232666016e-05, 5.623046875) (8.294713592529297e-05, 5.625) (8.421035003662109e-05, 5.626953125) (8.547595214843749e-05, 5.62890625) (8.673860931396484e-05, 5.630859375) (8.799300384521485e-05, 5.6328125) (8.923355102539062e-05, 5.634765625) (9.045452117919922e-05, 5.63671875) (9.165017700195313e-05, 5.638671875) (9.281440734863281e-05, 5.640625) (9.39407501220703e-05, 5.642578125) (9.502265167236327e-05, 5.64453125) (9.605339050292969e-05, 5.646484375) (9.702585601806641e-05, 5.6484375) (9.793296813964843e-05, 5.650390625) (9.876746368408203e-05, 5.65234375) (9.952189636230468e-05, 5.654296875) (0.00010018925476074218, 5.65625) (0.0001007631378173828, 5.658203125) (0.00010123745727539061, 5.66015625) (0.00010160649108886718, 5.662109375) (0.00010186528015136718, 5.6640625) (0.00010200947570800781, 5.666015625) (0.00010203587341308594, 5.66796875) (0.0001019428253173828, 5.669921875) (0.00010172923278808593, 5.671875) (0.00010139456176757812, 5.673828125) (0.00010093914794921874, 5.67578125) (0.00010036410522460937, 5.677734375) (9.96713638305664e-05, 5.6796875) (9.88636245727539e-05, 5.681640625) (9.794340515136719e-05, 5.68359375) (9.691290283203125e-05, 5.685546875) (9.577532958984375e-05, 5.6875) (9.453461456298828e-05, 5.689453125) (9.319564056396485e-05, 5.69140625) (9.176529693603515e-05, 5.693359375) (9.025082397460937e-05, 5.6953125) (8.866044616699218e-05, 5.697265625) (8.700434875488281e-05, 5.69921875) (8.529276275634765e-05, 5.701171875) (8.353553771972655e-05, 5.703125) (8.174366760253905e-05, 5.705078125) (7.992601013183593e-05, 5.70703125) (7.80889663696289e-05, 5.708984375) (7.624125671386718e-05, 5.7109375) (7.439137268066405e-05, 5.712890625) (7.254986572265624e-05, 5.71484375) (7.073368835449218e-05, 5.716796875) (6.895831298828125e-05, 5.71875) (6.723641967773437e-05, 5.720703125) (6.558150482177734e-05, 5.72265625) (6.400191497802734e-05, 5.724609375) (6.249927902221679e-05, 5.7265625) (6.107064819335938e-05, 5.728515625) (5.970003509521484e-05, 5.73046875) (5.836053466796875e-05, 5.732421875) (5.702635955810546e-05, 5.734375) (5.566971969604492e-05, 5.736328125) (5.426618576049805e-05, 5.73828125) (5.2800182342529296e-05, 5.740234375) (5.1252006530761714e-05, 5.7421875) (4.960095596313476e-05, 5.744140625) (4.782661056518555e-05, 5.74609375) (4.5896121978759764e-05, 5.748046875) (4.3776245117187495e-05, 5.75) (4.144072723388672e-05, 5.751953125) (3.885865783691406e-05, 5.75390625) (3.6010112762451173e-05, 5.755859375) (3.289888000488281e-05, 5.7578125) (2.9545969009399413e-05, 5.759765625) (2.600917816162109e-05, 5.76171875) (2.237908363342285e-05, 5.763671875) (1.8747726440429687e-05, 5.765625) (1.5201457977294921e-05, 5.767578125) (1.1815404891967774e-05, 5.76953125) (8.658816337585448e-06, 5.771484375) (5.81089973449707e-06, 5.7734375) (3.358835220336914e-06, 5.775390625) (1.3887239694595335e-06, 5.77734375) (-1.3759698718786238e-08, 5.779296875) (-7.800816297531128e-07, 5.78125) (-8.192002773284912e-07, 5.783203125) (1.2483268976211548e-08, 5.78515625) (1.768602967262268e-06, 5.787109375) (4.364393711090088e-06, 5.7890625) (7.571137428283691e-06, 5.791015625) (1.0973785400390625e-05, 5.79296875) (1.415903091430664e-05, 5.794921875) (1.6837381362915038e-05, 5.796875) (1.867889404296875e-05, 5.798828125) (1.9240543365478516e-05, 5.80078125) (1.822467041015625e-05, 5.802734375) (1.5594858169555664e-05, 5.8046875) (1.1682453155517577e-05, 5.806640625) (7.246460437774658e-06, 5.80859375) (2.8987045288085935e-06, 5.810546875) (-1.1968321800231932e-06, 5.8125) (-5.033655166625976e-06, 5.814453125) (-8.508520126342773e-06, 5.81640625) (-1.1560652732849121e-05, 5.818359375) (-1.450533103942871e-05, 5.8203125) (-1.833504295349121e-05, 5.822265625) (-2.4825958251953122e-05, 5.82421875) (-3.573245239257812e-05, 5.826171875) (-5.21053466796875e-05, 5.828125) (-7.453990173339844e-05, 5.830078125) (-0.00010381236267089843, 5.83203125) (-0.00014094088745117186, 5.833984375) (-0.00018651138305664062, 5.8359375) (-0.00024023797607421873, 5.837890625) (-0.0003004453125, 5.83984375) (-0.00036460577392578126, 5.841796875) (-0.0004306245727539062, 5.84375) (-0.0004966594238281249, 5.845703125) (-0.00055993994140625, 5.84765625) (-0.00061666943359375, 5.849609375) (-0.0006628070068359375, 5.8515625) (-0.0006945169677734375, 5.853515625) (-0.0007103172607421875, 5.85546875) (-0.0007111112670898437, 5.857421875) (-0.0006971759033203125, 5.859375) (-0.0006676343383789062, 5.861328125) (-0.000620021484375, 5.86328125) (-0.0005514530639648438, 5.865234375) (-0.000462697509765625, 5.8671875) (-0.000360844970703125, 5.869140625) (-0.0002584169921875, 5.87109375) (-0.000168211669921875, 5.873046875) (-9.909877777099609e-05, 5.875) (-5.1637001037597654e-05, 5.876953125) (-1.761029052734375e-05, 5.87890625) (1.1443019866943359e-05, 5.880859375) (4.088084411621094e-05, 5.8828125) (7.133163452148437e-05, 5.884765625) (9.726547241210938e-05, 5.88671875) (0.00011459697723388672, 5.888671875) (0.00012326930236816405, 5.890625) (0.0001250150909423828, 5.892578125) (0.0001236700973510742, 5.89453125) (0.00012178163146972656, 5.896484375) (0.0001189000015258789, 5.8984375) (0.00011431938934326172, 5.900390625) (0.0001079112777709961, 5.90234375) (9.98995132446289e-05, 5.904296875) (9.097191619873047e-05, 5.90625) (8.167735290527343e-05, 5.908203125) (7.18368911743164e-05, 5.91015625) (6.152800750732421e-05, 5.912109375) (5.188404083251953e-05, 5.9140625) (4.376969909667968e-05, 5.916015625) (3.753665542602539e-05, 5.91796875) (3.3183650970458985e-05, 5.919921875) (2.9954532623291014e-05, 5.921875) (2.726293563842773e-05, 5.923828125) (2.5119762420654294e-05, 5.92578125) (2.3304277420043944e-05, 5.927734375) (2.117842674255371e-05, 5.9296875) (1.839138412475586e-05, 5.931640625) (1.4796634674072265e-05, 5.93359375) (1.060142421722412e-05, 5.935546875) (6.615349292755127e-06, 5.9375) (3.3420965671539305e-06, 5.939453125) (8.822270035743713e-07, 5.94140625) (-6.050226092338562e-07, 5.943359375) (-9.892667531967162e-07, 5.9453125) (-2.3720884323120117e-07, 5.947265625) (1.643361210823059e-06, 5.94921875) (4.389246940612793e-06, 5.951171875) (7.487391471862793e-06, 5.953125) (1.0619377136230468e-05, 5.955078125) (1.3628824234008789e-05, 5.95703125) (1.63925724029541e-05, 5.958984375) (1.886086082458496e-05, 5.9609375) (2.0919893264770506e-05, 5.962890625) (2.243213844299316e-05, 5.96484375) (2.337465476989746e-05, 5.966796875) (2.379568290710449e-05, 5.96875) (2.373853302001953e-05, 5.970703125) (2.323373794555664e-05, 5.97265625) (2.22808837890625e-05, 5.974609375) (2.0868637084960935e-05, 5.9765625) (1.9036943435668945e-05, 5.978515625) (1.6862186431884764e-05, 5.98046875) (1.4426928520202636e-05, 5.982421875) (1.1801442146301269e-05, 5.984375) (9.024007797241211e-06, 5.986328125) (6.131059169769287e-06, 5.98828125) (3.173150300979614e-06, 5.990234375) (2.153313159942627e-07, 5.9921875) (-2.6539855003356934e-06, 5.994140625) (-5.361961841583252e-06, 5.99609375) (-7.867969512939453e-06, 5.998046875) (-1.0139440536499023e-05, 6.0) (-1.2153116226196289e-05, 6.001953125) (-1.3891436576843261e-05, 6.00390625) (-1.533379554748535e-05, 6.005859375) (-1.6474048614501952e-05, 6.0078125) (-1.7330022811889647e-05, 6.009765625) (-1.7925371170043945e-05, 6.01171875) (-1.8283233642578125e-05, 6.013671875) (-1.842300796508789e-05, 6.015625) (-1.8352495193481445e-05, 6.017578125) (-1.8083553314208985e-05, 6.01953125) (-1.763764953613281e-05, 6.021484375) (-1.7042100906372068e-05, 6.0234375) (-1.6332010269165037e-05, 6.025390625) (-1.553539752960205e-05, 6.02734375) (-1.4669665336608886e-05, 6.029296875) (-1.3751382827758788e-05, 6.03125) (-1.279593563079834e-05, 6.033203125) (-1.1817251205444335e-05, 6.03515625) (-1.0828861236572266e-05, 6.037109375) (-9.837756156921387e-06, 6.0390625) (-8.842376708984374e-06, 6.041015625) (-7.84285545349121e-06, 6.04296875) (-6.842923164367676e-06, 6.044921875) (-5.847661972045898e-06, 6.046875) (-4.865090847015381e-06, 6.048828125) (-3.901091337203979e-06, 6.05078125) (-2.9582893848419187e-06, 6.052734375) (-2.039041757583618e-06, 6.0546875) (-1.1456034183502197e-06, 6.056640625) (-2.814032435417175e-07, 6.05859375) (5.494290590286254e-07, 6.060546875) (1.3435736894607543e-06, 6.0625) (2.0984845161437987e-06, 6.064453125) (2.8114233016967774e-06, 6.06640625) (3.4791488647460934e-06, 6.068359375) (4.0973753929138186e-06, 6.0703125) (4.660970211029053e-06, 6.072265625) (5.166512966156006e-06, 6.07421875) (5.6121907234191896e-06, 6.076171875) (5.996916770935058e-06, 6.078125) (6.320570468902587e-06, 6.080078125) (6.583233833312988e-06, 6.08203125) (6.785231590270996e-06, 6.083984375) (6.927910327911377e-06, 6.0859375) (7.013460636138916e-06, 6.087890625) (7.043976783752441e-06, 6.08984375) (7.0214924812316895e-06, 6.091796875) (6.94821834564209e-06, 6.09375) (6.826493263244629e-06, 6.095703125) (6.659212112426758e-06, 6.09765625) (6.449788093566894e-06, 6.099609375) (6.20185899734497e-06, 6.1015625) (5.919243812561035e-06, 6.103515625) (5.606077194213867e-06, 6.10546875) (5.266851425170898e-06, 6.107421875) (4.906219482421875e-06, 6.109375) (4.528932094573975e-06, 6.111328125) (4.1397824287414545e-06, 6.11328125) (3.7435929775238033e-06, 6.115234375) (3.3453140258789063e-06, 6.1171875) (2.9501242637634278e-06, 6.119140625) (2.563369035720825e-06, 6.12109375) (2.1903364658355714e-06, 6.123046875) (1.836280345916748e-06, 6.125) (1.5064191818237303e-06, 6.126953125) (1.2059254646301269e-06, 6.12890625) (9.399882555007934e-07, 6.130859375) (7.137316465377808e-07, 6.1328125) (5.320852398872376e-07, 6.134765625) (3.996647298336029e-07, 6.13671875) (3.2080915570259094e-07, 6.138671875) (2.996474802494049e-07, 6.140625) (3.4006905555725097e-07, 6.142578125) (4.4563305377960204e-07, 6.14453125) (6.194882392883301e-07, 6.146484375) (8.642810583114624e-07, 6.1484375) (1.18213951587677e-06, 6.150390625) (1.57487416267395e-06, 6.15234375) (2.043977737426758e-06, 6.154296875) (2.5904951095581053e-06, 6.15625) (3.215006351470947e-06, 6.158203125) (3.917551040649414e-06, 6.16015625) (4.697606563568115e-06, 6.162109375) (5.554177284240722e-06, 6.1640625) (6.485816478729248e-06, 6.166015625) (7.490527153015137e-06, 6.16796875) (8.565743446350098e-06, 6.169921875) (9.708369255065917e-06, 6.171875) (1.0914800643920898e-05, 6.173828125) (1.218101692199707e-05, 6.17578125) (1.3502625465393066e-05, 6.177734375) (1.4874849319458008e-05, 6.1796875) (1.6292526245117188e-05, 6.181640625) (1.77501163482666e-05, 6.18359375) (1.924174118041992e-05, 6.185546875) (2.0761253356933594e-05, 6.1875) (2.230225944519043e-05, 6.189453125) (2.3858142852783203e-05, 6.19140625) (2.5422077178955075e-05, 6.193359375) (2.698703384399414e-05, 6.1953125) (2.8545875549316406e-05, 6.197265625) (3.009142303466797e-05, 6.19921875) (3.1616546630859375e-05, 6.201171875) (3.311417770385742e-05, 6.203125) (3.457737350463867e-05, 6.205078125) (3.599934387207031e-05, 6.20703125) (3.737353134155273e-05, 6.208984375) (3.869368362426758e-05, 6.2109375) (3.995392227172851e-05, 6.212890625) (4.114870834350586e-05, 6.21484375) (4.227290344238281e-05, 6.216796875) (4.332175827026367e-05, 6.21875) (4.429095458984375e-05, 6.220703125) (4.517670440673828e-05, 6.22265625) (4.5975719451904295e-05, 6.224609375) (4.6685287475585936e-05, 6.2265625) (4.730320739746094e-05, 6.228515625) (4.7827850341796876e-05, 6.23046875) (4.8258148193359376e-05, 6.232421875) (4.859362411499023e-05, 6.234375) (4.8834396362304686e-05, 6.236328125) (4.898116683959961e-05, 6.23828125) (4.90351333618164e-05, 6.240234375) (4.899797821044922e-05, 6.2421875) (4.8871898651123046e-05, 6.244140625) (4.865958786010742e-05, 6.24609375) (4.836423873901367e-05, 6.248046875) (4.798950576782226e-05, 6.25) (4.753949356079101e-05, 6.251953125) (4.7018722534179686e-05, 6.25390625) (4.6432121276855466e-05, 6.255859375) (4.578506469726562e-05, 6.2578125) (4.508331298828125e-05, 6.259765625) (4.433292388916015e-05, 6.26171875) (4.354023361206054e-05, 6.263671875) (4.271174621582031e-05, 6.265625) (4.1854095458984375e-05, 6.267578125) (4.097401428222656e-05, 6.26953125) (4.0078266143798824e-05, 6.271484375) (3.9173580169677734e-05, 6.2734375) (3.826657867431641e-05, 6.275390625) (3.736373138427734e-05, 6.27734375) (3.6471347808837887e-05, 6.279296875) (3.559555053710937e-05, 6.28125) (3.474226379394531e-05, 6.283203125) (3.3917118072509764e-05, 6.28515625) (3.312540817260742e-05, 6.287109375) (3.2372028350830074e-05, 6.2890625) (3.166146850585937e-05, 6.291015625) (3.0997785568237307e-05, 6.29296875) (3.0384601593017578e-05, 6.294921875) (2.9825021743774414e-05, 6.296875) (2.9321647644042968e-05, 6.298828125) (2.887656021118164e-05, 6.30078125) (2.8491350173950196e-05, 6.302734375) (2.8167165756225585e-05, 6.3046875) (2.7904695510864256e-05, 6.306640625) (2.770413017272949e-05, 6.30859375) (2.7565155029296873e-05, 6.310546875) (2.748693084716797e-05, 6.3125) (2.746808624267578e-05, 6.314453125) (2.7506742477416992e-05, 6.31640625) (2.760048484802246e-05, 6.318359375) (2.7746341705322263e-05, 6.3203125) (2.7940793991088867e-05, 6.322265625) (2.8179821014404295e-05, 6.32421875) (2.8458942413330077e-05, 6.326171875) (2.8773315429687497e-05, 6.328125) (2.911777114868164e-05, 6.330078125) (2.9486835479736327e-05, 6.33203125) (2.987477684020996e-05, 6.333984375) (3.0275659561157224e-05, 6.3359375) (3.068339729309082e-05, 6.337890625) (3.109181022644043e-05, 6.33984375) (3.149465560913086e-05, 6.341796875) (3.188562965393066e-05, 6.34375) (3.2258422851562496e-05, 6.345703125) (3.26067886352539e-05, 6.34765625) (3.2924613952636714e-05, 6.349609375) (3.320600891113281e-05, 6.3515625) (3.3445373535156246e-05, 6.353515625) (3.3637393951416014e-05, 6.35546875) (3.37770881652832e-05, 6.357421875) (3.3859867095947265e-05, 6.359375) (3.3881534576416014e-05, 6.361328125) (3.3838336944580076e-05, 6.36328125) (3.372694396972656e-05, 6.365234375) (3.354441452026367e-05, 6.3671875) (3.328823089599609e-05, 6.369140625) (3.295630264282226e-05, 6.37109375) (3.254705810546875e-05, 6.373046875) (3.205947113037109e-05, 6.375) (3.149309730529785e-05, 6.376953125) (3.084808349609375e-05, 6.37890625) (3.012518310546875e-05, 6.380859375) (2.9325763702392576e-05, 6.3828125) (2.8451835632324217e-05, 6.384765625) (2.7506052017211912e-05, 6.38671875) (2.6491653442382812e-05, 6.388671875) (2.541238212585449e-05, 6.390625) (2.427248954772949e-05, 6.392578125) (2.3076671600341797e-05, 6.39453125) (2.1830066680908204e-05, 6.396484375) (2.0538261413574217e-05, 6.3984375) (1.9207223892211914e-05, 6.400390625) (1.7843227386474608e-05, 6.40234375) (1.645285987854004e-05, 6.404296875) (1.504298210144043e-05, 6.40625) (1.362063980102539e-05, 6.408203125) (1.2193036079406739e-05, 6.41015625) (1.0767435073852539e-05, 6.412109375) (9.351037979125976e-06, 6.4140625) (7.95095443725586e-06, 6.416015625) (6.574157238006591e-06, 6.41796875) 