(0.00019474310302734375, 0.0) (0.00022191412353515623, 0.001953125) (0.0002528445129394531, 0.00390625) (0.0002861924438476562, 0.005859375) (0.0003202644653320312, 0.0078125) (0.0003524813232421875, 0.009765625) (0.0003810138549804687, 0.01171875) (0.00040438995361328123, 0.013671875) (0.0004208419799804687, 0.015625) (0.00042987548828125, 0.017578125) (0.0004322351379394531, 0.01953125) (0.0004286614379882812, 0.021484375) (0.000420552734375, 0.0234375) (0.000409953857421875, 0.025390625) (0.00039810336303710935, 0.02734375) (0.00038615988159179687, 0.029296875) (0.0003757069396972656, 0.03125) (0.0003674476013183594, 0.033203125) (0.00036136169433593747, 0.03515625) (0.00035722381591796876, 0.037109375) (0.00035412542724609376, 0.0390625) (0.00035099371337890626, 0.041015625) (0.000347579833984375, 0.04296875) (0.00034379425048828124, 0.044921875) (0.000339243896484375, 0.046875) (0.00033386663818359374, 0.048828125) (0.0003278206787109375, 0.05078125) (0.0003216347351074219, 0.052734375) (0.0003164049072265625, 0.0546875) (0.00031306481933593747, 0.056640625) (0.0003117992248535156, 0.05859375) (0.0003122903747558594, 0.060546875) (0.00031428579711914064, 0.0625) (0.0003175885009765625, 0.064453125) (0.00032200656127929686, 0.06640625) (0.0003269413452148437, 0.068359375) (0.0003312936401367187, 0.0703125) (0.00033397351074218747, 0.072265625) (0.0003343044738769531, 0.07421875) (0.0003323087158203125, 0.076171875) (0.00032811801147460937, 0.078125) (0.000321765869140625, 0.080078125) (0.00031331454467773437, 0.08203125) (0.0003030780029296875, 0.083984375) (0.00029194064331054684, 0.0859375) (0.0002814268493652344, 0.087890625) (0.00027338211059570313, 0.08984375) (0.0002693468017578125, 0.091796875) (0.000270820556640625, 0.09375) (0.0002794798889160156, 0.095703125) (0.0002970925598144531, 0.09765625) (0.000325568603515625, 0.099609375) (0.0003665802001953125, 0.1015625) (0.00041894760131835934, 0.103515625) (0.0004787748107910156, 0.10546875) (0.0005428214111328124, 0.107421875) (0.0006075618896484374, 0.109375) (0.0006739932861328124, 0.111328125) (0.000748141357421875, 0.11328125) (0.0008290309448242187, 0.115234375) (0.0009108033447265625, 0.1171875) (0.0009804739990234375, 0.119140625) (0.0010156690063476562, 0.12109375) (0.00100507275390625, 0.123046875) (0.00094798876953125, 0.125) (0.0008510258789062499, 0.126953125) (0.0007338071899414062, 0.12890625) (0.000612304443359375, 0.130859375) (0.0004977819519042969, 0.1328125) (0.00040346002197265624, 0.134765625) (0.000335986572265625, 0.13671875) (0.00029806506347656247, 0.138671875) (0.00028884347534179685, 0.140625) (0.0002981437072753906, 0.142578125) (0.0003139303283691406, 0.14453125) (0.0003288933410644531, 0.146484375) (0.00033928744506835936, 0.1484375) (0.00034692895507812497, 0.150390625) (0.00035581689453124997, 0.15234375) (0.0003659454956054687, 0.154296875) (0.0003757781677246094, 0.15625) (0.000383439453125, 0.158203125) (0.0003866937255859375, 0.16015625) (0.00038579110717773437, 0.162109375) (0.0003823638305664062, 0.1640625) (0.00037774386596679685, 0.166015625) (0.0003736823425292969, 0.16796875) (0.00037159466552734373, 0.169921875) (0.0003719151611328125, 0.171875) (0.00037478387451171874, 0.173828125) (0.00038001812744140626, 0.17578125) (0.00038704580688476563, 0.177734375) (0.00039534020996093746, 0.1796875) (0.0004044477844238281, 0.181640625) (0.00041379998779296875, 0.18359375) (0.00042287231445312497, 0.185546875) (0.00043141412353515625, 0.1875) (0.0004393398742675781, 0.189453125) (0.0004467129516601562, 0.19140625) (0.00045373052978515624, 0.193359375) (0.00046053778076171874, 0.1953125) (0.000467228271484375, 0.197265625) (0.00047390490722656246, 0.19921875) (0.0004806522827148437, 0.201171875) (0.00048751095581054684, 0.203125) (0.0004945037841796875, 0.205078125) (0.0005016166381835937, 0.20703125) (0.0005087892150878906, 0.208984375) (0.0005159840087890625, 0.2109375) (0.00052317578125, 0.212890625) (0.0005303341064453125, 0.21484375) (0.0005374642333984375, 0.216796875) (0.0005445568237304687, 0.21875) (0.0005515137329101562, 0.220703125) (0.0005582298583984374, 0.22265625) (0.0005646033935546874, 0.224609375) (0.000570510498046875, 0.2265625) (0.0005759066162109375, 0.228515625) (0.000580817626953125, 0.23046875) (0.00058523486328125, 0.232421875) (0.0005891552734375, 0.234375) (0.0005927930908203125, 0.236328125) (0.0005963943481445312, 0.23828125) (0.0005999287719726563, 0.240234375) (0.0006034937744140625, 0.2421875) (0.0006072090454101563, 0.244140625) (0.0006107425537109375, 0.24609375) (0.0006149766845703125, 0.248046875) (0.0006207285766601562, 0.25) (0.0006267220458984375, 0.251953125) (0.0006326785888671875, 0.25390625) (0.000636068603515625, 0.255859375) (0.0006341287231445312, 0.2578125) (0.0006295719604492187, 0.259765625) (0.0006241693115234375, 0.26171875) (0.0006227667236328125, 0.263671875) (0.000630369140625, 0.265625) (0.0006451114501953124, 0.267578125) (0.0006658466796875, 0.26953125) (0.0006873927001953124, 0.271484375) (0.0007054151611328124, 0.2734375) (0.0007192479858398437, 0.275390625) (0.0007255689697265625, 0.27734375) (0.0007258717041015624, 0.279296875) (0.0007195269775390625, 0.28125) (0.0007076176147460937, 0.283203125) (0.0006980066528320312, 0.28515625) (0.0006937608642578124, 0.287109375) (0.0006997982177734375, 0.2890625) (0.0007164567871093749, 0.291015625) (0.0007347874755859375, 0.29296875) (0.0007496292114257812, 0.294921875) (0.0007558450927734375, 0.296875) (0.0007518526611328125, 0.298828125) (0.0007434998168945312, 0.30078125) (0.0007343839721679688, 0.302734375) (0.0007267196044921874, 0.3046875) (0.0007216466064453124, 0.306640625) (0.0007171143798828124, 0.30859375) (0.000712055908203125, 0.310546875) (0.0007066307373046874, 0.3125) (0.0007008035278320312, 0.314453125) (0.0006949655761718749, 0.31640625) (0.0006892943115234375, 0.318359375) (0.0006835660400390625, 0.3203125) (0.000677751708984375, 0.322265625) (0.0006719500122070312, 0.32421875) (0.0006662177734375, 0.326171875) (0.0006605723876953125, 0.328125) (0.00065499755859375, 0.330078125) (0.0006494510498046875, 0.33203125) (0.0006438592529296875, 0.333984375) (0.0006381531982421875, 0.3359375) (0.000632264892578125, 0.337890625) (0.0006261075439453125, 0.33984375) (0.0006196218872070313, 0.341796875) (0.0006127804565429687, 0.34375) (0.0006055525512695312, 0.345703125) (0.000597904296875, 0.34765625) (0.000589806640625, 0.349609375) (0.0005812163696289062, 0.3515625) (0.000572081787109375, 0.353515625) (0.0005623648071289062, 0.35546875) (0.0005520311889648437, 0.357421875) (0.0005410609130859375, 0.359375) (0.0005294642944335937, 0.361328125) (0.0005172730712890625, 0.36328125) (0.0005045410766601563, 0.365234375) (0.0004913308715820313, 0.3671875) (0.0004776929321289062, 0.369140625) (0.0004636651000976562, 0.37109375) (0.0004492765502929687, 0.373046875) (0.0004345479125976562, 0.375) (0.0004194952697753906, 0.376953125) (0.0004041329345703125, 0.37890625) (0.00038846875, 0.380859375) (0.0003725137939453125, 0.3828125) (0.00035629040527343747, 0.384765625) (0.00033982312011718747, 0.38671875) (0.0003231375732421875, 0.388671875) (0.0003062553100585937, 0.390625) (0.00028918792724609376, 0.392578125) (0.0002719394836425781, 0.39453125) (0.00025450869750976563, 0.396484375) (0.00023689480590820313, 0.3984375) (0.00021909954833984374, 0.400390625) (0.00020112921142578124, 0.40234375) (0.00018299443054199218, 0.404296875) (0.00016470941162109373, 0.40625) (0.00014629269409179686, 0.408203125) (0.00012776683807373047, 0.41015625) (0.00010915834045410156, 0.412109375) (9.049264526367187e-05, 0.4140625) (7.17918701171875e-05, 0.416015625) (5.3076389312744136e-05, 0.41796875) (3.4365245819091794e-05, 0.419921875) (1.5678609848022462e-05, 0.421875) (-2.961634635925293e-06, 0.423828125) (-2.1532642364501953e-05, 0.42578125) (-4.001114654541015e-05, 0.427734375) (-5.837418365478515e-05, 0.4296875) (-7.659829711914063e-05, 0.431640625) (-9.466022491455077e-05, 0.43359375) (-0.00011253753662109375, 0.435546875) (-0.00013020892333984375, 0.4375) (-0.0001476545715332031, 0.439453125) (-0.0001648563995361328, 0.44140625) (-0.00018179751586914063, 0.443359375) (-0.00019846105957031248, 0.4453125) (-0.00021483065795898436, 0.447265625) (-0.00023089044189453123, 0.44921875) (-0.00024662489318847655, 0.451171875) (-0.0002620193481445312, 0.453125) (-0.00027706018066406247, 0.455078125) (-0.0002917344055175781, 0.45703125) (-0.0003060301513671875, 0.458984375) (-0.0003199371948242187, 0.4609375) (-0.00033344677734374996, 0.462890625) (-0.00034655145263671875, 0.46484375) (-0.0003592455139160156, 0.466796875) (-0.0003715243530273437, 0.46875) (-0.000383384765625, 0.470703125) (-0.0003948249816894531, 0.47265625) (-0.0004058445434570312, 0.474609375) (-0.00041644390869140626, 0.4765625) (-0.000426624755859375, 0.478515625) (-0.0004363895263671875, 0.48046875) (-0.00044574182128906246, 0.482421875) (-0.0004546863098144531, 0.484375) (-0.0004632285461425781, 0.486328125) (-0.0004713750305175781, 0.48828125) (-0.00047913299560546873, 0.490234375) (-0.0004865105590820312, 0.4921875) (-0.0004935166625976563, 0.494140625) (-0.0005001614379882812, 0.49609375) (-0.0005064554443359375, 0.498046875) (-0.0005124095458984375, 0.5) (-0.0005180353393554688, 0.501953125) (-0.0005233447265625, 0.50390625) (-0.0005283500366210938, 0.505859375) (-0.00053306396484375, 0.5078125) (-0.0005374995117187499, 0.509765625) (-0.0005416695556640624, 0.51171875) (-0.0005455874023437499, 0.513671875) (-0.0005492663574218749, 0.515625) (-0.0005527202148437499, 0.517578125) (-0.0005559624633789062, 0.51953125) (-0.000559006591796875, 0.521484375) (-0.0005618653564453124, 0.5234375) (-0.0005645516357421875, 0.525390625) (-0.000567078125, 0.52734375) (-0.00056945654296875, 0.529296875) (-0.0005716974487304687, 0.53125) (-0.0005738109130859375, 0.533203125) (-0.0005758056640625, 0.53515625) (-0.0005776903076171874, 0.537109375) (-0.0005794729003906249, 0.5390625) (-0.0005811607055664062, 0.541015625) (-0.0005827600097656249, 0.54296875) (-0.0005842769775390625, 0.544921875) (-0.0005857179565429687, 0.546875) (-0.00058708935546875, 0.548828125) (-0.0005883982543945312, 0.55078125) (-0.000589650146484375, 0.552734375) (-0.0005908493041992187, 0.5546875) (-0.0005919995727539062, 0.556640625) (-0.0005931036376953125, 0.55859375) (-0.0005941639404296874, 0.560546875) (-0.0005951829223632812, 0.5625) (-0.0005961615600585937, 0.564453125) (-0.000597098388671875, 0.56640625) (-0.0005979935302734375, 0.568359375) (-0.0005988470458984375, 0.5703125) (-0.0005996616210937499, 0.572265625) (-0.0006004432373046875, 0.57421875) (-0.0006011929931640625, 0.576171875) (-0.0006019073486328124, 0.578125) (-0.0006025806274414063, 0.580078125) (-0.0006032032470703125, 0.58203125) (-0.0006037669067382812, 0.583984375) (-0.0006042662353515625, 0.5859375) (-0.0006046919555664062, 0.587890625) (-0.0006050314331054687, 0.58984375) (-0.000605277587890625, 0.591796875) (-0.0006054267578125, 0.59375) (-0.0006054834594726562, 0.595703125) (-0.0006054623413085938, 0.59765625) (-0.0006053706054687499, 0.599609375) (-0.0006052100830078124, 0.6015625) (-0.0006049776611328125, 0.603515625) (-0.0006046610107421875, 0.60546875) (-0.0006042576293945313, 0.607421875) (-0.0006037742919921874, 0.609375) (-0.0006032188720703124, 0.611328125) (-0.0006026022338867187, 0.61328125) (-0.0006019360961914063, 0.615234375) (-0.0006012278442382812, 0.6171875) (-0.0006004962158203125, 0.619140625) (-0.0005997713012695313, 0.62109375) (-0.0005990667724609374, 0.623046875) (-0.0005983829345703125, 0.625) (-0.0005977027587890625, 0.626953125) (-0.000596986572265625, 0.62890625) (-0.0005962083740234374, 0.630859375) (-0.0005953557739257812, 0.6328125) (-0.0005944200439453125, 0.634765625) (-0.000593403076171875, 0.63671875) (-0.000592298095703125, 0.638671875) (-0.000591087158203125, 0.640625) (-0.0005897578125, 0.642578125) (-0.0005883004150390625, 0.64453125) (-0.0005867000122070312, 0.646484375) (-0.00058494384765625, 0.6484375) (-0.0005830036621093749, 0.650390625) (-0.0005808329467773437, 0.65234375) (-0.0005784105224609375, 0.654296875) (-0.000575736328125, 0.65625) (-0.0005728317260742188, 0.658203125) (-0.0005697468261718749, 0.66015625) (-0.0005665172119140625, 0.662109375) (-0.0005631619873046875, 0.6640625) (-0.0005597018432617187, 0.666015625) (-0.0005561512451171875, 0.66796875) (-0.00055252783203125, 0.669921875) (-0.0005488565673828125, 0.671875) (-0.00054515234375, 0.673828125) (-0.0005414203491210937, 0.67578125) (-0.0005376751708984375, 0.677734375) (-0.0005339344482421875, 0.6796875) (-0.0005302293701171874, 0.681640625) (-0.0005266082153320312, 0.68359375) (-0.0005230982055664062, 0.685546875) (-0.000519707763671875, 0.6875) (-0.0005164307861328125, 0.689453125) (-0.000513240478515625, 0.69140625) (-0.0005101195983886719, 0.693359375) (-0.0005070632629394531, 0.6953125) (-0.0005040624389648437, 0.697265625) (-0.0005011086120605469, 0.69921875) (-0.000498195556640625, 0.701171875) (-0.0004953160705566406, 0.703125) (-0.0004924725952148438, 0.705078125) (-0.0004896780090332031, 0.70703125) (-0.00048693695068359374, 0.708984375) (-0.0004842487182617187, 0.7109375) (-0.0004816056518554687, 0.712890625) (-0.00047899032592773434, 0.71484375) (-0.0004763948364257812, 0.716796875) (-0.0004738207092285156, 0.71875) (-0.0004712738342285156, 0.720703125) (-0.00046876730346679686, 0.72265625) (-0.00046631060791015624, 0.724609375) (-0.0004639078979492187, 0.7265625) (-0.00046156585693359374, 0.728515625) (-0.00045929254150390626, 0.73046875) (-0.00045709228515625, 0.732421875) (-0.0004549671020507812, 0.734375) (-0.00045291357421874996, 0.736328125) (-0.00045092178344726563, 0.73828125) (-0.0004489853515625, 0.740234375) (-0.0004471007385253906, 0.7421875) (-0.00044526547241210935, 0.744140625) (-0.0004434793701171875, 0.74609375) (-0.00044174023437499997, 0.748046875) (-0.00044004296875, 0.75) (-0.000438382568359375, 0.751953125) (-0.00043675335693359375, 0.75390625) (-0.00043514938354492186, 0.755859375) (-0.00043356491088867183, 0.7578125) (-0.0004319929504394531, 0.759765625) (-0.0004304252319335937, 0.76171875) (-0.00042885467529296873, 0.763671875) (-0.0004272753295898437, 0.765625) (-0.0004256821899414062, 0.767578125) (-0.00042407171630859375, 0.76953125) (-0.000422439697265625, 0.771484375) (-0.00042078112792968747, 0.7734375) (-0.00041909149169921874, 0.775390625) (-0.00041736618041992186, 0.77734375) (-0.0004156007080078125, 0.779296875) (-0.00041379071044921875, 0.78125) (-0.00041193164062499997, 0.783203125) (-0.00041001861572265624, 0.78515625) (-0.000408047607421875, 0.787109375) (-0.00040601525878906247, 0.7890625) (-0.0004039186096191406, 0.791015625) (-0.00040175555419921875, 0.79296875) (-0.00039952398681640625, 0.794921875) (-0.0003972223205566406, 0.796875) (-0.000394849365234375, 0.798828125) (-0.00039240444946289063, 0.80078125) (-0.0003898870849609375, 0.802734375) (-0.00038729681396484374, 0.8046875) (-0.0003846336669921875, 0.806640625) (-0.0003818976440429687, 0.80859375) (-0.0003790891418457031, 0.810546875) (-0.00037620880126953125, 0.8125) (-0.00037325732421875, 0.814453125) (-0.0003702357177734375, 0.81640625) (-0.00036714520263671875, 0.818359375) (-0.00036398712158203125, 0.8203125) (-0.0003607630615234375, 0.822265625) (-0.0003574747619628906, 0.82421875) (-0.0003541239013671875, 0.826171875) (-0.00035071240234375, 0.828125) (-0.00034724191284179687, 0.830078125) (-0.0003437142639160156, 0.83203125) (-0.0003401312561035156, 0.833984375) (-0.0003364946594238281, 0.8359375) (-0.0003328060607910156, 0.837890625) (-0.00032906689453125, 0.83984375) (-0.0003252784423828125, 0.841796875) (-0.0003214419555664062, 0.84375) (-0.00031755856323242187, 0.845703125) (-0.00031362918090820313, 0.84765625) (-0.0003096544189453125, 0.849609375) (-0.0003056343383789062, 0.8515625) (-0.00030156890869140624, 0.853515625) (-0.0002974578857421875, 0.85546875) (-0.0002933005676269531, 0.857421875) (-0.00028909619140625, 0.859375) (-0.00028484368896484374, 0.861328125) (-0.0002805417785644531, 0.86328125) (-0.00027618908691406246, 0.865234375) (-0.00027178421020507813, 0.8671875) (-0.00026732568359374997, 0.869140625) (-0.00026281182861328124, 0.87109375) (-0.00025824108886718746, 0.873046875) (-0.0002536116790771484, 0.875) (-0.00024892184448242185, 0.876953125) (-0.0002441698760986328, 0.87890625) (-0.00023935411071777344, 0.880859375) (-0.00023447286987304686, 0.8828125) (-0.0002295245819091797, 0.884765625) (-0.0002245077667236328, 0.88671875) (-0.0002194209747314453, 0.888671875) (-0.00021426300048828123, 0.890625) (-0.0002090328369140625, 0.892578125) (-0.00020372964477539062, 0.89453125) (-0.00019835292053222656, 0.896484375) (-0.00019290240478515624, 0.8984375) (-0.00018737826538085936, 0.900390625) (-0.0001817812042236328, 0.90234375) (-0.00017611251831054688, 0.904296875) (-0.00017037387084960936, 0.90625) (-0.00016456739807128905, 0.908203125) (-0.00015869583129882813, 0.91015625) (-0.00015276235961914062, 0.912109375) (-0.00014677078247070312, 0.9140625) (-0.00014072538757324218, 0.916015625) (-0.00013463079833984375, 0.91796875) (-0.0001284920196533203, 0.919921875) (-0.00012231454467773436, 0.921875) (-0.00011610419464111327, 0.923828125) (-0.00010986723327636719, 0.92578125) (-0.00010361028289794921, 0.927734375) (-9.73401641845703e-05, 0.9296875) (-9.106404876708983e-05, 0.931640625) (-8.478947448730469e-05, 0.93359375) (-7.852409362792968e-05, 0.935546875) (-7.227590942382812e-05, 0.9375) (-6.605316925048828e-05, 0.939453125) (-5.986412048339843e-05, 0.94140625) (-5.371712493896484e-05, 0.943359375) (-4.762078094482422e-05, 0.9453125) (-4.158376312255859e-05, 0.947265625) (-3.5614906311035153e-05, 0.94921875) (-2.97232608795166e-05, 0.951171875) (-2.3917701721191406e-05, 0.953125) (-1.8206878662109375e-05, 0.955078125) (-1.25994873046875e-05, 0.95703125) (-7.103998661041259e-06, 0.958984375) (-1.7283382415771483e-06, 0.9609375) (3.520071983337402e-06, 0.962890625) (8.634748458862305e-06, 0.96484375) (1.3610148429870605e-05, 0.966796875) (1.8440917968749998e-05, 0.96875) (2.3122060775756836e-05, 0.970703125) (2.7649229049682615e-05, 0.97265625) (3.2018547058105464e-05, 0.974609375) (3.6226608276367184e-05, 0.9765625) (4.027033233642578e-05, 0.978515625) (4.4146297454833985e-05, 0.98046875) (4.785104370117187e-05, 0.982421875) (5.138221740722656e-05, 0.984375) (5.473810577392578e-05, 0.986328125) (5.791799926757812e-05, 0.98828125) (6.092221069335937e-05, 0.990234375) (6.375106811523437e-05, 0.9921875) (6.640554809570313e-05, 0.994140625) (6.88880615234375e-05, 0.99609375) (7.120146179199219e-05, 0.998046875) (7.334909057617187e-05, 1.0) (7.533550262451171e-05, 1.001953125) (7.71641616821289e-05, 1.00390625) (7.883770751953125e-05, 1.005859375) (8.036115264892578e-05, 1.0078125) (8.173977661132813e-05, 1.009765625) (8.298042297363281e-05, 1.01171875) (8.409286499023437e-05, 1.013671875) (8.508369445800781e-05, 1.015625) (8.595596313476563e-05, 1.017578125) (8.671256256103516e-05, 1.01953125) (8.735418701171875e-05, 1.021484375) (8.78785171508789e-05, 1.0234375) (8.828253173828125e-05, 1.025390625) (8.855738830566406e-05, 1.02734375) (8.868879699707031e-05, 1.029296875) (8.866612243652344e-05, 1.03125) (8.847914123535156e-05, 1.033203125) (8.812073516845703e-05, 1.03515625) (8.75896987915039e-05, 1.037109375) (8.688119506835937e-05, 1.0390625) (8.599131774902343e-05, 1.041015625) (8.491921997070312e-05, 1.04296875) (8.36615982055664e-05, 1.044921875) (8.222215270996093e-05, 1.046875) (8.061558532714843e-05, 1.048828125) (7.885672760009765e-05, 1.05078125) (7.696376800537109e-05, 1.052734375) (7.496517944335937e-05, 1.0546875) (7.288829040527343e-05, 1.056640625) (7.076902770996094e-05, 1.05859375) (6.865646362304687e-05, 1.060546875) (6.658776855468749e-05, 1.0625) (6.45926284790039e-05, 1.064453125) (6.269550323486328e-05, 1.06640625) (6.090668487548828e-05, 1.068359375) (5.923523712158203e-05, 1.0703125) (5.768745422363281e-05, 1.072265625) (5.6258121490478514e-05, 1.07421875) (5.4936370849609373e-05, 1.076171875) (5.370228576660156e-05, 1.078125) (5.251944351196289e-05, 1.080078125) (5.134907913208008e-05, 1.08203125) (5.015132141113281e-05, 1.083984375) (4.887490844726562e-05, 1.0859375) (4.747510147094726e-05, 1.087890625) (4.5903285980224606e-05, 1.08984375) (4.409761810302734e-05, 1.091796875) (4.2014068603515624e-05, 1.09375) (3.9623878479003906e-05, 1.095703125) (3.6908023834228515e-05, 1.09765625) (3.3866325378417966e-05, 1.099609375) (3.050787353515625e-05, 1.1015625) (2.6845077514648435e-05, 1.103515625) (2.2902450561523436e-05, 1.10546875) (1.871951675415039e-05, 1.107421875) (1.4342954635620116e-05, 1.109375) (9.830385208129882e-06, 1.111328125) (5.24169921875e-06, 1.11328125) (6.294538974761962e-07, 1.115234375) (-3.962987661361694e-06, 1.1171875) (-8.516031265258789e-06, 1.119140625) (-1.3014283180236816e-05, 1.12109375) (-1.7443418502807616e-05, 1.123046875) (-2.1798206329345702e-05, 1.125) (-2.607219696044922e-05, 1.126953125) (-3.0284591674804684e-05, 1.12890625) (-3.448141479492187e-05, 1.130859375) (-3.8719284057617183e-05, 1.1328125) (-4.30573501586914e-05, 1.134765625) (-4.7547470092773435e-05, 1.13671875) (-5.223069000244141e-05, 1.138671875) (-5.717463684082031e-05, 1.140625) (-6.250273895263672e-05, 1.142578125) (-6.82718505859375e-05, 1.14453125) (-7.441775512695312e-05, 1.146484375) (-8.072493743896484e-05, 1.1484375) (-8.677926635742187e-05, 1.150390625) (-9.215741729736328e-05, 1.15234375) (-9.653057861328124e-05, 1.154296875) (-9.951980590820312e-05, 1.15625) (-0.0001006331329345703, 1.158203125) (-9.951940155029297e-05, 1.16015625) (-9.613810729980468e-05, 1.162109375) (-9.088426971435547e-05, 1.1640625) (-8.474357604980468e-05, 1.166015625) (-7.879493713378906e-05, 1.16796875) (-7.381517791748047e-05, 1.169921875) (-7.054510498046875e-05, 1.171875) (-6.979305267333984e-05, 1.173828125) (-7.204393005371094e-05, 1.17578125) (-7.709204101562499e-05, 1.177734375) (-8.376685333251952e-05, 1.1796875) (-8.976493835449219e-05, 1.181640625) (-9.244168090820312e-05, 1.18359375) (-8.927511596679688e-05, 1.185546875) (-7.764133453369141e-05, 1.1875) (-5.4834831237792964e-05, 1.189453125) (-1.8117673873901365e-05, 1.19140625) (3.2865524291992184e-05, 1.193359375) (9.481771850585937e-05, 1.1953125) (0.00016345120239257812, 1.197265625) (0.0002341854248046875, 1.19921875) (0.0003060126953125, 1.201171875) (0.00038436569213867185, 1.203125) (0.0004715136108398437, 1.205078125) (0.0005617869873046874, 1.20703125) (0.000642062255859375, 1.208984375) (0.0006893381347656249, 1.2109375) (0.0006833284301757813, 1.212890625) (0.00061921875, 1.21484375) (0.0005033532409667969, 1.216796875) (0.0003514611206054687, 1.21875) (0.00018503755187988281, 1.220703125) (1.9536399841308592e-05, 1.22265625) (-0.00013351736450195313, 1.224609375) (-0.0002602074584960937, 1.2265625) (-0.0003504708251953125, 1.228515625) (-0.00039886523437499997, 1.23046875) (-0.00040311920166015625, 1.232421875) (-0.00037122247314453125, 1.234375) (-0.00031806732177734376, 1.236328125) (-0.0002569751281738281, 1.23828125) (-0.00020159104919433593, 1.240234375) (-0.00016072299194335937, 1.2421875) (-0.00013425830078125, 1.244140625) (-0.00011912749481201172, 1.24609375) (-0.0001088045654296875, 1.248046875) (-9.759134674072265e-05, 1.25) (-8.526628112792969e-05, 1.251953125) (-7.404256439208985e-05, 1.25390625) (-6.82699737548828e-05, 1.255859375) (-7.025018310546875e-05, 1.2578125) (-7.832508850097656e-05, 1.259765625) (-8.9560791015625e-05, 1.26171875) (-9.989769744873047e-05, 1.263671875) (-0.00010663775634765625, 1.265625) (-0.00010934496307373047, 1.267578125) (-0.00010812039184570312, 1.26953125) (-0.00010354881286621094, 1.271484375) (-9.662052917480468e-05, 1.2734375) (-8.822639465332031e-05, 1.275390625) (-7.938854217529296e-05, 1.27734375) (-7.144822692871094e-05, 1.279296875) (-6.529328155517578e-05, 1.28125) (-6.126636123657226e-05, 1.283203125) (-5.955733489990234e-05, 1.28515625) (-6.0047828674316405e-05, 1.287109375) (-6.242318725585937e-05, 1.2890625) (-6.638220977783203e-05, 1.291015625) (-7.146029663085937e-05, 1.29296875) (-7.703858184814452e-05, 1.294921875) (-8.26997833251953e-05, 1.296875) (-8.820635223388671e-05, 1.298828125) (-9.337855529785156e-05, 1.30078125) (-9.814840698242187e-05, 1.302734375) (-0.00010243705749511718, 1.3046875) (-0.00010612675476074218, 1.306640625) (-0.00010917769622802734, 1.30859375) (-0.00011160049438476562, 1.310546875) (-0.00011338930511474609, 1.3125) (-0.00011453732299804687, 1.314453125) (-0.00011503550720214843, 1.31640625) (-0.0001148772735595703, 1.318359375) (-0.00011409689331054687, 1.3203125) (-0.00011276374816894531, 1.322265625) (-0.00011095603942871093, 1.32421875) (-0.00010875344848632812, 1.326171875) (-0.00010623856353759766, 1.328125) (-0.00010349369812011718, 1.330078125) (-0.00010060299682617187, 1.33203125) (-9.765772247314453e-05, 1.333984375) (-9.474305725097655e-05, 1.3359375) (-9.192663574218749e-05, 1.337890625) (-8.9271484375e-05, 1.33984375) (-8.683916473388671e-05, 1.341796875) (-8.467558288574218e-05, 1.34375) (-8.281667327880859e-05, 1.345703125) (-8.127640533447265e-05, 1.34765625) (-8.00345001220703e-05, 1.349609375) (-7.906126403808593e-05, 1.3515625) (-7.832183837890624e-05, 1.353515625) (-7.776971435546875e-05, 1.35546875) (-7.73569564819336e-05, 1.357421875) (-7.702093505859375e-05, 1.359375) (-7.668045043945312e-05, 1.361328125) (-7.626496887207031e-05, 1.36328125) (-7.571430206298828e-05, 1.365234375) (-7.497018432617188e-05, 1.3671875) (-7.398446655273437e-05, 1.369140625) (-7.269615173339844e-05, 1.37109375) (-7.1027587890625e-05, 1.373046875) (-6.891928100585938e-05, 1.375) (-6.632913208007812e-05, 1.376953125) (-6.323464202880859e-05, 1.37890625) (-5.964183044433594e-05, 1.380859375) (-5.555935668945312e-05, 1.3828125) (-5.099552154541015e-05, 1.384765625) (-4.597884368896484e-05, 1.38671875) (-4.055144119262695e-05, 1.388671875) (-3.477136993408203e-05, 1.390625) (-2.8715253829956052e-05, 1.392578125) (-2.24435920715332e-05, 1.39453125) (-1.5999385833740233e-05, 1.396484375) (-9.429618835449219e-06, 1.3984375) (-2.7811660766601562e-06, 1.400390625) (3.887039422988892e-06, 1.40234375) (1.0503515243530273e-05, 1.404296875) (1.7014768600463866e-05, 1.40625) (2.3387111663818357e-05, 1.408203125) (2.9598609924316406e-05, 1.41015625) (3.563912963867188e-05, 1.412109375) (4.149992370605468e-05, 1.4140625) (4.717527770996094e-05, 1.416015625) (5.2675811767578124e-05, 1.41796875) (5.8023078918457025e-05, 1.419921875) (6.324344635009765e-05, 1.421875) (6.836342620849609e-05, 1.423828125) (7.339260101318359e-05, 1.42578125) (7.833302307128906e-05, 1.427734375) (8.31945343017578e-05, 1.4296875) (8.799343109130859e-05, 1.431640625) (9.275218963623046e-05, 1.43359375) (9.748802185058593e-05, 1.435546875) (0.00010220304870605469, 1.4375) (0.00010688788604736328, 1.439453125) (0.00011152460479736327, 1.44140625) (0.0001160922393798828, 1.443359375) (0.00012056447601318359, 1.4453125) (0.0001248988265991211, 1.447265625) (0.00012904653930664062, 1.44921875) (0.00013296907043457032, 1.451171875) (0.00013663851928710937, 1.453125) (0.00014004745483398436, 1.455078125) (0.0001432080841064453, 1.45703125) (0.00014612362670898436, 1.458984375) (0.0001487884063720703, 1.4609375) (0.00015119432067871094, 1.462890625) (0.00015332958984375, 1.46484375) (0.00015519677734375, 1.466796875) (0.00015681066894531248, 1.46875) (0.00015818499755859374, 1.470703125) (0.00015934323120117186, 1.47265625) (0.0001603243408203125, 1.474609375) (0.00016118351745605467, 1.4765625) (0.00016200570678710937, 1.478515625) (0.00016288125610351562, 1.48046875) (0.0001638711395263672, 1.482421875) (0.00016501698303222656, 1.484375) (0.00016633847045898436, 1.486328125) (0.00016783300781249999, 1.48828125) (0.00016950836181640625, 1.490234375) (0.00017137718200683594, 1.4921875) (0.00017343846130371093, 1.494140625) (0.0001756911926269531, 1.49609375) (0.00017813250732421875, 1.498046875) (0.00018074990844726561, 1.5) (0.00018353715515136718, 1.501953125) (0.00018647958374023437, 1.50390625) (0.00018952487182617185, 1.505859375) (0.0001925926971435547, 1.5078125) (0.00019557383728027343, 1.509765625) (0.0001983441162109375, 1.51171875) (0.00020080380249023436, 1.513671875) (0.00020286796569824218, 1.515625) (0.0002044486846923828, 1.517578125) (0.00020547169494628906, 1.51953125) (0.00020586582946777342, 1.521484375) (0.00020555535888671874, 1.5234375) (0.00020450106811523437, 1.525390625) (0.00020267549133300781, 1.52734375) (0.00020003239440917969, 1.529296875) (0.0001965448303222656, 1.53125) (0.00019216387939453123, 1.533203125) (0.00018681716918945312, 1.53515625) (0.0001804954833984375, 1.537109375) (0.00017322998046875, 1.5390625) (0.0001650726318359375, 1.541015625) (0.00015614132690429687, 1.54296875) (0.00014651292419433592, 1.544921875) (0.00013618826293945312, 1.546875) (0.00012533619689941404, 1.548828125) (0.00011424851989746093, 1.55078125) (0.00010318710327148437, 1.552734375) (9.247859191894531e-05, 1.5546875) (8.22547607421875e-05, 1.556640625) (7.237464904785157e-05, 1.55859375) (6.292409515380859e-05, 1.560546875) (5.420397567749023e-05, 1.5625) (4.624915313720703e-05, 1.564453125) (3.896087265014648e-05, 1.56640625) (3.2174049377441406e-05, 1.568359375) (2.5487331390380857e-05, 1.5703125) (1.9064918518066405e-05, 1.572265625) (1.3734508514404297e-05, 1.57421875) (9.969696044921875e-06, 1.576171875) (7.950748443603516e-06, 1.578125) (8.05055809020996e-06, 1.580078125) (1.0608237266540527e-05, 1.58203125) (1.6134464263916016e-05, 1.583984375) (2.550187873840332e-05, 1.5859375) (3.875312805175781e-05, 1.587890625) (5.5004081726074215e-05, 1.58984375) (7.36422119140625e-05, 1.591796875) (9.423435974121093e-05, 1.59375) (0.00011629179382324218, 1.595703125) (0.0001395177307128906, 1.59765625) (0.00016335217285156248, 1.599609375) (0.00018682015991210936, 1.6015625) (0.00020955953979492187, 1.603515625) (0.0002318763732910156, 1.60546875) (0.0002539123077392578, 1.607421875) (0.0002757397155761719, 1.609375) (0.00029735482788085935, 1.611328125) (0.00031850274658203124, 1.61328125) (0.000339083984375, 1.615234375) (0.00035923721313476563, 1.6171875) (0.0003788238525390625, 1.619140625) (0.00039743865966796875, 1.62109375) (0.0004147844848632812, 1.623046875) (0.00043061776733398433, 1.625) (0.00044477243041992183, 1.626953125) (0.0004572403869628906, 1.62890625) (0.00046804049682617186, 1.630859375) (0.00047719573974609373, 1.6328125) (0.00048495819091796873, 1.634765625) (0.0004917933654785156, 1.63671875) (0.0004980054321289063, 1.638671875) (0.0005037105712890625, 1.640625) (0.0005089639892578125, 1.642578125) (0.0005137357788085938, 1.64453125) (0.0005179654541015625, 1.646484375) (0.000521643798828125, 1.6484375) (0.000524506103515625, 1.650390625) (0.0005259486694335938, 1.65234375) (0.0005257142333984374, 1.654296875) (0.000524055908203125, 1.65625) (0.0005215079956054688, 1.658203125) (0.0005189346923828125, 1.66015625) (0.0005172864990234375, 1.662109375) (0.0005172523803710937, 1.6640625) (0.0005196483154296875, 1.666015625) (0.0005256632690429687, 1.66796875) (0.0005361034545898438, 1.669921875) (0.0005511001586914063, 1.671875) (0.0005703436279296875, 1.673828125) (0.0005929105224609375, 1.67578125) (0.0006175034790039062, 1.677734375) (0.0006431560058593749, 1.6796875) (0.0006689952392578125, 1.681640625) (0.0006938596801757813, 1.68359375) (0.0007168110961914062, 1.685546875) (0.000737380615234375, 1.6875) (0.0007552972412109374, 1.689453125) (0.00077079833984375, 1.69140625) (0.0007847084960937499, 1.693359375) (0.0007975541381835937, 1.6953125) (0.0008095977783203125, 1.697265625) (0.0008212330322265624, 1.69921875) (0.000832676025390625, 1.701171875) (0.0008439423217773437, 1.703125) (0.0008551544189453125, 1.705078125) (0.000866185302734375, 1.70703125) (0.0008763743896484375, 1.708984375) (0.0008852584838867187, 1.7109375) (0.0008925941772460937, 1.712890625) (0.0008980928955078125, 1.71484375) (0.0009016585693359375, 1.716796875) (0.0009032239379882812, 1.71875) (0.0009025354003906249, 1.720703125) (0.0008994405517578124, 1.72265625) (0.0008940705566406249, 1.724609375) (0.0008864825439453125, 1.7265625) (0.0008766712646484375, 1.728515625) (0.0008646589355468749, 1.73046875) (0.0008503529663085938, 1.732421875) (0.0008337227783203125, 1.734375) (0.0008148800048828125, 1.736328125) (0.0007939442749023437, 1.73828125) (0.0007710204467773437, 1.740234375) (0.0007462491455078124, 1.7421875) (0.00071978466796875, 1.744140625) (0.00069182373046875, 1.74609375) (0.0006626437988281249, 1.748046875) (0.0006325241699218749, 1.75) (0.0006017335205078124, 1.751953125) (0.000570528076171875, 1.75390625) (0.0005391344604492187, 1.755859375) (0.0005078052673339843, 1.7578125) (0.0004768249816894531, 1.759765625) (0.0004464642333984375, 1.76171875) (0.00041697070312499997, 1.763671875) (0.00038855758666992183, 1.765625) (0.0003613935241699219, 1.767578125) (0.0003356310119628906, 1.76953125) (0.00031140460205078123, 1.771484375) (0.0002887969970703125, 1.7734375) (0.00026784234619140623, 1.775390625) (0.0002485226593017578, 1.77734375) (0.00023077259826660156, 1.779296875) (0.00021451234436035155, 1.78125) (0.00019965164184570312, 1.783203125) (0.00018609561157226562, 1.78515625) (0.00017374752807617188, 1.787109375) (0.00016248559570312498, 1.7890625) (0.00015216256713867187, 1.791015625) (0.00014262271118164061, 1.79296875) (0.00013370709228515624, 1.794921875) (0.00012526805877685547, 1.796875) (0.00011717799377441406, 1.798828125) (0.00010930894470214844, 1.80078125) (0.00010154531097412109, 1.802734375) (9.380226898193359e-05, 1.8046875) (8.601307678222656e-05, 1.806640625) (7.819326782226563e-05, 1.80859375) (7.043463134765625e-05, 1.810546875) (6.279818725585937e-05, 1.8125) (5.531965637207031e-05, 1.814453125) (4.802397918701172e-05, 1.81640625) (4.0891990661621094e-05, 1.818359375) (3.3930168151855465e-05, 1.8203125) (2.7232757568359372e-05, 1.822265625) (2.0706619262695313e-05, 1.82421875) (1.4016753196716308e-05, 1.826171875) (7.14778184890747e-06, 1.828125) (3.1140232086181637e-07, 1.830078125) (-6.460829257965088e-06, 1.83203125) (-1.2833945274353027e-05, 1.833984375) (-1.9366710662841797e-05, 1.8359375) (-2.7699134826660155e-05, 1.837890625) (-3.7241783142089845e-05, 1.83984375) (-4.6325798034667965e-05, 1.841796875) (-5.181818008422851e-05, 1.84375) (-4.841352081298828e-05, 1.845703125) (-3.6062637329101564e-05, 1.84765625) (-1.839154815673828e-05, 1.849609375) (-1.681051731109619e-06, 1.8515625) (4.084142208099365e-06, 1.853515625) (-4.437112808227539e-06, 1.85546875) (-2.554963684082031e-05, 1.857421875) (-5.290211486816406e-05, 1.859375) (-7.43709259033203e-05, 1.861328125) (-8.336869049072266e-05, 1.86328125) (-7.735377502441406e-05, 1.865234375) (-5.954933929443359e-05, 1.8671875) (-4.01668701171875e-05, 1.869140625) (-2.581039810180664e-05, 1.87109375) (-2.0737588882446287e-05, 1.873046875) (-2.4903301239013672e-05, 1.875) (-3.260829162597656e-05, 1.876953125) (-4.031446075439453e-05, 1.87890625) (-4.5902069091796875e-05, 1.880859375) (-4.878899765014648e-05, 1.8828125) (-5.1011600494384764e-05, 1.884765625) (-5.349173736572265e-05, 1.88671875) (-5.6201034545898436e-05, 1.888671875) (-5.916300582885742e-05, 1.890625) (-6.19674072265625e-05, 1.892578125) (-6.451586151123047e-05, 1.89453125) (-6.710595703125e-05, 1.896484375) (-6.984645080566406e-05, 1.8984375) (-7.273067474365234e-05, 1.900390625) (-7.576222229003906e-05, 1.90234375) (-7.890425109863281e-05, 1.904296875) (-8.20912628173828e-05, 1.90625) (-8.525701141357421e-05, 1.908203125) (-8.834622192382812e-05, 1.91015625) (-9.128858947753906e-05, 1.912109375) (-9.40542755126953e-05, 1.9140625) (-9.666592407226562e-05, 1.916015625) (-9.911427307128906e-05, 1.91796875) (-0.00010139939880371093, 1.919921875) (-0.00010355726623535155, 1.921875) (-0.00010561174011230468, 1.923828125) (-0.00010758610534667969, 1.92578125) (-0.00010950245666503906, 1.927734375) (-0.00011135478973388672, 1.9296875) (-0.00011313130950927734, 1.931640625) (-0.00011483886718749999, 1.93359375) (-0.00011648516082763671, 1.935546875) (-0.00011808374023437499, 1.9375) (-0.00011965534210205078, 1.939453125) (-0.00012120298767089843, 1.94140625) (-0.00012273342895507811, 1.943359375) (-0.00012426040649414063, 1.9453125) (-0.00012578982543945313, 1.947265625) (-0.00012733691406249998, 1.94921875) (-0.00012890170288085937, 1.951171875) (-0.00013045739746093748, 1.953125) (-0.0001319829406738281, 1.955078125) (-0.0001334641876220703, 1.95703125) (-0.00013489103698730468, 1.958984375) (-0.0001362667694091797, 1.9609375) (-0.0001375945587158203, 1.962890625) (-0.00013886614990234373, 1.96484375) (-0.0001400792236328125, 1.966796875) (-0.0001412369842529297, 1.96875) (-0.0001423401184082031, 1.970703125) (-0.0001433948974609375, 1.97265625) (-0.00014440188598632811, 1.974609375) (-0.00014535295104980468, 1.9765625) (-0.00014624227905273436, 1.978515625) (-0.00014706321716308592, 1.98046875) (-0.0001478165283203125, 1.982421875) (-0.00014851467895507812, 1.984375) (-0.00014916748046874998, 1.986328125) (-0.00014978063964843748, 1.98828125) (-0.00015035932922363281, 1.990234375) (-0.0001509052734375, 1.9921875) (-0.00015142086791992187, 1.994140625) (-0.00015191278076171874, 1.99609375) (-0.00015238227844238282, 1.998046875) (-0.00015282452392578123, 2.0) (-0.00015323532104492187, 2.001953125) (-0.00015360992431640624, 2.00390625) (-0.00015394583129882812, 2.005859375) (-0.00015424475097656248, 2.0078125) (-0.0001545073547363281, 2.009765625) (-0.00015473295593261717, 2.01171875) (-0.00015491990661621092, 2.013671875) (-0.000155065185546875, 2.015625) (-0.00015516650390625, 2.017578125) (-0.0001552229461669922, 2.01953125) (-0.00015523313903808593, 2.021484375) (-0.0001551953430175781, 2.0234375) (-0.0001551078643798828, 2.025390625) (-0.0001549689178466797, 2.02734375) (-0.00015477882385253906, 2.029296875) (-0.00015454034423828124, 2.03125) (-0.00015425616455078125, 2.033203125) (-0.00015392881774902342, 2.03515625) (-0.0001535608215332031, 2.037109375) (-0.00015315451049804688, 2.0390625) (-0.00015271275329589842, 2.041015625) (-0.00015223905944824218, 2.04296875) (-0.00015173608398437498, 2.044921875) (-0.0001512054443359375, 2.046875) (-0.00015064907836914062, 2.048828125) (-0.00015006951904296875, 2.05078125) (-0.00014946990966796875, 2.052734375) (-0.00014885394287109373, 2.0546875) (-0.00014822567749023436, 2.056640625) (-0.00014758926391601561, 2.05859375) (-0.00014694992065429686, 2.060546875) (-0.00014631393432617187, 2.0625) (-0.00014568765258789063, 2.064453125) (-0.0001450768585205078, 2.06640625) (-0.00014448663330078124, 2.068359375) (-0.00014392123413085937, 2.0703125) (-0.0001433848876953125, 2.072265625) (-0.00014288198852539062, 2.07421875) (-0.00014241650390625, 2.076171875) (-0.00014199191284179687, 2.078125) (-0.00014161117553710938, 2.080078125) (-0.00014127711486816406, 2.08203125) (-0.0001409940185546875, 2.083984375) (-0.00014076773071289062, 2.0859375) (-0.00014060279846191405, 2.087890625) (-0.00014050228881835937, 2.08984375) (-0.0001404663391113281, 2.091796875) (-0.00014049215698242186, 2.09375) (-0.0001405792999267578, 2.095703125) (-0.00014073045349121094, 2.09765625) (-0.00014094927978515625, 2.099609375) (-0.0001412396240234375, 2.1015625) (-0.0001416060791015625, 2.103515625) (-0.0001420556945800781, 2.10546875) (-0.0001426012725830078, 2.107421875) (-0.00014326203918457031, 2.109375) (-0.00014405560302734375, 2.111328125) (-0.00014499288940429686, 2.11328125) (-0.00014607594299316406, 2.115234375) (-0.00014729937744140624, 2.1171875) (-0.00014865875244140625, 2.119140625) (-0.00015014889526367186, 2.12109375) (-0.00015176513671875, 2.123046875) (-0.00015350172424316406, 2.125) (-0.00015534387207031248, 2.126953125) (-0.00015727420043945312, 2.12890625) (-0.00015927810668945312, 2.130859375) (-0.00016134329223632812, 2.1328125) (-0.0001634549865722656, 2.134765625) (-0.0001655896453857422, 2.13671875) (-0.00016770794677734374, 2.138671875) (-0.00016975607299804686, 2.140625) (-0.00017168681335449218, 2.142578125) (-0.00017346945190429688, 2.14453125) (-0.00017509283447265624, 2.146484375) (-0.0001765589141845703, 2.1484375) (-0.00017786981201171873, 2.150390625) (-0.00017903617858886718, 2.15234375) (-0.00018007508850097657, 2.154296875) (-0.00018101388549804687, 2.15625) (-0.00018189363098144532, 2.158203125) (-0.0001827440185546875, 2.16015625) (-0.00018357716369628906, 2.162109375) (-0.00018439653015136717, 2.1640625) (-0.00018520562744140623, 2.166015625) (-0.00018601934814453124, 2.16796875) (-0.00018687461853027343, 2.169921875) (-0.0001878202209472656, 2.171875) (-0.0001888897705078125, 2.173828125) (-0.00019009745788574217, 2.17578125) (-0.0001914310302734375, 2.177734375) (-0.00019286450195312498, 2.1796875) (-0.00019437136840820313, 2.181640625) (-0.00019590621948242188, 2.18359375) (-0.0001974126739501953, 2.185546875) (-0.00019882020568847656, 2.1875) (-0.00020005465698242185, 2.189453125) (-0.0002010858154296875, 2.19140625) (-0.00020192323303222656, 2.193359375) (-0.0002025918731689453, 2.1953125) (-0.00020311407470703123, 2.197265625) (-0.000203488037109375, 2.19921875) (-0.0002036995849609375, 2.201171875) (-0.00020375833129882812, 2.203125) (-0.0002037057189941406, 2.205078125) (-0.0002036016845703125, 2.20703125) (-0.0002035277557373047, 2.208984375) (-0.00020354437255859373, 2.2109375) (-0.0002037443389892578, 2.212890625) (-0.00020432467651367186, 2.21484375) (-0.00020540896606445312, 2.216796875) (-0.0002069966583251953, 2.21875) (-0.00020893594360351563, 2.220703125) (-0.00021079872131347656, 2.22265625) (-0.00021210018920898437, 2.224609375) (-0.0002125081787109375, 2.2265625) (-0.00021164288330078124, 2.228515625) (-0.00020900831604003906, 2.23046875) (-0.00020441619873046873, 2.232421875) (-0.0001980533447265625, 2.234375) (-0.00019057069396972656, 2.236328125) (-0.00018338041687011717, 2.23828125) (-0.00017791989135742186, 2.240234375) (-0.00017514996337890623, 2.2421875) (-0.0001759755859375, 2.244140625) (-0.00018119676208496092, 2.24609375) (-0.00019091944885253905, 2.248046875) (-0.0002043725891113281, 2.25) (-0.0002196564025878906, 2.251953125) (-0.00023341307067871093, 2.25390625) (-0.00024208262634277343, 2.255859375) (-0.00024249868774414062, 2.2578125) (-0.00023137945556640625, 2.259765625) (-0.00020574005126953123, 2.26171875) (-0.00016316578674316405, 2.263671875) (-0.00010374808502197265, 2.265625) (-3.1072879791259766e-05, 2.267578125) (4.993097686767578e-05, 2.26953125) (0.00013354028320312499, 2.271484375) (0.00021708290100097655, 2.2734375) (0.000302960693359375, 2.275390625) (0.00039054785156249997, 2.27734375) (0.0004753595275878906, 2.279296875) (0.0005484722900390625, 2.28125) (0.00059110498046875, 2.283203125) (0.000587630615234375, 2.28515625) (0.0005315814819335938, 2.287109375) (0.0004217032470703125, 2.2890625) (0.00027250872802734373, 2.291015625) (0.00010740470123291015, 2.29296875) (-5.19870491027832e-05, 2.294921875) (-0.00018078665161132813, 2.296875) (-0.0002634307250976562, 2.298828125) (-0.0003001860961914062, 2.30078125) (-0.00029829327392578124, 2.302734375) (-0.0002751435852050781, 2.3046875) (-0.00024969322204589843, 2.306640625) (-0.0002298023986816406, 2.30859375) (-0.00021762510681152343, 2.310546875) (-0.00020982981872558592, 2.3125) (-0.00020025535583496093, 2.314453125) (-0.00018873892211914063, 2.31640625) (-0.0001776993713378906, 2.318359375) (-0.00016944512939453125, 2.3203125) (-0.0001665954132080078, 2.322265625) (-0.00016883404541015624, 2.32421875) (-0.00017394198608398437, 2.326171875) (-0.00018010449218749998, 2.328125) (-0.0001854549865722656, 2.330078125) (-0.00018855709838867186, 2.33203125) (-0.00018904852294921874, 2.333984375) (-0.0001869900207519531, 2.3359375) (-0.00018266812133789062, 2.337890625) (-0.00017675338745117187, 2.33984375) (-0.00016995172119140624, 2.341796875) (-0.00016283189392089843, 2.34375) (-0.00015598997497558593, 2.345703125) (-0.0001499598846435547, 2.34765625) (-0.00014495605468749998, 2.349609375) (-0.00014101107788085936, 2.3515625) (-0.00013806088256835937, 2.353515625) (-0.00013591021728515625, 2.35546875) (-0.00013440505981445313, 2.357421875) (-0.00013342950439453125, 2.359375) (-0.00013282003784179688, 2.361328125) (-0.0001324175109863281, 2.36328125) (-0.00013210359191894531, 2.365234375) (-0.00013177578735351563, 2.3671875) (-0.00013135511779785154, 2.369140625) (-0.00013079577636718748, 2.37109375) (-0.00013003890991210938, 2.373046875) (-0.0001290338897705078, 2.375) (-0.00012777162170410155, 2.376953125) (-0.0001262529602050781, 2.37890625) (-0.0001244936294555664, 2.380859375) (-0.0001225149612426758, 2.3828125) (-0.00012032456970214843, 2.384765625) (-0.00011792272186279296, 2.38671875) (-0.00011530606079101562, 2.388671875) (-0.00011248322296142577, 2.390625) (-0.00010947158813476562, 2.392578125) (-0.00010629510498046875, 2.39453125) (-0.00010298446655273437, 2.396484375) (-9.957140350341796e-05, 2.3984375) (-9.60929183959961e-05, 2.400390625) (-9.258231353759765e-05, 2.40234375) (-8.906890106201172e-05, 2.404296875) (-8.556863403320311e-05, 2.40625) (-8.207582092285156e-05, 2.408203125) (-7.858140563964843e-05, 2.41015625) (-7.507450866699219e-05, 2.412109375) (-7.155014038085937e-05, 2.4140625) (-6.801369476318359e-05, 2.416015625) (-6.447930145263671e-05, 2.41796875) (-6.0969783782958985e-05, 2.419921875) (-5.750279998779297e-05, 2.421875) (-5.409405517578125e-05, 2.423828125) (-5.075550079345703e-05, 2.42578125) (-4.749216079711914e-05, 2.427734375) (-4.4307106018066404e-05, 2.4296875) (-4.119887924194336e-05, 2.431640625) (-3.816340255737304e-05, 2.43359375) (-3.519503021240234e-05, 2.435546875) (-3.229412841796875e-05, 2.4375) (-2.946816062927246e-05, 2.439453125) (-2.6723930358886717e-05, 2.44140625) (-2.406766891479492e-05, 2.443359375) (-2.149941635131836e-05, 2.4453125) (-1.901301574707031e-05, 2.447265625) (-1.659731674194336e-05, 2.44921875) (-1.4235721588134765e-05, 2.451171875) (-1.1912483215332031e-05, 2.453125) (-9.61172580718994e-06, 2.455078125) (-7.319190979003906e-06, 2.45703125) (-5.024125576019287e-06, 2.458984375) (-2.7174658775329587e-06, 2.4609375) (-3.921149373054504e-07, 2.462890625) (1.9566261768341065e-06, 2.46484375) (4.33143138885498e-06, 2.466796875) (6.737372398376465e-06, 2.46875) (9.181294441223143e-06, 2.470703125) (1.1670206069946289e-05, 2.47265625) (1.421207046508789e-05, 2.474609375) (1.6812831878662107e-05, 2.4765625) (1.9476539611816406e-05, 2.478515625) (2.2206491470336915e-05, 2.48046875) (2.500484085083008e-05, 2.482421875) (2.7873188018798826e-05, 2.484375) (3.0812828063964846e-05, 2.486328125) (3.3825416564941404e-05, 2.48828125) (3.691309356689453e-05, 2.490234375) (4.0079139709472656e-05, 2.4921875) (4.332778167724609e-05, 2.494140625) (4.666357421875e-05, 2.49609375) (5.009123611450195e-05, 2.498046875) (5.361453247070312e-05, 2.5) (5.72360954284668e-05, 2.501953125) (6.0957462310791015e-05, 2.50390625) (6.477884674072266e-05, 2.505859375) (6.869915771484375e-05, 2.5078125) (7.271609497070312e-05, 2.509765625) (7.68267822265625e-05, 2.51171875) (8.10279541015625e-05, 2.513671875) (8.531671905517577e-05, 2.515625) (8.969065856933594e-05, 2.517578125) (9.414696502685547e-05, 2.51953125) (9.868248748779296e-05, 2.521484375) (0.00010329364013671874, 2.5234375) (0.0001079759521484375, 2.525390625) (0.000112724365234375, 2.52734375) (0.00011753330993652343, 2.529296875) (0.00012239486694335937, 2.53125) (0.0001272989044189453, 2.533203125) (0.0001322356414794922, 2.53515625) (0.0001371949768066406, 2.537109375) (0.00014216893005371094, 2.5390625) (0.00014715219116210937, 2.541015625) (0.0001521368408203125, 2.54296875) (0.00015711183166503906, 2.544921875) (0.00016206503295898437, 2.546875) (0.00016698170471191406, 2.548828125) (0.00017184481811523437, 2.55078125) (0.00017663645935058592, 2.552734375) (0.0001813311767578125, 2.5546875) (0.00018589682006835937, 2.556640625) (0.00019030210876464843, 2.55859375) (0.0001945161895751953, 2.560546875) (0.00019851553344726563, 2.5625) (0.00020228610229492186, 2.564453125) (0.0002058135528564453, 2.56640625) (0.00020908480834960937, 2.568359375) (0.00021208815002441404, 2.5703125) (0.00021480963134765625, 2.572265625) (0.00021724291992187498, 2.57421875) (0.00021939010620117188, 2.576171875) (0.0002212507629394531, 2.578125) (0.0002228255920410156, 2.580078125) (0.00022412026977539063, 2.58203125) (0.00022514208984375, 2.583984375) (0.00022591639709472656, 2.5859375) (0.0002264867706298828, 2.587890625) (0.00022689385986328123, 2.58984375) (0.00022717657470703123, 2.591796875) (0.00022736059570312498, 2.59375) (0.00022745054626464842, 2.595703125) (0.00022744876098632812, 2.59765625) (0.0002273521270751953, 2.599609375) (0.00022714300537109375, 2.6015625) (0.00022679641723632812, 2.603515625) (0.00022627322387695312, 2.60546875) (0.00022551939392089843, 2.607421875) (0.00022448893737792968, 2.609375) (0.0002231410217285156, 2.611328125) (0.00022142733764648437, 2.61328125) (0.00021929904174804686, 2.615234375) (0.00021668927001953123, 2.6171875) (0.00021351080322265623, 2.619140625) (0.0002096854248046875, 2.62109375) (0.00020514122009277343, 2.623046875) (0.00019982325744628905, 2.625) (0.00019370680236816405, 2.626953125) (0.00018677865600585935, 2.62890625) (0.00017904066467285156, 2.630859375) (0.00017052862548828124, 2.6328125) (0.00016130345153808593, 2.634765625) (0.00015144805908203125, 2.63671875) (0.00014106883239746093, 2.638671875) (0.00013026936340332032, 2.640625) (0.00011914883422851562, 2.642578125) (0.00010782180786132812, 2.64453125) (9.640849304199218e-05, 2.646484375) (8.50367660522461e-05, 2.6484375) (7.384649658203124e-05, 2.650390625) (6.296820068359375e-05, 2.65234375) (5.252595520019531e-05, 2.654296875) (4.2635490417480464e-05, 2.65625) (3.3389423370361326e-05, 2.658203125) (2.4862125396728513e-05, 2.66015625) (1.7107563018798826e-05, 2.662109375) (1.0143815994262695e-05, 2.6640625) (3.959282875061035e-06, 2.666015625) (-1.4752976894378661e-06, 2.66796875) (-6.210574150085449e-06, 2.669921875) (-1.0306242942810059e-05, 2.671875) (-1.3825288772583007e-05, 2.673828125) (-1.684939956665039e-05, 2.67578125) (-1.946852684020996e-05, 2.677734375) (-2.176423645019531e-05, 2.6796875) (-2.3814588546752928e-05, 2.681640625) (-2.5694324493408203e-05, 2.68359375) (-2.7480064392089843e-05, 2.685546875) (-2.925356674194336e-05, 2.6875) (-3.108776664733886e-05, 2.689453125) (-3.303224182128906e-05, 2.69140625) (-3.511259460449219e-05, 2.693359375) (-3.733295440673828e-05, 2.6953125) (-3.9682609558105465e-05, 2.697265625) (-4.214787292480469e-05, 2.69921875) (-4.470613861083984e-05, 2.701171875) (-4.7316730499267575e-05, 2.703125) (-4.992444610595703e-05, 2.705078125) (-5.246646499633789e-05, 2.70703125) (-5.488539886474609e-05, 2.708984375) (-5.7147464752197264e-05, 2.7109375) (-5.9243812561035156e-05, 2.712890625) (-6.116554641723633e-05, 2.71484375) (-6.287687301635742e-05, 2.716796875) (-6.432404327392577e-05, 2.71875) (-6.545332336425781e-05, 2.720703125) (-6.623046874999999e-05, 2.72265625) (-6.668103027343749e-05, 2.724609375) (-6.687283325195312e-05, 2.7265625) (-6.685736083984375e-05, 2.728515625) (-6.66726837158203e-05, 2.73046875) (-6.634968566894531e-05, 2.732421875) (-6.590957641601562e-05, 2.734375) (-6.545433044433593e-05, 2.736328125) (-6.516564178466796e-05, 2.73828125) (-6.508535766601562e-05, 2.740234375) (-6.510013580322265e-05, 2.7421875) (-6.505118560791016e-05, 2.744140625) (-6.47285919189453e-05, 2.74609375) (-6.412281036376953e-05, 2.748046875) (-6.351737213134765e-05, 2.75) (-6.306417083740233e-05, 2.751953125) (-6.264665222167968e-05, 2.75390625) (-6.230535125732422e-05, 2.755859375) (-6.228132629394531e-05, 2.7578125) (-6.292914962768555e-05, 2.759765625) (-6.490807342529297e-05, 2.76171875) (-6.851300048828125e-05, 2.763671875) (-7.327234649658202e-05, 2.765625) (-7.86952896118164e-05, 2.767578125) (-8.452992248535156e-05, 2.76953125) (-9.02630615234375e-05, 2.771484375) (-9.516766357421875e-05, 2.7734375) (-9.846698760986328e-05, 2.775390625) (-9.881089782714843e-05, 2.77734375) (-9.506427001953124e-05, 2.779296875) (-8.713568115234374e-05, 2.78125) (-7.527603912353516e-05, 2.783203125) (-5.9958259582519526e-05, 2.78515625) (-4.2400077819824214e-05, 2.787109375) (-2.422406005859375e-05, 2.7890625) (-6.840737342834472e-06, 2.791015625) (7.842444419860839e-06, 2.79296875) (1.7805091857910157e-05, 2.794921875) (2.1897640228271484e-05, 2.796875) (1.9451541900634765e-05, 2.798828125) (1.053276252746582e-05, 2.80078125) (-3.4004056453704834e-06, 2.802734375) (-2.0157543182373047e-05, 2.8046875) (-3.8062004089355464e-05, 2.806640625) (-5.539517211914062e-05, 2.80859375) (-7.026264190673828e-05, 2.810546875) (-8.124270629882812e-05, 2.8125) (-8.712261199951172e-05, 2.814453125) (-8.744335174560547e-05, 2.81640625) (-8.328204345703125e-05, 2.818359375) (-7.655839538574218e-05, 2.8203125) (-6.861156463623047e-05, 2.822265625) (-6.0405128479003907e-05, 2.82421875) (-5.282143402099609e-05, 2.826171875) (-4.6517013549804686e-05, 2.828125) (-4.231748580932617e-05, 2.830078125) (-4.070800018310547e-05, 2.83203125) (-4.1157497406005855e-05, 2.833984375) (-4.253343200683594e-05, 2.8359375) (-4.4046192169189454e-05, 2.837890625) (-4.530435562133789e-05, 2.83984375) (-4.6171958923339844e-05, 2.841796875) (-4.66772232055664e-05, 2.84375) (-4.658650970458984e-05, 2.845703125) (-4.5652301788330074e-05, 2.84765625) (-4.400291442871094e-05, 2.849609375) (-4.2023551940917965e-05, 2.8515625) (-4.004364395141601e-05, 2.853515625) (-3.823965072631836e-05, 2.85546875) (-3.6622997283935544e-05, 2.857421875) (-3.5096183776855466e-05, 2.859375) (-3.3679519653320314e-05, 2.861328125) (-3.247328948974609e-05, 2.86328125) (-3.1524290084838866e-05, 2.865234375) (-3.0827322006225586e-05, 2.8671875) (-3.0332971572875975e-05, 2.869140625) (-2.9978414535522458e-05, 2.87109375) (-2.9727830886840818e-05, 2.873046875) (-2.9578571319580075e-05, 2.875) (-2.9528404235839842e-05, 2.876953125) (-2.9561235427856443e-05, 2.87890625) (-2.9657850265502927e-05, 2.880859375) (-2.9796834945678708e-05, 2.8828125) (-2.9967708587646484e-05, 2.884765625) (-3.0176801681518554e-05, 2.88671875) (-3.043655204772949e-05, 2.888671875) (-3.0757461547851564e-05, 2.890625) (-3.1136363983154294e-05, 2.892578125) (-3.1556488037109376e-05, 2.89453125) (-3.199678039550781e-05, 2.896484375) (-3.2438365936279295e-05, 2.8984375) (-3.2874172210693355e-05, 2.900390625) (-3.3306632995605465e-05, 2.90234375) (-3.3743881225585936e-05, 2.904296875) (-3.419670486450195e-05, 2.90625) (-3.46724853515625e-05, 2.908203125) (-3.517964935302734e-05, 2.91015625) (-3.572800827026367e-05, 2.912109375) (-3.6325904846191405e-05, 2.9140625) (-3.697754669189453e-05, 2.916015625) (-3.768058013916015e-05, 2.91796875) (-3.8426864624023434e-05, 2.919921875) (-3.920606994628906e-05, 2.921875) (-4.001240539550781e-05, 2.923828125) (-4.0843917846679684e-05, 2.92578125) (-4.1700119018554686e-05, 2.927734375) (-4.258145141601562e-05, 2.9296875) (-4.348634338378906e-05, 2.931640625) (-4.441239166259765e-05, 2.93359375) (-4.535722732543945e-05, 2.935546875) (-4.631749725341796e-05, 2.9375) (-4.728932189941406e-05, 2.939453125) (-4.8267894744873045e-05, 2.94140625) (-4.9247589111328125e-05, 2.943359375) (-5.0222900390624995e-05, 2.9453125) (-5.1189170837402344e-05, 2.947265625) (-5.2142578125e-05, 2.94921875) (-5.3080738067626953e-05, 2.951171875) (-5.400273132324219e-05, 2.953125) (-5.490710067749023e-05, 2.955078125) (-5.5791992187499994e-05, 2.95703125) (-5.6655807495117185e-05, 2.958984375) (-5.749683380126953e-05, 2.9609375) (-5.8313720703124996e-05, 2.962890625) (-5.9105636596679685e-05, 2.96484375) (-5.9870040893554684e-05, 2.966796875) (-6.0602294921874994e-05, 2.96875) (-6.129989624023437e-05, 2.970703125) (-6.196252822875977e-05, 2.97265625) (-6.25889434814453e-05, 2.974609375) (-6.317786407470703e-05, 2.9765625) (-6.372600555419921e-05, 2.978515625) (-6.422562408447265e-05, 2.98046875) (-6.467489624023437e-05, 2.982421875) (-6.508039855957031e-05, 2.984375) (-6.543635559082031e-05, 2.986328125) (-6.572645568847656e-05, 2.98828125) (-6.59371337890625e-05, 2.990234375) (-6.60516357421875e-05, 2.9921875) (-6.606680297851562e-05, 2.994140625) (-6.600408935546874e-05, 2.99609375) (-6.586392211914062e-05, 2.998046875) (-6.561811065673828e-05, 3.0) (-6.528825378417968e-05, 3.001953125) (-6.493862915039062e-05, 3.00390625) (-6.462139129638672e-05, 3.005859375) (-6.439566040039062e-05, 3.0078125) (-6.427996826171874e-05, 3.009765625) (-6.421427154541016e-05, 3.01171875) (-6.419448852539062e-05, 3.013671875) (-6.43218994140625e-05, 3.015625) (-6.451667785644531e-05, 3.017578125) (-6.447233581542968e-05, 3.01953125) (-6.41290054321289e-05, 3.021484375) (-6.357627868652343e-05, 3.0234375) (-6.277205657958984e-05, 3.025390625) (-6.205180740356445e-05, 3.02734375) (-6.0785758972167966e-05, 3.029296875) (-5.706474304199219e-05, 3.03125) (-5.1320960998535153e-05, 3.033203125) (-4.527482223510742e-05, 3.03515625) (-4.180520629882812e-05, 3.037109375) (-4.62989501953125e-05, 3.0390625) (-5.831143188476562e-05, 3.041015625) (-7.238968658447265e-05, 3.04296875) (-8.307786560058594e-05, 3.044921875) (-8.265483093261719e-05, 3.046875) (-7.071252441406249e-05, 3.048828125) (-5.448214721679687e-05, 3.05078125) (-3.9548625946044923e-05, 3.052734375) (-3.198351287841797e-05, 3.0546875) (-3.277881622314453e-05, 3.056640625) (-3.65400390625e-05, 3.05859375) (-4.000560760498047e-05, 3.060546875) (-4.0945751190185544e-05, 3.0625) (-3.874853515625e-05, 3.064453125) (-3.5664569854736325e-05, 3.06640625) (-3.272760772705078e-05, 3.068359375) (-2.9917451858520505e-05, 3.0703125) (-2.7379129409790037e-05, 3.072265625) (-2.488179016113281e-05, 3.07421875) (-2.2444875717163085e-05, 3.076171875) (-2.046063995361328e-05, 3.078125) (-1.9104007720947266e-05, 3.080078125) (-1.8372550964355468e-05, 3.08203125) (-1.8304084777832032e-05, 3.083984375) (-1.893027114868164e-05, 3.0859375) (-2.0225988388061524e-05, 3.087890625) (-2.2149173736572266e-05, 3.08984375) (-2.4624794006347657e-05, 3.091796875) (-2.752942657470703e-05, 3.09375) (-3.078468322753906e-05, 3.095703125) (-3.4358871459960935e-05, 3.09765625) (-3.8193153381347654e-05, 3.099609375) (-4.2215568542480464e-05, 3.1015625) (-4.6331287384033204e-05, 3.103515625) (-5.040093612670898e-05, 3.10546875) (-5.4284389495849606e-05, 3.107421875) (-5.784537506103515e-05, 3.109375) (-6.094679260253906e-05, 3.111328125) (-6.348756408691406e-05, 3.11328125) (-6.539085388183593e-05, 3.115234375) (-6.658949279785155e-05, 3.1171875) (-6.70474853515625e-05, 3.119140625) (-6.675175476074219e-05, 3.12109375) (-6.57086181640625e-05, 3.123046875) (-6.394710540771484e-05, 3.125) (-6.148870086669922e-05, 3.126953125) (-5.833797454833984e-05, 3.12890625) (-5.450080108642578e-05, 3.130859375) (-4.9997543334960935e-05, 3.1328125) (-4.4885437011718745e-05, 3.134765625) (-3.926648712158203e-05, 3.13671875) (-3.325890350341797e-05, 3.138671875) (-2.6985488891601563e-05, 3.140625) (-2.0563848495483397e-05, 3.142578125) (-1.4083160400390624e-05, 3.14453125) (-7.626270771026611e-06, 3.146484375) (-1.2770662307739257e-06, 3.1484375) (4.905155181884766e-06, 3.150390625) (1.087724208831787e-05, 3.15234375) (1.661141777038574e-05, 3.154296875) (2.209163475036621e-05, 3.15625) (2.7274990081787108e-05, 3.158203125) (3.208172607421875e-05, 3.16015625) (3.6420196533203123e-05, 3.162109375) (4.02171516418457e-05, 3.1640625) (4.3438003540039064e-05, 3.166015625) (4.6095085144042965e-05, 3.16796875) (4.8239017486572266e-05, 3.169921875) (4.992020416259765e-05, 3.171875) (5.1163238525390626e-05, 3.173828125) (5.1956790924072264e-05, 3.17578125) (5.227246856689453e-05, 3.177734375) (5.208656311035156e-05, 3.1796875) (5.140341186523437e-05, 3.181640625) (5.0252677917480465e-05, 3.18359375) (4.855106353759765e-05, 3.185546875) (4.6156494140625e-05, 3.1875) (4.304808807373047e-05, 3.189453125) (3.9346656799316403e-05, 3.19140625) (3.539347839355469e-05, 3.193359375) (3.160121154785156e-05, 3.1953125) (2.8075660705566404e-05, 3.197265625) (2.460780906677246e-05, 3.19921875) (2.1147388458251954e-05, 3.201171875) (1.7833339691162108e-05, 3.203125) (1.4557083129882812e-05, 3.205078125) (1.1228987693786621e-05, 3.20703125) (7.337347030639648e-06, 3.208984375) (1.741233468055725e-06, 3.2109375) (-4.909424304962158e-06, 3.212890625) (-1.1370079040527344e-05, 3.21484375) (-1.8108692169189454e-05, 3.216796875) (-2.4652212142944335e-05, 3.21875) (-3.291520690917968e-05, 3.220703125) (-4.54664077758789e-05, 3.22265625) (-5.821746826171875e-05, 3.224609375) (-6.773793792724609e-05, 3.2265625) (-7.003452301025391e-05, 3.228515625) (-6.058285522460937e-05, 3.23046875) (-4.422979354858398e-05, 3.232421875) (-2.5794200897216794e-05, 3.234375) (-8.429708480834961e-06, 3.236328125) (3.6331877708435056e-06, 3.23828125) (1.2092391967773437e-05, 3.240234375) (1.838932418823242e-05, 3.2421875) (2.1995187759399413e-05, 3.244140625) (2.369683074951172e-05, 3.24609375) (2.3050827026367187e-05, 3.248046875) (2.0219974517822264e-05, 3.25) (1.6204620361328123e-05, 3.251953125) (1.1234131813049316e-05, 3.25390625) (5.84036922454834e-06, 3.255859375) (7.096525430679321e-07, 3.2578125) (-3.656466484069824e-06, 3.259765625) (-6.597019672393798e-06, 3.26171875) (-8.234549522399902e-06, 3.263671875) (-9.450665473937989e-06, 3.265625) (-1.0750438690185546e-05, 3.267578125) (-1.2348783493041991e-05, 3.26953125) (-1.43424015045166e-05, 3.271484375) (-1.665500259399414e-05, 3.2734375) (-1.958266067504883e-05, 3.275390625) (-2.3812137603759765e-05, 3.27734375) (-2.948923873901367e-05, 3.279296875) (-3.6200111389160156e-05, 3.28125) (-4.3586662292480467e-05, 3.283203125) (-5.131970596313476e-05, 3.28515625) (-5.9136493682861326e-05, 3.287109375) (-6.690057373046875e-05, 3.2890625) (-7.3854736328125e-05, 3.291015625) (-7.853532409667969e-05, 3.29296875) (-7.99969482421875e-05, 3.294921875) (-7.798873901367187e-05, 3.296875) (-7.266117095947265e-05, 3.298828125) (-6.458513641357422e-05, 3.30078125) (-5.4310272216796874e-05, 3.302734375) (-4.237083435058594e-05, 3.3046875) (-3.027243423461914e-05, 3.306640625) (-2.05274658203125e-05, 3.30859375) (-1.5217619895935058e-05, 3.310546875) (-1.558710479736328e-05, 3.3125) (-2.1973138809204102e-05, 3.314453125) (-3.388719177246094e-05, 3.31640625) (-5.077478790283203e-05, 3.318359375) (-7.174559783935547e-05, 3.3203125) (-9.450009155273437e-05, 3.322265625) (-0.00011546606445312499, 3.32421875) (-0.00013090255737304687, 3.326171875) (-0.00013736688232421875, 3.328125) (-0.0001322562255859375, 3.330078125) (-0.00011352713775634766, 3.33203125) (-7.896491241455077e-05, 3.333984375) (-2.828394317626953e-05, 3.3359375) (3.5901901245117185e-05, 3.337890625) (0.00011014152526855469, 3.33984375) (0.00018982553100585937, 3.341796875) (0.0002733710021972656, 3.34375) (0.0003630977783203125, 3.345703125) (0.000456446533203125, 3.34765625) (0.000547052978515625, 3.349609375) (0.0006218321533203125, 3.3515625) (0.0006622613525390624, 3.353515625) (0.0006603662109375, 3.35546875) (0.0006163506469726562, 3.357421875) (0.0005391461181640625, 3.359375) (0.0004439679260253906, 3.361328125) (0.0003362856750488281, 3.36328125) (0.00021987025451660155, 3.365234375) (9.930150604248047e-05, 3.3671875) (-1.852685546875e-05, 3.369140625) (-0.00011557469177246093, 3.37109375) (-0.00017854840087890624, 3.373046875) (-0.00020334963989257813, 3.375) (-0.0001957273712158203, 3.376953125) (-0.00017321282958984374, 3.37890625) (-0.00014739122009277343, 3.380859375) (-0.0001238592834472656, 3.3828125) (-0.00010181028747558593, 3.384765625) (-7.440272521972655e-05, 3.38671875) (-4.425751876831054e-05, 3.388671875) (-1.6102754592895506e-05, 3.390625) (3.917099475860596e-06, 3.392578125) (7.344398498535156e-06, 3.39453125) (-2.714306354522705e-06, 3.396484375) (-2.0831676483154295e-05, 3.3984375) (-4.2069889068603514e-05, 3.400390625) (-5.9133846282958985e-05, 3.40234375) (-7.202455139160155e-05, 3.404296875) (-8.236557006835937e-05, 3.40625) (-8.981547546386718e-05, 3.408203125) (-9.515032958984375e-05, 3.41015625) (-9.735591125488281e-05, 3.412109375) (-9.563658142089844e-05, 3.4140625) (-9.124858856201171e-05, 3.416015625) (-8.576148986816405e-05, 3.41796875) (-8.050970458984374e-05, 3.419921875) (-7.622685241699219e-05, 3.421875) (-7.308596801757812e-05, 3.423828125) (-7.116836547851562e-05, 3.42578125) (-7.051973724365234e-05, 3.427734375) (-7.112596130371093e-05, 3.4296875) (-7.266744995117188e-05, 3.431640625) (-7.447584533691406e-05, 3.43359375) (-7.610362243652344e-05, 3.435546875) (-7.735765075683594e-05, 3.4375) (-7.813124084472656e-05, 3.439453125) (-7.845417785644532e-05, 3.44140625) (-7.829445648193359e-05, 3.443359375) (-7.754054260253906e-05, 3.4453125) (-7.619708251953125e-05, 3.447265625) (-7.437523651123046e-05, 3.44921875) (-7.218471527099609e-05, 3.451171875) (-6.974504089355469e-05, 3.453125) (-6.715984344482422e-05, 3.455078125) (-6.447296905517577e-05, 3.45703125) (-6.174610137939453e-05, 3.458984375) (-5.906645202636718e-05, 3.4609375) (-5.650741577148437e-05, 3.462890625) (-5.4149833679199215e-05, 3.46484375) (-5.206327438354492e-05, 3.466796875) (-5.0287994384765625e-05, 3.46875) (-4.8863491058349605e-05, 3.470703125) (-4.783210754394531e-05, 3.47265625) (-4.723337936401367e-05, 3.474609375) (-4.710256958007812e-05, 3.4765625) (-4.7448986053466794e-05, 3.478515625) (-4.8236068725585936e-05, 3.48046875) (-4.93864517211914e-05, 3.482421875) (-5.0804122924804684e-05, 3.484375) (-5.2380523681640624e-05, 3.486328125) (-5.401416397094726e-05, 3.48828125) (-5.562545013427734e-05, 3.490234375) (-5.714146041870117e-05, 3.4921875) (-5.8498874664306635e-05, 3.494140625) (-5.964683532714843e-05, 3.49609375) (-6.054409790039062e-05, 3.498046875) (-6.116464996337891e-05, 3.5) (-6.148831939697265e-05, 3.501953125) (-6.148892211914063e-05, 3.50390625) (-6.113224411010742e-05, 3.505859375) (-6.038606262207031e-05, 3.5078125) (-5.923590469360351e-05, 3.509765625) (-5.769759750366211e-05, 3.51171875) (-5.582219314575195e-05, 3.513671875) (-5.367240524291992e-05, 3.515625) (-5.1319618225097656e-05, 3.517578125) (-4.884137725830078e-05, 3.51953125) (-4.629619216918945e-05, 3.521484375) (-4.373271179199218e-05, 3.5234375) (-4.119144058227539e-05, 3.525390625) (-3.8695114135742186e-05, 3.52734375) (-3.625675582885742e-05, 3.529296875) (-3.388430404663086e-05, 3.53125) (-3.1583419799804686e-05, 3.533203125) (-2.9364009857177732e-05, 3.53515625) (-2.724861717224121e-05, 3.537109375) (-2.5263236999511716e-05, 3.5390625) (-2.3423812866210936e-05, 3.541015625) (-2.1733421325683594e-05, 3.54296875) (-2.0173984527587888e-05, 3.544921875) (-1.8717592239379883e-05, 3.546875) (-1.7329046249389646e-05, 3.548828125) (-1.59627685546875e-05, 3.55078125) (-1.4580718994140624e-05, 3.552734375) (-1.3150533676147461e-05, 3.5546875) (-1.164600658416748e-05, 3.556640625) (-1.0054115295410155e-05, 3.55859375) (-8.369183540344238e-06, 3.560546875) (-6.587310791015625e-06, 3.5625) (-4.706586837768555e-06, 3.564453125) (-2.725791215896606e-06, 3.56640625) (-6.358204483985901e-07, 3.568359375) (1.5760114192962647e-06, 3.5703125) (3.920323371887207e-06, 3.572265625) (6.407268047332763e-06, 3.57421875) (9.039382934570312e-06, 3.576171875) (1.1813505172729491e-05, 3.578125) (1.4722242355346679e-05, 3.580078125) (1.775169563293457e-05, 3.58203125) (2.0889192581176757e-05, 3.583984375) (2.4124149322509766e-05, 3.5859375) (2.74477424621582e-05, 3.587890625) (3.0855514526367186e-05, 3.58984375) (3.434464645385742e-05, 3.591796875) (3.791112899780273e-05, 3.59375) (4.155366134643554e-05, 3.595703125) (4.527362060546875e-05, 3.59765625) (4.907017517089843e-05, 3.599609375) (5.2941616058349605e-05, 3.6015625) (5.688204956054687e-05, 3.603515625) (6.0878967285156245e-05, 3.60546875) (6.492066955566405e-05, 3.607421875) (6.899702453613281e-05, 3.609375) (7.309488677978516e-05, 3.611328125) (7.720018768310546e-05, 3.61328125) (8.129310607910155e-05, 3.615234375) (8.534677124023437e-05, 3.6171875) (8.934036254882813e-05, 3.619140625) (9.325906372070312e-05, 3.62109375) (9.709160614013671e-05, 3.623046875) (0.00010083174896240233, 3.625) (0.00010447035217285156, 3.626953125) (0.00010799456024169922, 3.62890625) (0.0001113938751220703, 3.630859375) (0.00011465925598144531, 3.6328125) (0.00011778311157226562, 3.634765625) (0.00012076176452636719, 3.63671875) (0.00012358677673339843, 3.638671875) (0.00012624449157714842, 3.640625) (0.0001287308349609375, 3.642578125) (0.00013104864501953123, 3.64453125) (0.0001332129211425781, 3.646484375) (0.00013525128173828125, 3.6484375) (0.000137175048828125, 3.650390625) (0.00013897732543945312, 3.65234375) (0.0001406429748535156, 3.654296875) (0.00014214907836914063, 3.65625) (0.00014347277832031248, 3.658203125) (0.00014459246826171873, 3.66015625) (0.00014547624206542967, 3.662109375) (0.00014608416748046875, 3.6640625) (0.00014638400268554688, 3.666015625) (0.00014635150146484374, 3.66796875) (0.00014597662353515623, 3.669921875) (0.00014525860595703124, 3.671875) (0.00014418266296386718, 3.673828125) (0.00014272247314453125, 3.67578125) (0.00014083761596679688, 3.677734375) (0.00013847772216796873, 3.6796875) (0.00013561180114746093, 3.681640625) (0.00013222970581054687, 3.68359375) (0.00012833073425292968, 3.685546875) (0.00012392001342773437, 3.6875) (0.00011900555419921875, 3.689453125) (0.00011360092163085937, 3.69140625) (0.00010773739624023436, 3.693359375) (0.00010145791625976563, 3.6953125) (9.479488372802734e-05, 3.697265625) (8.7764404296875e-05, 3.69921875) (8.036479187011719e-05, 3.701171875) (7.259484863281249e-05, 3.703125) (6.447256469726562e-05, 3.705078125) (5.603258895874023e-05, 3.70703125) (4.732672119140625e-05, 3.708984375) (3.841326904296875e-05, 3.7109375) (2.9344615936279294e-05, 3.712890625) (2.0170745849609374e-05, 3.71484375) (1.0942563056945801e-05, 3.716796875) (1.714264154434204e-06, 3.71875) (-7.455561637878418e-06, 3.720703125) (-1.6512828826904296e-05, 3.72265625) (-2.5413450241088867e-05, 3.724609375) (-3.411169815063476e-05, 3.7265625) (-4.2554935455322267e-05, 3.728515625) (-5.067533493041992e-05, 3.73046875) (-5.838825988769531e-05, 3.732421875) (-6.562187957763672e-05, 3.734375) (-7.232180786132813e-05, 3.736328125) (-7.844668579101562e-05, 3.73828125) (-8.397267913818359e-05, 3.740234375) (-8.888143920898437e-05, 3.7421875) (-9.316074371337891e-05, 3.744140625) (-9.681448364257812e-05, 3.74609375) (-9.985723114013671e-05, 3.748046875) (-0.00010231024932861327, 3.75) (-0.00010420755004882811, 3.751953125) (-0.00010558532714843749, 3.75390625) (-0.00010648275756835936, 3.755859375) (-0.00010695611572265624, 3.7578125) (-0.00010706179809570312, 3.759765625) (-0.00010686148071289061, 3.76171875) (-0.0001064288101196289, 3.763671875) (-0.00010582257080078124, 3.765625) (-0.00010509210205078124, 3.767578125) (-0.00010428372955322265, 3.76953125) (-0.00010343099975585937, 3.771484375) (-0.0001025621337890625, 3.7734375) (-0.00010170147705078125, 3.775390625) (-0.00010085893249511718, 3.77734375) (-0.00010003600311279296, 3.779296875) (-9.923458099365234e-05, 3.78125) (-9.844634246826172e-05, 3.783203125) (-9.765923309326171e-05, 3.78515625) (-9.68568115234375e-05, 3.787109375) (-9.600762939453125e-05, 3.7890625) (-9.508638763427734e-05, 3.791015625) (-9.407367706298828e-05, 3.79296875) (-9.29473876953125e-05, 3.794921875) (-9.169612121582031e-05, 3.796875) (-9.031388854980468e-05, 3.798828125) (-8.879463958740234e-05, 3.80078125) (-8.714115905761719e-05, 3.802734375) (-8.536300659179687e-05, 3.8046875) (-8.346901702880859e-05, 3.806640625) (-8.147309875488281e-05, 3.80859375) (-7.939237213134766e-05, 3.810546875) (-7.723999023437499e-05, 3.8125) (-7.503376007080078e-05, 3.814453125) (-7.279437255859375e-05, 3.81640625) (-7.054345703125e-05, 3.818359375) (-6.830809783935547e-05, 3.8203125) (-6.6110595703125e-05, 3.822265625) (-6.396674346923829e-05, 3.82421875) (-6.189083099365234e-05, 3.826171875) (-5.9892875671386715e-05, 3.828125) (-5.797975921630859e-05, 3.830078125) (-5.615757751464843e-05, 3.83203125) (-5.442800903320312e-05, 3.833984375) (-5.278793334960937e-05, 3.8359375) (-5.123576354980468e-05, 3.837890625) (-4.977030181884765e-05, 3.83984375) (-4.8389823913574214e-05, 3.841796875) (-4.709479141235351e-05, 3.84375) (-4.588430023193359e-05, 3.845703125) (-4.4755756378173827e-05, 3.84765625) (-4.37069091796875e-05, 3.849609375) (-4.273489379882812e-05, 3.8515625) (-4.183718872070312e-05, 3.853515625) (-4.1012542724609374e-05, 3.85546875) (-4.025984954833984e-05, 3.857421875) (-3.957765197753906e-05, 3.859375) (-3.89649543762207e-05, 3.861328125) (-3.842079544067383e-05, 3.86328125) (-3.794451141357422e-05, 3.865234375) (-3.753607559204102e-05, 3.8671875) (-3.7194175720214844e-05, 3.869140625) (-3.6916046142578125e-05, 3.87109375) (-3.6698143005371095e-05, 3.873046875) (-3.653598403930664e-05, 3.875) (-3.6424686431884765e-05, 3.876953125) (-3.635928726196289e-05, 3.87890625) (-3.633429718017578e-05, 3.880859375) (-3.6343791961669923e-05, 3.8828125) (-3.6382369995117184e-05, 3.884765625) (-3.644515991210937e-05, 3.88671875) (-3.6527736663818356e-05, 3.888671875) (-3.662625885009765e-05, 3.890625) (-3.6737049102783204e-05, 3.892578125) (-3.685652160644531e-05, 3.89453125) (-3.6981376647949216e-05, 3.896484375) (-3.7108551025390624e-05, 3.8984375) (-3.7235023498535154e-05, 3.900390625) (-3.735788345336914e-05, 3.90234375) (-3.747426605224609e-05, 3.904296875) (-3.7581275939941407e-05, 3.90625) (-3.767609405517578e-05, 3.908203125) (-3.7755970001220704e-05, 3.91015625) (-3.7818161010742183e-05, 3.912109375) (-3.785984039306641e-05, 3.9140625) (-3.787810516357422e-05, 3.916015625) (-3.7869850158691404e-05, 3.91796875) (-3.783187484741211e-05, 3.919921875) (-3.7761024475097655e-05, 3.921875) (-3.765425872802734e-05, 3.923828125) (-3.750876235961914e-05, 3.92578125) (-3.732209014892578e-05, 3.927734375) (-3.709224700927734e-05, 3.9296875) (-3.681790542602539e-05, 3.931640625) (-3.649850845336914e-05, 3.93359375) (-3.61342544555664e-05, 3.935546875) (-3.5725982666015624e-05, 3.9375) (-3.527519226074219e-05, 3.939453125) (-3.478385925292969e-05, 3.94140625) (-3.4254386901855464e-05, 3.943359375) (-3.368952560424805e-05, 3.9453125) (-3.3092140197753906e-05, 3.947265625) (-3.2465118408203125e-05, 3.94921875) (-3.1811397552490234e-05, 3.951171875) (-3.11339225769043e-05, 3.953125) (-3.043564224243164e-05, 3.955078125) (-2.971954345703125e-05, 3.95703125) (-2.8988557815551756e-05, 3.958984375) (-2.8245542526245115e-05, 3.9609375) (-2.7493316650390624e-05, 3.962890625) (-2.6734607696533203e-05, 3.96484375) (-2.597202491760254e-05, 3.966796875) (-2.5208072662353514e-05, 3.96875) (-2.4445159912109373e-05, 3.970703125) (-2.368562126159668e-05, 3.97265625) (-2.293183135986328e-05, 3.974609375) (-2.2186229705810546e-05, 3.9765625) (-2.1451419830322266e-05, 3.978515625) (-2.0730173110961912e-05, 3.98046875) (-2.002541732788086e-05, 3.982421875) (-1.934014892578125e-05, 3.984375) (-1.8677331924438477e-05, 3.986328125) (-1.8039772033691406e-05, 3.98828125) (-1.7429977416992187e-05, 3.990234375) (-1.6850027084350584e-05, 3.9921875) (-1.6301469802856444e-05, 3.994140625) (-1.5785237312316894e-05, 3.99609375) (-1.5301657676696775e-05, 3.998046875) (-1.4850483894348145e-05, 4.0) (-1.4430952072143554e-05, 4.001953125) (-1.4041858673095703e-05, 4.00390625) (-1.3681629180908203e-05, 4.005859375) (-1.3348358154296874e-05, 4.0078125) (-1.3039882659912108e-05, 4.009765625) (-1.2753816604614258e-05, 4.01171875) (-1.248757266998291e-05, 4.013671875) (-1.2238395690917968e-05, 4.015625) (-1.2003408432006835e-05, 4.017578125) (-1.1779661178588867e-05, 4.01953125) (-1.1564214706420897e-05, 4.021484375) (-1.1354253768920897e-05, 4.0234375) (-1.1147165298461913e-05, 4.025390625) (-1.094059944152832e-05, 4.02734375) (-1.0732523918151855e-05, 4.029296875) (-1.0521203994750977e-05, 4.03125) (-1.0305171012878418e-05, 4.033203125) (-1.0083170890808105e-05, 4.03515625) (-9.854064941406249e-06, 4.037109375) (-9.616744995117187e-06, 4.0390625) (-9.3700532913208e-06, 4.041015625) (-9.11273193359375e-06, 4.04296875) (-8.843439102172852e-06, 4.044921875) (-8.560826301574707e-06, 4.046875) (-8.263626098632812e-06, 4.048828125) (-7.950746536254883e-06, 4.05078125) (-7.621376991271973e-06, 4.052734375) (-7.275032043457031e-06, 4.0546875) (-6.911616802215576e-06, 4.056640625) (-6.53148078918457e-06, 4.05859375) (-6.135397911071777e-06, 4.060546875) (-5.724510669708251e-06, 4.0625) (-5.300287246704102e-06, 4.064453125) (-4.8644518852233885e-06, 4.06640625) (-4.418948650360107e-06, 4.068359375) (-3.96599531173706e-06, 4.0703125) (-3.5080811977386473e-06, 4.072265625) (-3.047934532165527e-06, 4.07421875) (-2.5885031223297118e-06, 4.076171875) (-2.132888078689575e-06, 4.078125) (-1.6842741966247557e-06, 4.080078125) (-1.2458811998367308e-06, 4.08203125) (-8.208400011062622e-07, 4.083984375) (-4.1202160716056824e-07, 4.0859375) (-2.1904215216636658e-08, 4.087890625) (3.4754008054733276e-07, 4.08984375) (6.948872804641723e-07, 4.091796875) (1.0191982984542846e-06, 4.09375) (1.3200033903121948e-06, 4.095703125) (1.5972867012023925e-06, 4.09765625) (1.851381540298462e-06, 4.099609375) (2.0829277038574216e-06, 4.1015625) (2.2927870750427245e-06, 4.103515625) (2.4819040298461914e-06, 4.10546875) (2.6513407230377196e-06, 4.107421875) (2.8023867607116698e-06, 4.109375) (2.9365856647491452e-06, 4.111328125) (3.055811643600464e-06, 4.11328125) (3.1623120307922363e-06, 4.115234375) (3.2585768699645993e-06, 4.1171875) (3.34731650352478e-06, 4.119140625) (3.4315550327301024e-06, 4.12109375) (3.5145869255065914e-06, 4.123046875) (3.5998830795288084e-06, 4.125) (3.691059112548828e-06, 4.126953125) (3.7917289733886717e-06, 4.12890625) (3.905467987060547e-06, 4.130859375) (4.036079406738281e-06, 4.1328125) (4.1876697540283205e-06, 4.134765625) (4.364600658416748e-06, 4.13671875) (4.571454048156738e-06, 4.138671875) (4.812885284423828e-06, 4.140625) (5.093539237976074e-06, 4.142578125) (5.418105125427246e-06, 4.14453125) (5.791214942932128e-06, 4.146484375) (6.217164993286133e-06, 4.1484375) (6.6997375488281245e-06, 4.150390625) (7.242032051086425e-06, 4.15234375) (7.846410751342774e-06, 4.154296875) (8.514698982238768e-06, 4.15625) (9.248147010803222e-06, 4.158203125) (1.0047282218933104e-05, 4.16015625) (1.0912044525146484e-05, 4.162109375) (1.1841703414916992e-05, 4.1640625) (1.2834918022155762e-05, 4.166015625) (1.3890050888061523e-05, 4.16796875) (1.5005093574523926e-05, 4.169921875) (1.6177392959594725e-05, 4.171875) (1.7403724670410155e-05, 4.173828125) (1.8680252075195313e-05, 4.17578125) (2.0002452850341796e-05, 4.177734375) (2.13655948638916e-05, 4.1796875) (2.276490020751953e-05, 4.181640625) (2.4195188522338865e-05, 4.18359375) (2.565095329284668e-05, 4.185546875) (2.712671661376953e-05, 4.1875) (2.861697769165039e-05, 4.189453125) (3.01165771484375e-05, 4.19140625) (3.162087631225586e-05, 4.193359375) (3.312476348876953e-05, 4.1953125) (3.462239837646484e-05, 4.197265625) (3.610761260986328e-05, 4.19921875) (3.7573974609374996e-05, 4.201171875) (3.9014686584472655e-05, 4.203125) (4.0422756195068355e-05, 4.205078125) (4.179033279418945e-05, 4.20703125) (4.3108531951904293e-05, 4.208984375) (4.436895751953125e-05, 4.2109375) (4.556400299072265e-05, 4.212890625) (4.6686656951904294e-05, 4.21484375) (4.773081588745117e-05, 4.216796875) (4.869025802612305e-05, 4.21875) (4.955868911743164e-05, 4.220703125) (5.033118438720703e-05, 4.22265625) (5.1003875732421874e-05, 4.224609375) (5.1573341369628903e-05, 4.2265625) (5.203680801391601e-05, 4.228515625) (5.2390388488769527e-05, 4.23046875) (5.2628932952880855e-05, 4.232421875) (5.274966812133789e-05, 4.234375) (5.27513198852539e-05, 4.236328125) (5.263381576538086e-05, 4.23828125) (5.2399730682373044e-05, 4.240234375) (5.2049030303955074e-05, 4.2421875) (5.1578369140624995e-05, 4.244140625) (5.098527145385742e-05, 4.24609375) (5.0267005920410157e-05, 4.248046875) (4.9418720245361324e-05, 4.25) (4.8434654235839844e-05, 4.251953125) (4.730445098876953e-05, 4.25390625) (4.6011791229248045e-05, 4.255859375) (4.454402160644531e-05, 4.2578125) (4.289270401000976e-05, 4.259765625) (4.105257415771484e-05, 4.26171875) (3.902434539794922e-05, 4.263671875) (3.6805999755859375e-05, 4.265625) (3.439435958862305e-05, 4.267578125) (3.179194831848144e-05, 4.26953125) (2.900385284423828e-05, 4.271484375) (2.6042526245117187e-05, 4.2734375) (2.292788314819336e-05, 4.275390625) (1.9677911758422852e-05, 4.27734375) (1.631147003173828e-05, 4.279296875) (1.2859049797058104e-05, 4.28125) (9.358622550964355e-06, 4.283203125) (5.85610294342041e-06, 4.28515625) (2.4109673500061035e-06, 4.287109375) (-9.248921871185303e-07, 4.2890625) (-4.107003211975097e-06, 4.291015625) (-7.086301803588867e-06, 4.29296875) (-9.82080078125e-06, 4.294921875) (-1.226674747467041e-05, 4.296875) (-1.437983226776123e-05, 4.298828125) (-1.6133140563964842e-05, 4.30078125) (-1.7509981155395507e-05, 4.302734375) (-1.8501981735229492e-05, 4.3046875) (-1.9109914779663084e-05, 4.306640625) (-1.9333812713623046e-05, 4.30859375) (-1.9178665161132813e-05, 4.310546875) (-1.8674942016601562e-05, 4.3125) (-1.7871261596679688e-05, 4.314453125) (-1.6824295043945313e-05, 4.31640625) (-1.5614154815673827e-05, 4.318359375) (-1.4322488784790038e-05, 4.3203125) (-1.3032556533813476e-05, 4.322265625) (-1.1856163024902344e-05, 4.32421875) (-1.0896397590637207e-05, 4.326171875) (-1.024458122253418e-05, 4.328125) (-1.0001134872436524e-05, 4.330078125) (-1.025205135345459e-05, 4.33203125) (-1.1082051277160644e-05, 4.333984375) (-1.2588006973266601e-05, 4.3359375) (-1.4850740432739257e-05, 4.337890625) (-1.792203903198242e-05, 4.33984375) (-2.1872215270996094e-05, 4.341796875) (-2.677877426147461e-05, 4.34375) (-3.263988494873047e-05, 4.345703125) (-3.937331390380859e-05, 4.34765625) (-4.6738292694091795e-05, 4.349609375) (-5.430519866943359e-05, 4.3515625) (-6.161643981933594e-05, 4.353515625) (-6.824588012695312e-05, 4.35546875) (-7.372979736328125e-05, 4.357421875) (-7.75656509399414e-05, 4.359375) (-7.939605712890624e-05, 4.361328125) (-7.91132354736328e-05, 4.36328125) (-7.70616455078125e-05, 4.365234375) (-7.412102508544921e-05, 4.3671875) (-7.128898620605469e-05, 4.369140625) (-6.942544555664062e-05, 4.37109375) (-6.929256439208984e-05, 4.373046875) (-7.156236267089843e-05, 4.375) (-7.660133361816405e-05, 4.376953125) (-8.421905517578125e-05, 4.37890625) (-9.323478698730468e-05, 4.380859375) (-0.00010136753845214844, 4.3828125) (-0.00010589779663085938, 4.384765625) (-0.00010418516540527343, 4.38671875) (-9.36163330078125e-05, 4.388671875) (-7.16828384399414e-05, 4.390625) (-3.622320175170898e-05, 4.392578125) (1.4393508911132812e-05, 4.39453125) (7.897210693359375e-05, 4.396484375) (0.0001532738342285156, 4.3984375) (0.00023291513061523436, 4.400390625) (0.00031312823486328125, 4.40234375) (0.00039259432983398436, 4.404296875) (0.00047402670288085937, 4.40625) (0.00055523974609375, 4.408203125) (0.0006300828857421875, 4.41015625) (0.0006872193603515625, 4.412109375) (0.0007096102294921875, 4.4140625) (0.0006886632080078124, 4.416015625) (0.00062542724609375, 4.41796875) (0.0005271891479492187, 4.419921875) (0.00040825765991210936, 4.421875) (0.0002816341552734375, 4.423828125) (0.00015610122680664062, 4.42578125) (4.2335189819335936e-05, 4.427734375) (-4.9033866882324214e-05, 4.4296875) (-0.00011263294219970702, 4.431640625) (-0.00014535008239746093, 4.43359375) (-0.00015274072265625, 4.435546875) (-0.00014646192932128905, 4.4375) (-0.000132661865234375, 4.439453125) (-0.00011828730773925781, 4.44140625) (-0.00010559526824951171, 4.443359375) (-9.319449615478515e-05, 4.4453125) (-8.457804870605468e-05, 4.447265625) (-7.813054656982422e-05, 4.44921875) (-7.224629974365234e-05, 4.451171875) (-6.698596191406249e-05, 4.453125) (-5.939525985717773e-05, 4.455078125) (-5.1371513366699214e-05, 4.45703125) (-4.4844345092773435e-05, 4.458984375) (-3.9413074493408204e-05, 4.4609375) (-3.5831390380859376e-05, 4.462890625) (-3.291420745849609e-05, 4.46484375) (-2.994091796875e-05, 4.466796875) (-2.770806121826172e-05, 4.46875) (-2.6157617568969725e-05, 4.470703125) (-2.5107261657714842e-05, 4.47265625) (-2.461391258239746e-05, 4.474609375) (-2.4486339569091794e-05, 4.4765625) (-2.4687519073486328e-05, 4.478515625) (-2.5159719467163086e-05, 4.48046875) (-2.5315832138061522e-05, 4.482421875) (-2.4640127182006833e-05, 4.484375) (-2.31536808013916e-05, 4.486328125) (-2.128793144226074e-05, 4.48828125) (-1.9439743041992187e-05, 4.490234375) (-1.7800825119018553e-05, 4.4921875) (-1.639040946960449e-05, 4.494140625) (-1.516896915435791e-05, 4.49609375) (-1.4294729232788086e-05, 4.498046875) (-1.3915767669677734e-05, 4.5) (-1.391193962097168e-05, 4.501953125) (-1.3942836761474608e-05, 4.50390625) (-1.3709586143493651e-05, 4.505859375) (-1.3071849822998047e-05, 4.5078125) (-1.204151725769043e-05, 4.509765625) (-1.0746090888977051e-05, 4.51171875) (-9.245842933654786e-06, 4.513671875) (-7.547728538513183e-06, 4.515625) (-5.710371971130371e-06, 4.517578125) (-3.831310510635376e-06, 4.51953125) (-2.0040223598480224e-06, 4.521484375) (-2.929340600967407e-07, 4.5234375) (1.298921823501587e-06, 4.525390625) (2.824883937835693e-06, 4.52734375) (4.309865951538086e-06, 4.529296875) (5.74489688873291e-06, 4.53125) (7.105179786682129e-06, 4.533203125) (8.345937728881836e-06, 4.53515625) (9.45229434967041e-06, 4.537109375) (1.0439801216125489e-05, 4.5390625) (1.13329496383667e-05, 4.541015625) (1.2171449661254882e-05, 4.54296875) (1.2990635871887206e-05, 4.544921875) (1.3813060760498046e-05, 4.546875) (1.4665193557739257e-05, 4.548828125) (1.5573814392089842e-05, 4.55078125) (1.65491943359375e-05, 4.552734375) (1.759070587158203e-05, 4.5546875) (1.8678194046020507e-05, 4.556640625) (1.976878547668457e-05, 4.55859375) (2.0834285736083985e-05, 4.560546875) (2.1863447189331054e-05, 4.5625) (2.285388374328613e-05, 4.564453125) (2.3816307067871093e-05, 4.56640625) (2.475476837158203e-05, 4.568359375) (2.566392135620117e-05, 4.5703125) (2.6539703369140625e-05, 4.572265625) (2.7377845764160156e-05, 4.57421875) (2.8175046920776367e-05, 4.576171875) (2.893136978149414e-05, 4.578125) (2.9645019531249998e-05, 4.580078125) (3.031296920776367e-05, 4.58203125) (3.0941492080688474e-05, 4.583984375) (3.1545612335205074e-05, 4.5859375) (3.214992141723633e-05, 4.587890625) (3.278697967529297e-05, 4.58984375) (3.348180389404297e-05, 4.591796875) (3.425013732910156e-05, 4.59375) (3.510260009765625e-05, 4.595703125) (3.604781723022461e-05, 4.59765625) (3.709561920166016e-05, 4.599609375) (3.8255111694335935e-05, 4.6015625) (3.953427124023437e-05, 4.603515625) (4.09407730102539e-05, 4.60546875) (4.248625946044922e-05, 4.607421875) (4.418983459472656e-05, 4.609375) (4.607264709472656e-05, 4.611328125) (4.814983749389648e-05, 4.61328125) (5.0430419921875e-05, 4.615234375) (5.291587829589844e-05, 4.6171875) (5.559846496582031e-05, 4.619140625) (5.847087860107421e-05, 4.62109375) (6.152368927001953e-05, 4.623046875) (6.474422454833984e-05, 4.625) (6.812812042236328e-05, 4.626953125) (7.167000579833985e-05, 4.62890625) (7.536337280273437e-05, 4.630859375) (7.920927429199219e-05, 4.6328125) (8.32021484375e-05, 4.634765625) (8.732411193847656e-05, 4.63671875) (9.155042266845703e-05, 4.638671875) (9.584062194824218e-05, 4.640625) (0.00010014488220214843, 4.642578125) (0.00010442816162109374, 4.64453125) (0.00010865956115722655, 4.646484375) (0.00011281084442138671, 4.6484375) (0.00011687454986572265, 4.650390625) (0.00012084731292724609, 4.65234375) (0.00012473804473876952, 4.654296875) (0.00012857427978515623, 4.65625) (0.00013236936950683593, 4.658203125) (0.00013612849426269531, 4.66015625) (0.00013985577392578124, 4.662109375) (0.00014354348754882812, 4.6640625) (0.00014719482421875, 4.666015625) (0.0001508358154296875, 4.66796875) (0.00015449745178222656, 4.669921875) (0.00015822660827636718, 4.671875) (0.00016208976745605468, 4.673828125) (0.00016613946533203125, 4.67578125) (0.00017043019104003905, 4.677734375) (0.00017501885986328126, 4.6796875) (0.00017992509460449218, 4.681640625) (0.00018514768981933594, 4.68359375) (0.00019066081237792968, 4.685546875) (0.00019640539550781248, 4.6875) (0.000202333251953125, 4.689453125) (0.00020840911865234373, 4.69140625) (0.00021459512329101562, 4.693359375) (0.000220857177734375, 4.6953125) (0.0002271481018066406, 4.697265625) (0.00023339596557617187, 4.69921875) (0.00023952598571777342, 4.701171875) (0.0002454508666992187, 4.703125) (0.0002510552978515625, 4.705078125) (0.00025622161865234376, 4.70703125) (0.0002608181457519531, 4.708984375) (0.000264708740234375, 4.7109375) (0.00026780010986328124, 4.712890625) (0.00027003039550781247, 4.71484375) (0.00027136712646484376, 4.716796875) (0.0002718113708496094, 4.71875) (0.00027136254882812496, 4.720703125) (0.00027001455688476563, 4.72265625) (0.0002677728576660156, 4.724609375) (0.0002646519165039062, 4.7265625) (0.0002606781005859375, 4.728515625) (0.00025589532470703124, 4.73046875) (0.0002503492431640625, 4.732421875) (0.0002440964660644531, 4.734375) (0.00023722279357910156, 4.736328125) (0.00022983280944824218, 4.73828125) (0.00022205351257324218, 4.740234375) (0.00021401455688476562, 4.7421875) (0.00020581474304199218, 4.744140625) (0.00019752954101562499, 4.74609375) (0.00018921522521972656, 4.748046875) (0.00018091075134277343, 4.75) (0.00017265403747558593, 4.751953125) (0.00016448110961914063, 4.75390625) (0.00015641528320312499, 4.755859375) (0.00014847146606445313, 4.7578125) (0.00014066188049316404, 4.759765625) (0.00013299565124511717, 4.76171875) (0.00012548476409912109, 4.763671875) (0.00011813505554199218, 4.765625) (0.00011093508911132812, 4.767578125) (0.00010385784149169922, 4.76953125) (9.686172485351562e-05, 4.771484375) (8.99090805053711e-05, 4.7734375) (8.29790267944336e-05, 4.775390625) (7.606183624267578e-05, 4.77734375) (6.915650177001952e-05, 4.779296875) (6.226730346679688e-05, 4.78125) (5.540029144287109e-05, 4.783203125) (4.856730651855468e-05, 4.78515625) (4.178926467895508e-05, 4.787109375) (3.508890533447265e-05, 4.7890625) (2.8485881805419922e-05, 4.791015625) (2.199637222290039e-05, 4.79296875) (1.5632125854492188e-05, 4.794921875) (9.407177925109863e-06, 4.796875) (3.3409388065338133e-06, 4.798828125) (-2.542736053466797e-06, 4.80078125) (-8.21694564819336e-06, 4.802734375) (-1.3660455703735351e-05, 4.8046875) (-1.885923957824707e-05, 4.806640625) (-2.3803131103515623e-05, 4.80859375) (-2.84857120513916e-05, 4.810546875) (-3.290314865112305e-05, 4.8125) (-3.705427932739258e-05, 4.814453125) (-4.0943351745605466e-05, 4.81640625) (-4.457989501953125e-05, 4.818359375) (-4.797334289550781e-05, 4.8203125) (-5.113175582885742e-05, 4.822265625) (-5.4062324523925777e-05, 4.82421875) (-5.6771240234375e-05, 4.826171875) (-5.926668548583984e-05, 4.828125) (-6.155884170532226e-05, 4.830078125) (-6.365847778320312e-05, 4.83203125) (-6.557660675048828e-05, 4.833984375) (-6.732330322265625e-05, 4.8359375) (-6.890824890136718e-05, 4.837890625) (-7.034156799316405e-05, 4.83984375) (-7.163349914550781e-05, 4.841796875) (-7.279386901855469e-05, 4.84375) (-7.383173370361328e-05, 4.845703125) (-7.475473022460937e-05, 4.84765625) (-7.557008361816407e-05, 4.849609375) (-7.628608703613281e-05, 4.8515625) (-7.691099548339844e-05, 4.853515625) (-7.745311737060547e-05, 4.85546875) (-7.791983032226563e-05, 4.857421875) (-7.831631469726562e-05, 4.859375) (-7.865074920654297e-05, 4.861328125) (-7.893453979492187e-05, 4.86328125) (-7.917697143554687e-05, 4.865234375) (-7.938623046875e-05, 4.8671875) (-7.956816101074218e-05, 4.869140625) (-7.972277069091796e-05, 4.87109375) (-7.985665893554688e-05, 4.873046875) (-7.9985595703125e-05, 4.875) (-8.010707855224609e-05, 4.876953125) (-8.020487976074218e-05, 4.87890625) (-8.026705932617187e-05, 4.880859375) (-8.027767944335937e-05, 4.8828125) (-8.02396240234375e-05, 4.884765625) (-8.018614196777343e-05, 4.88671875) (-8.012059020996094e-05, 4.888671875) (-8.001183319091797e-05, 4.890625) (-7.988763427734374e-05, 4.892578125) (-7.981700134277344e-05, 4.89453125) (-7.985287475585938e-05, 4.896484375) (-8.005629730224609e-05, 4.8984375) (-8.042939758300782e-05, 4.900390625) (-8.088059997558593e-05, 4.90234375) (-8.139039611816406e-05, 4.904296875) (-8.205438232421875e-05, 4.90625) (-8.275973510742187e-05, 4.908203125) (-8.316166687011718e-05, 4.91015625) (-8.320762634277343e-05, 4.912109375) (-8.298951721191406e-05, 4.9140625) (-8.246003723144531e-05, 4.916015625) (-8.20158233642578e-05, 4.91796875) (-8.08718490600586e-05, 4.919921875) (-7.69034423828125e-05, 4.921875) (-7.074520874023437e-05, 4.923828125) (-6.427509307861328e-05, 4.92578125) (-6.086773681640625e-05, 4.927734375) (-6.661196899414063e-05, 4.9296875) (-8.06544189453125e-05, 4.931640625) (-9.700630187988281e-05, 4.93359375) (-0.00010953265380859374, 4.935546875) (-0.00010954528808593749, 4.9375) (-9.715103912353515e-05, 4.939453125) (-8.043102264404296e-05, 4.94140625) (-6.558647155761718e-05, 4.943359375) (-5.9518051147460936e-05, 4.9453125) (-6.290828323364257e-05, 4.947265625) (-6.967974853515624e-05, 4.94921875) (-7.626892852783202e-05, 4.951171875) (-8.004915618896484e-05, 4.953125) (-8.045583343505859e-05, 4.955078125) (-7.999040985107422e-05, 4.95703125) (-7.966443634033203e-05, 4.958984375) (-7.942719268798828e-05, 4.9609375) (-7.934828186035156e-05, 4.962890625) (-7.904357147216796e-05, 4.96484375) (-7.845407104492188e-05, 4.966796875) (-7.791424560546874e-05, 4.96875) (-7.751342773437499e-05, 4.970703125) (-7.719923400878906e-05, 4.97265625) (-7.698478698730469e-05, 4.974609375) (-7.688612365722656e-05, 4.9765625) (-7.689196014404296e-05, 4.978515625) (-7.699014282226562e-05, 4.98046875) (-7.715010833740234e-05, 4.982421875) (-7.731576538085937e-05, 4.984375) (-7.747407531738281e-05, 4.986328125) (-7.765288543701171e-05, 4.98828125) (-7.786035919189453e-05, 4.990234375) (-7.809452819824219e-05, 4.9921875) (-7.835716247558593e-05, 4.994140625) (-7.86459732055664e-05, 4.99609375) (-7.89632110595703e-05, 4.998046875) (-7.931687927246094e-05, 5.0) (-7.970838928222656e-05, 5.001953125) (-8.01338119506836e-05, 5.00390625) (-8.05911865234375e-05, 5.005859375) (-8.107888793945312e-05, 5.0078125) (-8.159537506103515e-05, 5.009765625) (-8.213993835449218e-05, 5.01171875) (-8.271096038818358e-05, 5.013671875) (-8.330607604980468e-05, 5.015625) (-8.392298126220703e-05, 5.017578125) (-8.455928039550781e-05, 5.01953125) (-8.521249389648438e-05, 5.021484375) (-8.588011169433593e-05, 5.0234375) (-8.655947875976562e-05, 5.025390625) (-8.724781036376952e-05, 5.02734375) (-8.794227600097656e-05, 5.029296875) (-8.863995361328125e-05, 5.03125) (-8.933781433105468e-05, 5.033203125) (-9.003275299072265e-05, 5.03515625) (-9.072151184082031e-05, 5.037109375) (-9.140080261230469e-05, 5.0390625) (-9.20673828125e-05, 5.041015625) (-9.271819305419922e-05, 5.04296875) (-9.335012817382812e-05, 5.044921875) (-9.396016693115233e-05, 5.046875) (-9.454531860351562e-05, 5.048828125) (-9.510266113281249e-05, 5.05078125) (-9.56293487548828e-05, 5.052734375) (-9.612249755859374e-05, 5.0546875) (-9.657921600341796e-05, 5.056640625) (-9.699652862548828e-05, 5.05859375) (-9.737156677246093e-05, 5.060546875) (-9.770162200927734e-05, 5.0625) (-9.798425292968749e-05, 5.064453125) (-9.821736907958985e-05, 5.06640625) (-9.839923858642578e-05, 5.068359375) (-9.852864074707031e-05, 5.0703125) (-9.860472106933593e-05, 5.072265625) (-9.862707519531249e-05, 5.07421875) (-9.85956573486328e-05, 5.076171875) (-9.851071166992188e-05, 5.078125) (-9.837267303466797e-05, 5.080078125) (-9.818202209472656e-05, 5.08203125) (-9.793937683105468e-05, 5.083984375) (-9.764546203613281e-05, 5.0859375) (-9.73013687133789e-05, 5.087890625) (-9.690855407714844e-05, 5.08984375) (-9.64686279296875e-05, 5.091796875) (-9.598338317871093e-05, 5.09375) (-9.545501708984374e-05, 5.095703125) (-9.48861846923828e-05, 5.09765625) (-9.427997589111328e-05, 5.099609375) (-9.363998413085937e-05, 5.1015625) (-9.296949768066405e-05, 5.103515625) (-9.22714385986328e-05, 5.10546875) (-9.154885864257813e-05, 5.107421875) (-9.080473327636718e-05, 5.109375) (-9.004168701171874e-05, 5.111328125) (-8.926213073730469e-05, 5.11328125) (-8.846792602539062e-05, 5.115234375) (-8.766072845458985e-05, 5.1171875) (-8.684315490722655e-05, 5.119140625) (-8.601859283447265e-05, 5.12109375) (-8.519084930419921e-05, 5.123046875) (-8.436444854736328e-05, 5.125) (-8.354385375976563e-05, 5.126953125) (-8.273345947265625e-05, 5.12890625) (-8.193786621093749e-05, 5.130859375) (-8.116073608398438e-05, 5.1328125) (-8.040429687499999e-05, 5.134765625) (-7.966997528076172e-05, 5.13671875) (-7.895738220214844e-05, 5.138671875) (-7.826475524902343e-05, 5.140625) (-7.759164428710938e-05, 5.142578125) (-7.693798065185547e-05, 5.14453125) (-7.630523681640624e-05, 5.146484375) (-7.569749450683593e-05, 5.1484375) (-7.511644744873047e-05, 5.150390625) (-7.456171417236328e-05, 5.15234375) (-7.403265380859374e-05, 5.154296875) (-7.3525146484375e-05, 5.15625) (-7.303145599365234e-05, 5.158203125) (-7.254090881347656e-05, 5.16015625) (-7.203671264648437e-05, 5.162109375) (-7.150013732910156e-05, 5.1640625) (-7.091817474365234e-05, 5.166015625) (-7.028092956542969e-05, 5.16796875) (-6.958390808105469e-05, 5.169921875) (-6.88299560546875e-05, 5.171875) (-6.802110290527343e-05, 5.173828125) (-6.716217041015625e-05, 5.17578125) (-6.625860595703124e-05, 5.177734375) (-6.530831146240234e-05, 5.1796875) (-6.430994415283203e-05, 5.181640625) (-6.326260375976562e-05, 5.18359375) (-6.216286087036133e-05, 5.185546875) (-6.1014850616455076e-05, 5.1875) (-5.9832294464111324e-05, 5.189453125) (-5.8635108947753905e-05, 5.19140625) (-5.745897674560547e-05, 5.193359375) (-5.634677505493164e-05, 5.1953125) (-5.5330165863037105e-05, 5.197265625) (-5.4437072753906246e-05, 5.19921875) (-5.3683410644531245e-05, 5.201171875) (-5.306497192382812e-05, 5.203125) (-5.257215881347656e-05, 5.205078125) (-5.218259811401367e-05, 5.20703125) (-5.186405563354492e-05, 5.208984375) (-5.159496688842773e-05, 5.2109375) (-5.1356655120849605e-05, 5.212890625) (-5.113080596923828e-05, 5.21484375) (-5.0904205322265625e-05, 5.216796875) (-5.0651657104492184e-05, 5.21875) (-5.0333251953125e-05, 5.220703125) (-4.990341567993164e-05, 5.22265625) (-4.929396057128906e-05, 5.224609375) (-4.8425682067871094e-05, 5.2265625) (-4.723210144042968e-05, 5.228515625) (-4.564743041992187e-05, 5.23046875) (-4.362533950805664e-05, 5.232421875) (-4.115386199951172e-05, 5.234375) (-3.823626708984375e-05, 5.236328125) (-3.489715194702148e-05, 5.23828125) (-3.118096542358398e-05, 5.240234375) (-2.7123426437377927e-05, 5.2421875) (-2.275662040710449e-05, 5.244140625) (-1.812139320373535e-05, 5.24609375) (-1.3256285667419432e-05, 5.248046875) (-8.21410846710205e-06, 5.25) (-3.065542697906494e-06, 5.251953125) (2.1156797409057617e-06, 5.25390625) (7.230138778686523e-06, 5.255859375) (1.2161800384521483e-05, 5.2578125) (1.6799285888671873e-05, 5.259765625) (2.1024057388305663e-05, 5.26171875) (2.4735351562499997e-05, 5.263671875) (2.7872509002685544e-05, 5.265625) (3.0393051147460936e-05, 5.267578125) (3.226509094238281e-05, 5.26953125) (3.347666931152344e-05, 5.271484375) (3.3997688293457026e-05, 5.2734375) (3.378428649902343e-05, 5.275390625) (3.2841426849365234e-05, 5.27734375) (3.118993949890137e-05, 5.279296875) (2.885908508300781e-05, 5.28125) (2.5897705078124998e-05, 5.283203125) (2.2315746307373047e-05, 5.28515625) (1.811940383911133e-05, 5.287109375) (1.3389198303222655e-05, 5.2890625) (8.259678840637206e-06, 5.291015625) (2.828742980957031e-06, 5.29296875) (-2.850348949432373e-06, 5.294921875) (-8.815655708312987e-06, 5.296875) (-1.5144786834716796e-05, 5.298828125) (-2.16946964263916e-05, 5.30078125) (-2.8218612670898437e-05, 5.302734375) (-3.449916076660156e-05, 5.3046875) (-4.037559509277344e-05, 5.306640625) (-4.575136566162109e-05, 5.30859375) (-5.038233947753906e-05, 5.310546875) (-5.4016281127929684e-05, 5.3125) (-5.654769134521484e-05, 5.314453125) (-5.806461715698242e-05, 5.31640625) (-5.903612518310547e-05, 5.318359375) (-5.9173858642578124e-05, 5.3203125) (-5.699703216552734e-05, 5.322265625) (-5.285052108764648e-05, 5.32421875) (-4.836447143554687e-05, 5.326171875) (-4.669658660888672e-05, 5.328125) (-5.3772171020507813e-05, 5.330078125) (-6.885919189453124e-05, 5.33203125) (-8.544617462158203e-05, 5.333984375) (-9.67166748046875e-05, 5.3359375) (-9.274445343017578e-05, 5.337890625) (-7.249606323242187e-05, 5.33984375) (-4.455857467651367e-05, 5.341796875) (-1.542476272583008e-05, 5.34375) (7.2912278175354e-06, 5.345703125) (2.0716251373291014e-05, 5.34765625) (2.9890333175659178e-05, 5.349609375) (3.708612823486328e-05, 5.3515625) (4.2679027557373046e-05, 5.353515625) (4.661665344238281e-05, 5.35546875) (4.6001041412353516e-05, 5.357421875) (3.90757942199707e-05, 5.359375) (2.656937026977539e-05, 5.361328125) (9.877036094665528e-06, 5.36328125) (-9.362564086914062e-06, 5.365234375) (-2.922041320800781e-05, 5.3671875) (-4.7776428222656246e-05, 5.369140625) (-6.387116622924804e-05, 5.37109375) (-7.64456329345703e-05, 5.373046875) (-8.429325103759765e-05, 5.375) (-8.7275146484375e-05, 5.376953125) (-8.610374450683593e-05, 5.37890625) (-8.1515869140625e-05, 5.380859375) (-7.481535339355469e-05, 5.3828125) (-6.7695068359375e-05, 5.384765625) (-6.118135833740234e-05, 5.38671875) (-5.610874938964844e-05, 5.388671875) (-5.354555511474609e-05, 5.390625) (-5.402216339111328e-05, 5.392578125) (-5.74188232421875e-05, 5.39453125) (-6.353295135498047e-05, 5.396484375) (-7.157714080810546e-05, 5.3984375) (-8.00095977783203e-05, 5.400390625) (-8.777004241943359e-05, 5.40234375) (-9.419882202148436e-05, 5.404296875) (-9.839385223388671e-05, 5.40625) (-9.970576477050781e-05, 5.408203125) (-9.799974060058594e-05, 5.41015625) (-9.308915710449218e-05, 5.412109375) (-8.549334716796875e-05, 5.4140625) (-7.69681625366211e-05, 5.416015625) (-6.878048706054687e-05, 5.41796875) (-6.161713409423828e-05, 5.419921875) (-5.650768280029296e-05, 5.421875) (-5.4113822937011716e-05, 5.423828125) (-5.4329105377197265e-05, 5.42578125) (-5.70978775024414e-05, 5.427734375) (-6.038408279418945e-05, 5.4296875) (-5.939637374877929e-05, 5.431640625) (-5.053385162353515e-05, 5.43359375) (-3.1995439529418945e-05, 5.435546875) (-4.606501579284668e-06, 5.4375) (2.6745677947998046e-05, 5.439453125) (5.76907730102539e-05, 5.44140625) (8.963578796386719e-05, 5.443359375) (0.0001295933837890625, 5.4453125) (0.00018796185302734375, 5.447265625) (0.0002749321899414062, 5.44921875) (0.0003893800354003906, 5.451171875) (0.0005150966186523437, 5.453125) (0.0006284949340820312, 5.455078125) (0.0007022397460937499, 5.45703125) (0.0007174759521484374, 5.458984375) (0.0006746508789062499, 5.4609375) (0.0005843368530273437, 5.462890625) (0.00046427105712890625, 5.46484375) (0.0003342662963867187, 5.466796875) (0.00020391822814941406, 5.46875) (8.099415588378906e-05, 5.470703125) (-2.7016897201538084e-05, 5.47265625) (-0.00011637626647949218, 5.474609375) (-0.0001789833068847656, 5.4765625) (-0.00021059713745117187, 5.478515625) (-0.00021235812377929687, 5.48046875) (-0.00018656893920898437, 5.482421875) (-0.0001433647766113281, 5.484375) (-9.507096862792968e-05, 5.486328125) (-5.431525421142578e-05, 5.48828125) (-3.245173263549804e-05, 5.490234375) (-3.166829490661621e-05, 5.4921875) (-4.686693572998047e-05, 5.494140625) (-6.724284362792968e-05, 5.49609375) (-8.240798187255859e-05, 5.498046875) (-8.857995605468749e-05, 5.5) (-8.720452880859374e-05, 5.501953125) (-8.38078155517578e-05, 5.50390625) (-8.242550659179687e-05, 5.505859375) (-8.316592407226563e-05, 5.5078125) (-8.455963134765624e-05, 5.509765625) (-8.420094299316406e-05, 5.51171875) (-8.107683563232421e-05, 5.513671875) (-7.592173767089844e-05, 5.515625) (-6.961074829101562e-05, 5.517578125) (-6.298532104492187e-05, 5.51953125) (-5.6629272460937495e-05, 5.521484375) (-5.078800582885742e-05, 5.5234375) (-4.56121711730957e-05, 5.525390625) (-4.1179550170898436e-05, 5.52734375) (-3.7408378601074216e-05, 5.529296875) (-3.413887023925781e-05, 5.53125) (-3.129251861572266e-05, 5.533203125) (-2.8861217498779295e-05, 5.53515625) (-2.683286666870117e-05, 5.537109375) (-2.5200435638427732e-05, 5.5390625) (-2.3943157196044922e-05, 5.541015625) (-2.301176834106445e-05, 5.54296875) (-2.2396150588989256e-05, 5.544921875) (-2.2097583770751952e-05, 5.546875) (-2.2082775115966796e-05, 5.548828125) (-2.2303829193115232e-05, 5.55078125) (-2.2696735382080077e-05, 5.552734375) (-2.3197807312011717e-05, 5.5546875) (-2.3770519256591797e-05, 5.556640625) (-2.439360427856445e-05, 5.55859375) (-2.504027557373047e-05, 5.560546875) (-2.5681161880493162e-05, 5.5625) (-2.6268264770507812e-05, 5.564453125) (-2.673904037475586e-05, 5.56640625) (-2.7044616699218748e-05, 5.568359375) (-2.7136060714721678e-05, 5.5703125) (-2.697718048095703e-05, 5.572265625) (-2.6551998138427732e-05, 5.57421875) (-2.5844522476196288e-05, 5.576171875) (-2.484970474243164e-05, 5.578125) (-2.357680320739746e-05, 5.580078125) (-2.204266357421875e-05, 5.58203125) (-2.027545928955078e-05, 5.583984375) (-1.8309425354003905e-05, 5.5859375) (-1.6169645309448242e-05, 5.587890625) (-1.3876374244689941e-05, 5.58984375) (-1.1457186698913574e-05, 5.591796875) (-8.941107749938964e-06, 5.59375) (-6.370245933532714e-06, 5.595703125) (-3.797412633895874e-06, 5.59765625) (-1.2622891664505005e-06, 5.599609375) (1.2002873420715332e-06, 5.6015625) (3.562089920043945e-06, 5.603515625) (5.806598663330078e-06, 5.60546875) (7.918314933776854e-06, 5.607421875) (9.886175155639648e-06, 5.609375) (1.1710434913635253e-05, 5.611328125) (1.339875030517578e-05, 5.61328125) (1.4961787223815918e-05, 5.615234375) (1.6414756774902343e-05, 5.6171875) (1.7769962310791015e-05, 5.619140625) (1.9037015914916992e-05, 5.62109375) (2.023223114013672e-05, 5.623046875) (2.1374137878417968e-05, 5.625) (2.2485553741455076e-05, 5.626953125) (2.359407043457031e-05, 5.62890625) (2.4720584869384766e-05, 5.630859375) (2.5881515502929686e-05, 5.6328125) (2.709229278564453e-05, 5.634765625) (2.836478805541992e-05, 5.63671875) (2.970969772338867e-05, 5.638671875) (3.1137454986572266e-05, 5.640625) (3.265399932861328e-05, 5.642578125) (3.426205444335937e-05, 5.64453125) (3.596649169921875e-05, 5.646484375) (3.7772315979003904e-05, 5.6484375) (3.968540954589843e-05, 5.650390625) (4.1713382720947265e-05, 5.65234375) (4.386137390136718e-05, 5.654296875) (4.6133026123046875e-05, 5.65625) (4.853165817260742e-05, 5.658203125) (5.105932998657226e-05, 5.66015625) (5.371852874755859e-05, 5.662109375) (5.651248931884765e-05, 5.6640625) (5.944352340698242e-05, 5.666015625) (6.251352691650391e-05, 5.66796875) (6.572463989257812e-05, 5.669921875) (6.907842254638672e-05, 5.671875) (7.257644653320312e-05, 5.673828125) (7.622039794921874e-05, 5.67578125) (8.001004028320313e-05, 5.677734375) (8.39434814453125e-05, 5.6796875) (8.801805114746094e-05, 5.681640625) (9.222962951660155e-05, 5.68359375) (9.657325744628906e-05, 5.685546875) (0.0001010438232421875, 5.6875) (0.00010563525390624999, 5.689453125) (0.00011034034729003906, 5.69140625) (0.00011515199279785156, 5.693359375) (0.00012006295776367187, 5.6953125) (0.00012506468963623045, 5.697265625) (0.00013014938354492187, 5.69921875) (0.00013530865478515624, 5.701171875) (0.00014052940368652344, 5.703125) (0.00014579785156249999, 5.705078125) (0.00015110046386718749, 5.70703125) (0.00015642106628417968, 5.708984375) (0.00016174525451660156, 5.7109375) (0.00016706097412109376, 5.712890625) (0.00017234678649902344, 5.71484375) (0.0001775804443359375, 5.716796875) (0.0001827559814453125, 5.71875) (0.00018786462402343749, 5.720703125) (0.00019289599609375, 5.72265625) (0.00019784490966796874, 5.724609375) (0.00020268447875976562, 5.7265625) (0.000207378173828125, 5.728515625) (0.0002119226837158203, 5.73046875) (0.00021631483459472656, 5.732421875) (0.00022049822998046874, 5.734375) (0.00022442568969726563, 5.736328125) (0.00022805612182617187, 5.73828125) (0.00023133673095703124, 5.740234375) (0.00023427804565429687, 5.7421875) (0.00023692037963867187, 5.744140625) (0.0002392176513671875, 5.74609375) (0.00024109930419921873, 5.748046875) (0.0002427022705078125, 5.75) (0.0002441912536621094, 5.751953125) (0.00024544577026367186, 5.75390625) (0.00024646061706542967, 5.755859375) (0.00024725798034667967, 5.7578125) (0.0002474476470947266, 5.759765625) (0.0002480536193847656, 5.76171875) (0.0002500757446289062, 5.763671875) (0.00025208164978027345, 5.765625) (0.00025364083862304684, 5.767578125) (0.00025213441467285155, 5.76953125) (0.00024442968749999996, 5.771484375) (0.000234028076171875, 5.7734375) (0.00022326556396484374, 5.775390625) (0.00021560365295410154, 5.77734375) (0.00021579216003417967, 5.779296875) (0.00021963346862792968, 5.78125) (0.00022356971740722655, 5.783203125) (0.00022516796875, 5.78515625) (0.0002204083251953125, 5.787109375) (0.00021217253112792967, 5.7890625) (0.00020337181091308594, 5.791015625) (0.00019466636657714843, 5.79296875) (0.00018786358642578125, 5.794921875) (0.00018195048522949217, 5.796875) (0.00017561250305175781, 5.798828125) (0.00016908740234374998, 5.80078125) (0.00016215142822265625, 5.802734375) (0.0001548714141845703, 5.8046875) (0.0001475564270019531, 5.806640625) (0.00014002903747558593, 5.80859375) (0.00013208737182617187, 5.810546875) (0.0001237381591796875, 5.8125) (0.0001149476089477539, 5.814453125) (0.00010571125030517577, 5.81640625) (9.619038391113281e-05, 5.818359375) (8.650584411621093e-05, 5.8203125) (7.661744689941406e-05, 5.822265625) (6.669894409179688e-05, 5.82421875) (5.718616485595703e-05, 5.826171875) (4.817164230346679e-05, 5.828125) (3.962951278686523e-05, 5.830078125) (3.1735797882080074e-05, 5.83203125) (2.4101131439208982e-05, 5.833984375) (1.7409883499145505e-05, 5.8359375) (1.3933978080749512e-05, 5.837890625) (1.3195178985595703e-05, 5.83984375) (1.3183062553405761e-05, 5.841796875) (1.07089786529541e-05, 5.84375) (-7.917633056640625e-07, 5.845703125) (-2.124887466430664e-05, 5.84765625) (-4.3897018432617185e-05, 5.849609375) (-6.220818710327149e-05, 5.8515625) (-6.676069641113281e-05, 5.853515625) (-5.629887390136719e-05, 5.85546875) (-3.9953121185302734e-05, 5.857421875) (-2.4931097030639646e-05, 5.859375) (-1.8514516830444336e-05, 5.861328125) (-2.240947723388672e-05, 5.86328125) (-3.0342546463012694e-05, 5.865234375) (-3.8313312530517576e-05, 5.8671875) (-4.40477409362793e-05, 5.869140625) (-4.707763290405273e-05, 5.87109375) (-4.968151092529297e-05, 5.873046875) (-5.2743923187255855e-05, 5.875) (-5.6085556030273435e-05, 5.876953125) (-5.9585060119628906e-05, 5.87890625) (-6.269669342041016e-05, 5.880859375) (-6.526683044433593e-05, 5.8828125) (-6.727118682861328e-05, 5.884765625) (-6.843305206298828e-05, 5.88671875) (-6.897994232177734e-05, 5.888671875) (-6.919248962402344e-05, 5.890625) (-6.918252563476562e-05, 5.892578125) (-6.914096069335937e-05, 5.89453125) (-6.904088592529297e-05, 5.896484375) (-6.878622436523437e-05, 5.8984375) (-6.8507080078125e-05, 5.900390625) (-6.835848999023437e-05, 5.90234375) (-6.825702667236327e-05, 5.904296875) (-6.81258087158203e-05, 5.90625) (-6.791050720214844e-05, 5.908203125) (-6.751961517333984e-05, 5.91015625) (-6.70223388671875e-05, 5.912109375) (-6.650731658935547e-05, 5.9140625) (-6.596536254882813e-05, 5.916015625) (-6.539382934570312e-05, 5.91796875) (-6.481605529785155e-05, 5.919921875) (-6.424268341064453e-05, 5.921875) (-6.370261383056641e-05, 5.923828125) (-6.323098754882812e-05, 5.92578125) (-6.281367492675782e-05, 5.927734375) (-6.243357849121094e-05, 5.9296875) (-6.208718872070312e-05, 5.931640625) (-6.176579284667968e-05, 5.93359375) (-6.147721099853515e-05, 5.935546875) (-6.123177337646484e-05, 5.9375) (-6.102875518798828e-05, 5.939453125) (-6.0867057800292966e-05, 5.94140625) (-6.074272918701172e-05, 5.943359375) (-6.06507568359375e-05, 5.9453125) (-6.058947372436523e-05, 5.947265625) (-6.055773162841797e-05, 5.94921875) (-6.05543212890625e-05, 5.951171875) (-6.0578338623046875e-05, 5.953125) (-6.062793731689453e-05, 5.955078125) (-6.070171737670898e-05, 5.95703125) (-6.0800998687744137e-05, 5.958984375) (-6.092681121826171e-05, 5.9609375) (-6.107970428466797e-05, 5.962890625) (-6.125938415527343e-05, 5.96484375) (-6.146076202392578e-05, 5.966796875) (-6.167829132080078e-05, 5.96875) (-6.190744781494141e-05, 5.970703125) (-6.214311981201172e-05, 5.97265625) (-6.238139724731445e-05, 5.974609375) (-6.261844635009766e-05, 5.9765625) (-6.28498649597168e-05, 5.978515625) (-6.307201385498047e-05, 5.98046875) (-6.328225708007813e-05, 5.982421875) (-6.347842407226562e-05, 5.984375) (-6.365896606445312e-05, 5.986328125) (-6.382284545898437e-05, 5.98828125) (-6.396905136108398e-05, 5.990234375) (-6.409719848632813e-05, 5.9921875) (-6.420735931396484e-05, 5.994140625) (-6.429997253417968e-05, 5.99609375) (-6.437634277343749e-05, 5.998046875) (-6.44379653930664e-05, 6.0) (-6.448637390136719e-05, 6.001953125) (-6.452317047119141e-05, 6.00390625) (-6.454980468749999e-05, 6.005859375) (-6.456775665283203e-05, 6.0078125) (-6.457875061035156e-05, 6.009765625) (-6.458427429199219e-05, 6.01171875) (-6.458544158935546e-05, 6.013671875) (-6.458299255371093e-05, 6.015625) (-6.457741546630859e-05, 6.017578125) (-6.456983947753906e-05, 6.01953125) (-6.456196594238281e-05, 6.021484375) (-6.455548095703125e-05, 6.0234375) (-6.455160522460937e-05, 6.025390625) (-6.455110931396483e-05, 6.02734375) (-6.455596160888671e-05, 6.029296875) (-6.457200622558593e-05, 6.03125) (-6.460872650146484e-05, 6.033203125) (-6.467350769042969e-05, 6.03515625) (-6.477114868164063e-05, 6.037109375) (-6.490313720703124e-05, 6.0390625) (-6.506820678710938e-05, 6.041015625) (-6.527024841308594e-05, 6.04296875) (-6.551148223876952e-05, 6.044921875) (-6.577500915527344e-05, 6.046875) (-6.60287094116211e-05, 6.048828125) (-6.624764251708984e-05, 6.05078125) (-6.64158477783203e-05, 6.052734375) (-6.653886413574219e-05, 6.0546875) (-6.664855957031249e-05, 6.056640625) (-6.675379943847656e-05, 6.05859375) (-6.686219024658202e-05, 6.060546875) (-6.704727172851562e-05, 6.0625) (-6.741236877441407e-05, 6.064453125) (-6.80230712890625e-05, 6.06640625) (-6.891923522949218e-05, 6.068359375) (-7.0075927734375e-05, 6.0703125) (-7.140870666503906e-05, 6.072265625) (-7.288616943359375e-05, 6.07421875) (-7.442945861816406e-05, 6.076171875) (-7.57186050415039e-05, 6.078125) (-7.627303314208984e-05, 6.080078125) (-7.598556518554687e-05, 6.08203125) (-7.511111450195312e-05, 6.083984375) (-7.381369018554688e-05, 6.0859375) (-7.219647979736328e-05, 6.087890625) (-6.913552856445312e-05, 6.08984375) (-6.291823196411133e-05, 6.091796875) (-5.444873809814453e-05, 6.09375) (-4.695862579345703e-05, 6.095703125) (-4.764102935791015e-05, 6.09765625) (-6.077661895751953e-05, 6.099609375) (-7.60761260986328e-05, 6.1015625) (-0.00010125093841552734, 6.103515625) (-0.00015519696044921874, 6.10546875) (-0.00018311691284179688, 6.107421875) (-0.00012627247619628905, 6.109375) (-4.816063690185547e-05, 6.111328125) (-1.808613586425781e-05, 6.11328125) (-1.5981496810913086e-05, 6.115234375) (-2.4698871612548826e-05, 6.1171875) (-4.8006462097167965e-05, 6.119140625) (-7.4628662109375e-05, 6.12109375) (-9.363582611083984e-05, 6.123046875) (-9.955790710449218e-05, 6.125) (-9.434828186035156e-05, 6.126953125) (-8.603995513916015e-05, 6.12890625) (-7.82498550415039e-05, 6.130859375) (-7.316447448730468e-05, 6.1328125) (-7.139034271240234e-05, 6.134765625) (-7.038731384277344e-05, 6.13671875) (-6.93730697631836e-05, 6.138671875) (-6.86383285522461e-05, 6.140625) (-6.807118988037109e-05, 6.142578125) (-6.810391235351562e-05, 6.14453125) (-6.887784576416015e-05, 6.146484375) (-7.00213623046875e-05, 6.1484375) (-7.136649322509765e-05, 6.150390625) (-7.287278747558594e-05, 6.15234375) (-7.442208099365234e-05, 6.154296875) (-7.594883728027343e-05, 6.15625) (-7.746578979492188e-05, 6.158203125) (-7.897315979003906e-05, 6.16015625) (-8.04791030883789e-05, 6.162109375) (-8.202460479736327e-05, 6.1640625) (-8.361091613769531e-05, 6.166015625) (-8.51953125e-05, 6.16796875) (-8.675489807128906e-05, 6.169921875) (-8.826277923583984e-05, 6.171875) (-8.967214965820313e-05, 6.173828125) (-9.094898223876952e-05, 6.17578125) (-9.206454467773437e-05, 6.177734375) (-9.299925994873046e-05, 6.1796875) (-9.37564239501953e-05, 6.181640625) (-9.435740661621093e-05, 6.18359375) (-9.483328247070312e-05, 6.185546875) (-9.521005249023437e-05, 6.1875) (-9.550889587402344e-05, 6.189453125) (-9.574488830566406e-05, 6.19140625) (-9.592616271972656e-05, 6.193359375) (-9.605889892578125e-05, 6.1953125) (-9.614668273925781e-05, 6.197265625) (-9.619097900390625e-05, 6.19921875) (-9.619151306152343e-05, 6.201171875) (-9.615560150146484e-05, 6.203125) (-9.609808349609375e-05, 6.205078125) (-9.60337677001953e-05, 6.20703125) (-9.59778823852539e-05, 6.208984375) (-9.593814086914063e-05, 6.2109375) (-9.591451263427734e-05, 6.212890625) (-9.590177154541015e-05, 6.21484375) (-9.588885498046875e-05, 6.216796875) (-9.586587524414062e-05, 6.21875) (-9.582487487792969e-05, 6.220703125) (-9.575909423828124e-05, 6.22265625) (-9.566441345214844e-05, 6.224609375) (-9.554115295410156e-05, 6.2265625) (-9.53926773071289e-05, 6.228515625) (-9.522783660888672e-05, 6.23046875) (-9.506140899658202e-05, 6.232421875) (-9.490103149414062e-05, 6.234375) (-9.474748229980469e-05, 6.236328125) (-9.45987548828125e-05, 6.23828125) (-9.444794464111328e-05, 6.240234375) (-9.42904815673828e-05, 6.2421875) (-9.412602233886718e-05, 6.244140625) (-9.395077514648437e-05, 6.24609375) (-9.375843048095703e-05, 6.248046875) (-9.354850769042969e-05, 6.25) (-9.332377624511719e-05, 6.251953125) (-9.309429931640624e-05, 6.25390625) (-9.287893676757813e-05, 6.255859375) (-9.268782806396484e-05, 6.2578125) (-9.252429962158203e-05, 6.259765625) (-9.238521575927734e-05, 6.26171875) (-9.225738525390624e-05, 6.263671875) (-9.21362075805664e-05, 6.265625) (-9.202651977539062e-05, 6.267578125) (-9.193322753906249e-05, 6.26953125) (-9.186446380615234e-05, 6.271484375) (-9.182914733886719e-05, 6.2734375) (-9.183164978027343e-05, 6.275390625) (-9.188736724853515e-05, 6.27734375) (-9.202321624755859e-05, 6.279296875) (-9.224858093261719e-05, 6.28125) (-9.255990600585937e-05, 6.283203125) (-9.293647003173828e-05, 6.28515625) (-9.333489227294921e-05, 6.287109375) (-9.372553253173827e-05, 6.2890625) (-9.409181213378906e-05, 6.291015625) (-9.442082214355469e-05, 6.29296875) (-9.470996856689453e-05, 6.294921875) (-9.494863891601562e-05, 6.296875) (-9.511538696289062e-05, 6.298828125) (-9.51945571899414e-05, 6.30078125) (-9.517395019531249e-05, 6.302734375) (-9.503617095947266e-05, 6.3046875) (-9.476615142822266e-05, 6.306640625) (-9.433367919921875e-05, 6.30859375) (-9.369066619873046e-05, 6.310546875) (-9.281460571289062e-05, 6.3125) (-9.17039794921875e-05, 6.314453125) (-9.0377685546875e-05, 6.31640625) (-8.888291931152344e-05, 6.318359375) (-8.725245666503906e-05, 6.3203125) (-8.550314331054687e-05, 6.322265625) (-8.365401458740234e-05, 6.32421875) (-8.171975708007812e-05, 6.326171875) (-7.971858978271484e-05, 6.328125) (-7.767626953125e-05, 6.330078125) (-7.56092529296875e-05, 6.33203125) (-7.352519226074218e-05, 6.333984375) (-7.144175720214843e-05, 6.3359375) (-6.938096618652344e-05, 6.337890625) (-6.73779067993164e-05, 6.33984375) (-6.54837188720703e-05, 6.341796875) (-6.372752380371093e-05, 6.34375) (-6.211942672729492e-05, 6.345703125) (-6.065607452392578e-05, 6.34765625) (-5.931441497802734e-05, 6.349609375) (-5.8081146240234374e-05, 6.3515625) (-5.695449066162109e-05, 6.353515625) (-5.592787933349609e-05, 6.35546875) (-5.499518585205078e-05, 6.357421875) (-5.415474700927734e-05, 6.359375) (-5.3405578613281245e-05, 