(1.880697250366211e-05, 0.0) (2.2769264221191406e-05, 0.001953125) (2.6636081695556638e-05, 0.00390625) (3.0327507019042967e-05, 0.005859375) (3.3782482147216794e-05, 0.0078125) (3.695323181152344e-05, 0.009765625) (3.981371307373047e-05, 0.01171875) (4.235829544067383e-05, 0.013671875) (4.457962799072266e-05, 0.015625) (4.6467437744140626e-05, 0.017578125) (4.801889419555664e-05, 0.01953125) (4.924014282226562e-05, 0.021484375) (5.0138343811035157e-05, 0.0234375) (5.0717105865478516e-05, 0.025390625) (5.0974483489990235e-05, 0.02734375) (5.09073371887207e-05, 0.029296875) (5.051996612548828e-05, 0.03125) (4.9826332092285156e-05, 0.033203125) (4.884980773925781e-05, 0.03515625) (4.7616855621337886e-05, 0.037109375) (4.6151588439941406e-05, 0.0390625) (4.4477699279785154e-05, 0.041015625) (4.261668395996093e-05, 0.04296875) (4.0588249206542966e-05, 0.044921875) (3.841111373901367e-05, 0.046875) (3.610112380981445e-05, 0.048828125) (3.367102432250976e-05, 0.05078125) (3.113272666931152e-05, 0.052734375) (2.850142669677734e-05, 0.0546875) (2.579523468017578e-05, 0.056640625) (2.3033752441406248e-05, 0.05859375) (2.0236585617065428e-05, 0.060546875) (1.7421031951904296e-05, 0.0625) (1.4602949142456054e-05, 0.064453125) (1.1798355102539061e-05, 0.06640625) (9.02266788482666e-06, 0.068359375) (6.288759231567382e-06, 0.0703125) (3.6063945293426514e-06, 0.072265625) (9.825913310050963e-07, 0.07421875) (-1.5769317150115966e-06, 0.076171875) (-4.0660495758056635e-06, 0.078125) (-6.4787292480468745e-06, 0.080078125) (-8.810107231140136e-06, 0.08203125) (-1.1056689262390136e-05, 0.083984375) (-1.3216480255126952e-05, 0.0859375) (-1.5287831306457517e-05, 0.087890625) (-1.7268703460693357e-05, 0.08984375) (-1.915797233581543e-05, 0.091796875) (-2.095627212524414e-05, 0.09375) (-2.2666259765624998e-05, 0.095703125) (-2.4292675018310545e-05, 0.09765625) (-2.5842060089111327e-05, 0.099609375) (-2.732184600830078e-05, 0.1015625) (-2.8741336822509765e-05, 0.103515625) (-3.011259841918945e-05, 0.10546875) (-3.1448375701904294e-05, 0.107421875) (-3.2761268615722656e-05, 0.109375) (-3.4063323974609376e-05, 0.111328125) (-3.536503982543945e-05, 0.11328125) (-3.667481231689453e-05, 0.115234375) (-3.8000335693359377e-05, 0.1171875) (-3.9348175048828124e-05, 0.119140625) (-4.072187042236328e-05, 0.12109375) (-4.212577438354492e-05, 0.123046875) (-4.356508255004883e-05, 0.125) (-4.504441452026367e-05, 0.126953125) (-4.657118988037109e-05, 0.12890625) (-4.815291213989258e-05, 0.130859375) (-4.979343032836914e-05, 0.1328125) (-5.1493618011474607e-05, 0.134765625) (-5.3252010345458984e-05, 0.13671875) (-5.506332015991211e-05, 0.138671875) (-5.692301559448242e-05, 0.140625) (-5.882511901855468e-05, 0.142578125) (-6.0754447937011716e-05, 0.14453125) (-6.270152282714843e-05, 0.146484375) (-6.466475677490234e-05, 0.1484375) (-6.665138244628906e-05, 0.150390625) (-6.86868667602539e-05, 0.15234375) (-7.079007720947265e-05, 0.154296875) (-7.296161651611328e-05, 0.15625) (-7.519973754882812e-05, 0.158203125) (-7.750062561035156e-05, 0.16015625) (-7.984991455078124e-05, 0.162109375) (-8.223432159423827e-05, 0.1640625) (-8.46260986328125e-05, 0.166015625) (-8.696113586425782e-05, 0.16796875) (-8.918273925781249e-05, 0.169921875) (-9.124087524414062e-05, 0.171875) (-9.30905303955078e-05, 0.173828125) (-9.472835540771483e-05, 0.17578125) (-9.614202117919921e-05, 0.177734375) (-9.729216766357422e-05, 0.1796875) (-9.812657165527343e-05, 0.181640625) (-9.856584167480468e-05, 0.18359375) (-9.856137084960937e-05, 0.185546875) (-9.813279724121093e-05, 0.1875) (-9.730168151855468e-05, 0.189453125) (-9.606320190429688e-05, 0.19140625) (-9.44216079711914e-05, 0.193359375) (-9.236018371582031e-05, 0.1953125) (-8.99358901977539e-05, 0.197265625) (-8.73632354736328e-05, 0.19921875) (-8.482819366455078e-05, 0.201171875) (-8.247769165039062e-05, 0.203125) (-8.04437026977539e-05, 0.205078125) (-7.872822570800781e-05, 0.20703125) (-7.744003295898437e-05, 0.208984375) (-7.688124084472655e-05, 0.2109375) (-7.718297576904297e-05, 0.212890625) (-7.829143524169922e-05, 0.21484375) (-7.998280334472656e-05, 0.216796875) (-8.173571777343749e-05, 0.21875) (-8.315887451171874e-05, 0.220703125) (-8.417578125e-05, 0.22265625) (-8.440122985839844e-05, 0.224609375) (-8.318223571777343e-05, 0.2265625) (-8.032808685302734e-05, 0.228515625) (-7.595144653320312e-05, 0.23046875) (-7.072705078125e-05, 0.232421875) (-6.601275634765625e-05, 0.234375) (-6.286944580078124e-05, 0.236328125) (-6.217778015136718e-05, 0.23828125) (-6.53050537109375e-05, 0.240234375) (-7.372920989990233e-05, 0.2421875) (-8.639539337158203e-05, 0.244140625) (-9.9792236328125e-05, 0.24609375) (-0.00011030313873291015, 0.248046875) (-0.00011518870544433593, 0.25) (-0.00011702684020996093, 0.251953125) (-0.00012126318359374999, 0.25390625) (-0.00012751036071777344, 0.255859375) (-0.00012700270843505858, 0.2578125) (-0.00010458595275878906, 0.259765625) (-4.754361724853516e-05, 0.26171875) (4.627458190917969e-05, 0.263671875) (0.00016517277526855467, 0.265625) (0.00029136968994140623, 0.267578125) (0.00041644519042968747, 0.26953125) (0.0005365511474609375, 0.271484375) (0.0006492660522460938, 0.2734375) (0.0007501168212890625, 0.275390625) (0.0008152905883789062, 0.27734375) (0.000818376708984375, 0.279296875) (0.0007457373046875, 0.28125) (0.0005937404174804688, 0.283203125) (0.0003839439697265625, 0.28515625) (0.00015126586914062499, 0.287109375) (-7.325898742675781e-05, 0.2890625) (-0.00026066448974609375, 0.291015625) (-0.0003944754943847656, 0.29296875) (-0.00046930017089843746, 0.294921875) (-0.00048780978393554687, 0.296875) (-0.00045797454833984374, 0.298828125) (-0.00038782873535156247, 0.30078125) (-0.00029269622802734376, 0.302734375) (-0.00018568989562988282, 0.3046875) (-8.187132263183594e-05, 0.306640625) (-3.1217880249023434e-06, 0.30859375) (4.335551834106445e-05, 0.310546875) (5.67066535949707e-05, 0.3125) (4.303681564331055e-05, 0.314453125) (2.219620132446289e-05, 0.31640625) (4.554404735565185e-06, 0.318359375) (-6.689834594726562e-06, 0.3203125) (-1.1616273880004882e-05, 0.322265625) (-1.846723175048828e-05, 0.32421875) (-3.0192516326904295e-05, 0.326171875) (-4.448481750488281e-05, 0.328125) (-5.861942672729492e-05, 0.330078125) (-6.792377471923827e-05, 0.33203125) (-7.058382415771484e-05, 0.333984375) (-6.796737670898437e-05, 0.3359375) (-6.172113418579102e-05, 0.337890625) (-5.408345794677734e-05, 0.33984375) (-4.6884078979492184e-05, 0.341796875) (-4.083407592773437e-05, 0.34375) (-3.652369689941406e-05, 0.345703125) (-3.4294811248779295e-05, 0.34765625) (-3.404649353027344e-05, 0.349609375) (-3.555921554565429e-05, 0.3515625) (-3.839696884155273e-05, 0.353515625) (-4.1891376495361325e-05, 0.35546875) (-4.540171813964844e-05, 0.357421875) (-4.855290603637695e-05, 0.359375) (-5.112152862548828e-05, 0.361328125) (-5.3024894714355466e-05, 0.36328125) (-5.431300354003906e-05, 0.365234375) (-5.4990787506103514e-05, 0.3671875) (-5.507479858398437e-05, 0.369140625) (-5.463739776611328e-05, 0.37109375) (-5.374941253662109e-05, 0.373046875) (-5.245610809326172e-05, 0.375) (-5.077541351318359e-05, 0.376953125) (-4.869355392456055e-05, 0.37890625) (-4.6193298339843745e-05, 0.380859375) (-4.329768371582031e-05, 0.3828125) (-4.005888366699219e-05, 0.384765625) (-3.654288101196289e-05, 0.38671875) (-3.2803520202636715e-05, 0.388671875) (-2.886673927307129e-05, 0.390625) (-2.474873924255371e-05, 0.392578125) (-2.0459810256958006e-05, 0.39453125) (-1.6008819580078124e-05, 0.396484375) (-1.1408477783203124e-05, 0.3984375) (-6.663709163665771e-06, 0.400390625) (-1.7744747400283813e-06, 0.40234375) (3.2499442100524903e-06, 0.404296875) (8.396281242370605e-06, 0.40625) (1.3648611068725585e-05, 0.408203125) (1.898585510253906e-05, 0.41015625) (2.4393402099609375e-05, 0.412109375) (2.9863563537597655e-05, 0.4140625) (3.539059448242187e-05, 0.416015625) (4.0973659515380854e-05, 0.41796875) (4.661050033569336e-05, 0.419921875) (5.2289985656738276e-05, 0.421875) (5.799636840820312e-05, 0.423828125) (6.37109603881836e-05, 0.42578125) (6.941073608398438e-05, 0.427734375) (7.507232666015624e-05, 0.4296875) (8.067029571533202e-05, 0.431640625) (8.617520141601561e-05, 0.43359375) (9.155973815917968e-05, 0.435546875) (9.679942321777343e-05, 0.4375) (0.00010187100219726562, 0.439453125) (0.00010675343322753906, 0.44140625) (0.00011142556762695312, 0.443359375) (0.00011586492156982421, 0.4453125) (0.00012004971313476562, 0.447265625) (0.00012395899963378907, 0.44921875) (0.00012757108306884766, 0.451171875) (0.00013086495971679688, 0.453125) (0.00013382041931152343, 0.455078125) (0.0001364175567626953, 0.45703125) (0.00013863867187499998, 0.458984375) (0.0001404682922363281, 0.4609375) (0.00014189257812499998, 0.462890625) (0.00014289996337890623, 0.46484375) (0.00014348114013671873, 0.466796875) (0.00014362881469726562, 0.46875) (0.0001433380584716797, 0.470703125) (0.00014260673522949218, 0.47265625) (0.00014143457031249999, 0.474609375) (0.0001398231658935547, 0.4765625) (0.0001377760009765625, 0.478515625) (0.00013529843139648438, 0.48046875) (0.00013239804077148438, 0.482421875) (0.00012908497619628905, 0.484375) (0.0001253715362548828, 0.486328125) (0.00012127183532714843, 0.48828125) (0.00011680209350585937, 0.490234375) (0.00011198078155517577, 0.4921875) (0.00010682882690429687, 0.494140625) (0.00010136941528320311, 0.49609375) (9.562705230712891e-05, 0.498046875) (8.962740325927734e-05, 0.5) (8.3397216796875e-05, 0.501953125) (7.696451568603515e-05, 0.50390625) (7.035879516601563e-05, 0.505859375) (6.361054992675781e-05, 0.5078125) (5.6750236511230465e-05, 0.509765625) (4.9808357238769526e-05, 0.51171875) (4.281632232666015e-05, 0.513671875) (3.580640411376953e-05, 0.515625) (2.8811662673950194e-05, 0.517578125) (2.1865478515625e-05, 0.51953125) (1.5000043869018554e-05, 0.521484375) (8.246105194091797e-06, 0.5234375) (1.6340634822845457e-06, 0.525390625) (-4.8060388565063476e-06, 0.52734375) (-1.1046073913574218e-05, 0.529296875) (-1.7060283660888672e-05, 0.53125) (-2.2826534271240233e-05, 0.533203125) (-2.832638168334961e-05, 0.53515625) (-3.35422248840332e-05, 0.537109375) (-3.845690155029297e-05, 0.5390625) (-4.305538177490234e-05, 0.541015625) (-4.732601928710937e-05, 0.54296875) (-5.125995254516601e-05, 0.544921875) (-5.485047531127929e-05, 0.546875) (-5.8090606689453125e-05, 0.548828125) (-6.097222900390625e-05, 0.55078125) (-6.349068450927733e-05, 0.552734375) (-6.56464614868164e-05, 0.5546875) (-6.744493103027344e-05, 0.556640625) (-6.889451599121093e-05, 0.55859375) (-7.00032958984375e-05, 0.560546875) (-7.077980804443359e-05, 0.5625) (-7.123601531982422e-05, 0.564453125) (-7.138938903808593e-05, 0.56640625) (-7.126170349121093e-05, 0.568359375) (-7.087559509277344e-05, 0.5703125) (-7.024739837646484e-05, 0.572265625) (-6.938728332519531e-05, 0.57421875) (-6.831135559082032e-05, 0.576171875) (-6.704090881347656e-05, 0.578125) (-6.560519409179687e-05, 0.580078125) (-6.404209899902344e-05, 0.58203125) (-6.237734985351563e-05, 0.583984375) (-6.0624992370605464e-05, 0.5859375) (-5.880171966552734e-05, 0.587890625) (-5.6925884246826166e-05, 0.58984375) (-5.501305770874023e-05, 0.591796875) (-5.307331085205078e-05, 0.59375) (-5.109440231323242e-05, 0.595703125) (-4.903766632080078e-05, 0.59765625) (-4.6868576049804685e-05, 0.599609375) (-4.456455993652343e-05, 0.6015625) (-4.211813354492187e-05, 0.603515625) (-3.953791046142578e-05, 0.60546875) (-3.681648635864258e-05, 0.607421875) (-3.3936897277832027e-05, 0.609375) (-3.0884986877441405e-05, 0.611328125) (-2.7643054962158203e-05, 0.61328125) (-2.4222974777221678e-05, 0.615234375) (-2.06591796875e-05, 0.6171875) (-1.6970077514648436e-05, 0.619140625) (-1.3175065994262694e-05, 0.62109375) (-9.320524215698242e-06, 0.623046875) (-5.474198818206787e-06, 0.625) (-1.7514090538024902e-06, 0.626953125) (1.669875144958496e-06, 0.62890625) (4.62818956375122e-06, 0.630859375) (6.993193626403808e-06, 0.6328125) (8.642757415771484e-06, 0.634765625) (9.50969123840332e-06, 0.63671875) (9.54243564605713e-06, 0.638671875) (8.670930862426757e-06, 0.640625) (6.8455224037170405e-06, 0.642578125) (4.019267082214356e-06, 0.64453125) (1.7285966873168944e-07, 0.646484375) (-4.662005424499511e-06, 0.6484375) (-1.0421991348266602e-05, 0.650390625) (-1.7049802780151367e-05, 0.65234375) (-2.4484245300292968e-05, 0.654296875) (-3.25121955871582e-05, 0.65625) (-4.0742092132568356e-05, 0.658203125) (-4.8538597106933595e-05, 0.66015625) (-5.507257843017578e-05, 0.662109375) (-5.956217956542969e-05, 0.6640625) (-6.139679718017577e-05, 0.666015625) (-6.015837097167969e-05, 0.66796875) (-5.549172973632812e-05, 0.669921875) (-4.7426029205322266e-05, 0.671875) (-3.6431549072265625e-05, 0.673828125) (-2.334979248046875e-05, 0.67578125) (-9.69145393371582e-06, 0.677734375) (2.874375343322754e-06, 0.6796875) (1.3109281539916991e-05, 0.681640625) (2.0275922775268555e-05, 0.68359375) (2.4098108291625977e-05, 0.685546875) (2.536485481262207e-05, 0.6875) (2.56940860748291e-05, 0.689453125) (2.6919818878173828e-05, 0.69140625) (3.220712661743164e-05, 0.693359375) (4.5431594848632814e-05, 0.6953125) (6.985511016845703e-05, 0.697265625) (0.0001086500015258789, 0.69921875) (0.0001624820861816406, 0.701171875) (0.00022766461181640625, 0.703125) (0.00030003137207031247, 0.705078125) (0.0003752645874023437, 0.70703125) (0.00045074786376953126, 0.708984375) (0.0005295319824218749, 0.7109375) (0.000611785888671875, 0.712890625) (0.0006905046997070312, 0.71484375) (0.0007544569091796875, 0.716796875) (0.0007840549926757813, 0.71875) (0.0007598026733398437, 0.720703125) (0.0006758097534179687, 0.72265625) (0.0005316616821289062, 0.724609375) (0.00033517431640625, 0.7265625) (0.00011016354370117188, 0.728515625) (-0.00012039651489257812, 0.73046875) (-0.00032816418457031247, 0.732421875) (-0.0004784976196289062, 0.734375) (-0.0005579176635742187, 0.736328125) (-0.0005687354125976562, 0.73828125) (-0.0005260904541015625, 0.740234375) (-0.0004622135009765625, 0.7421875) (-0.00040146664428710935, 0.744140625) (-0.00035203659057617186, 0.74609375) (-0.0003158757629394531, 0.748046875) (-0.0002862410888671875, 0.75) (-0.0002531078491210937, 0.751953125) (-0.00021535249328613281, 0.75390625) (-0.00017366006469726563, 0.755859375) (-0.0001287147216796875, 0.7578125) (-8.742233276367187e-05, 0.759765625) (-5.357397842407226e-05, 0.76171875) (-2.802411651611328e-05, 0.763671875) (-1.215180492401123e-05, 0.765625) (-3.1277394294738767e-06, 0.767578125) (1.1249924898147582e-06, 0.76953125) (2.9979920387268067e-07, 0.771484375) (-5.076303482055664e-06, 0.7734375) (-1.4654144287109374e-05, 0.775390625) (-2.719757843017578e-05, 0.77734375) (-4.041688156127929e-05, 0.779296875) (-5.3134555816650385e-05, 0.78125) (-6.513042449951172e-05, 0.783203125) (-7.612774658203125e-05, 0.78515625) (-8.59205322265625e-05, 0.787109375) (-9.433438110351562e-05, 0.7890625) (-0.00010128350830078124, 0.791015625) (-0.00010755291748046874, 0.79296875) (-0.00011433313751220703, 0.794921875) (-0.00012210217285156248, 0.796875) (-0.00013088786315917968, 0.798828125) (-0.00014050804138183594, 0.80078125) (-0.00015059233093261718, 0.802734375) (-0.00016091983032226562, 0.8046875) (-0.00017127040100097654, 0.806640625) (-0.00018109031677246093, 0.80859375) (-0.0001896983642578125, 0.810546875) (-0.00019669747924804686, 0.8125) (-0.00020193301391601562, 0.814453125) (-0.00020546200561523436, 0.81640625) (-0.00020748458862304686, 0.818359375) (-0.00020812176513671874, 0.8203125) (-0.00020750256347656248, 0.822265625) (-0.00020583407592773438, 0.82421875) (-0.0002033897705078125, 0.826171875) (-0.00020045852661132812, 0.828125) (-0.00019722206115722654, 0.830078125) (-0.00019377201843261718, 0.83203125) (-0.0001901549377441406, 0.833984375) (-0.00018642150878906249, 0.8359375) (-0.00018266436767578123, 0.837890625) (-0.0001789793701171875, 0.83984375) (-0.00017542254638671875, 0.841796875) (-0.00017200502014160155, 0.84375) (-0.0001687327880859375, 0.845703125) (-0.0001656080322265625, 0.84765625) (-0.00016263804626464844, 0.849609375) (-0.00015983177185058592, 0.8515625) (-0.00015715283203125, 0.853515625) (-0.00015454791259765624, 0.85546875) (-0.00015195513916015625, 0.857421875) (-0.00014930136108398437, 0.859375) (-0.00014654933166503904, 0.861328125) (-0.00014368470764160155, 0.86328125) (-0.0001406944580078125, 0.865234375) (-0.00013757440185546875, 0.8671875) (-0.0001343238830566406, 0.869140625) (-0.00013094354248046873, 0.87109375) (-0.00012745130157470702, 0.873046875) (-0.0001238807678222656, 0.875) (-0.00012025365447998047, 0.876953125) (-0.00011658589172363281, 0.87890625) (-0.00011289218139648437, 0.880859375) (-0.00010918304443359374, 0.8828125) (-0.00010548133850097656, 0.884765625) (-0.000101815673828125, 0.88671875) (-9.821179962158203e-05, 0.888671875) (-9.469589233398437e-05, 0.890625) (-9.129118347167968e-05, 0.892578125) (-8.801782989501952e-05, 0.89453125) (-8.489684295654297e-05, 0.896484375) (-8.194769287109374e-05, 0.8984375) (-7.918406677246094e-05, 0.900390625) (-7.661769104003906e-05, 0.90234375) (-7.425774383544921e-05, 0.904296875) (-7.211013793945313e-05, 0.90625) (-7.018431091308593e-05, 0.908203125) (-6.849151611328124e-05, 0.91015625) (-6.704225158691406e-05, 0.912109375) (-6.584808349609374e-05, 0.9140625) (-6.49200439453125e-05, 0.916015625) (-6.426802062988281e-05, 0.91796875) (-6.390245819091797e-05, 0.919921875) (-6.383349990844726e-05, 0.921875) (-6.406825256347656e-05, 0.923828125) (-6.461186981201172e-05, 0.92578125) (-6.546798706054687e-05, 0.927734375) (-6.663835906982422e-05, 0.9296875) (-6.812415313720703e-05, 0.931640625) (-6.992555236816406e-05, 0.93359375) (-7.204095458984374e-05, 0.935546875) (-7.446748352050782e-05, 0.9375) (-7.72015151977539e-05, 0.939453125) (-8.023815155029297e-05, 0.94140625) (-8.357113647460937e-05, 0.943359375) (-8.719267272949218e-05, 0.9453125) (-9.109300994873047e-05, 0.947265625) (-9.526088714599609e-05, 0.94921875) (-9.968390655517578e-05, 0.951171875) (-0.0001043482437133789, 0.953125) (-0.00010923844909667968, 0.955078125) (-0.00011433779907226562, 0.95703125) (-0.0001196285400390625, 0.958984375) (-0.00012509213256835938, 0.9609375) (-0.00013070977783203125, 0.962890625) (-0.00013646189880371092, 0.96484375) (-0.00014232798767089844, 0.966796875) (-0.0001482870635986328, 0.96875) (-0.00015431741333007812, 0.970703125) (-0.0001603970489501953, 0.97265625) (-0.0001665037841796875, 0.974609375) (-0.0001726153564453125, 0.9765625) (-0.00017870936584472654, 0.978515625) (-0.00018476385498046875, 0.98046875) (-0.00019075730895996092, 0.982421875) (-0.00019666874694824219, 0.984375) (-0.00020247848510742187, 0.986328125) (-0.00020816783142089842, 0.98828125) (-0.00021371928405761718, 0.990234375) (-0.00021911654663085936, 0.9921875) (-0.0002243443145751953, 0.994140625) (-0.0002293885040283203, 0.99609375) (-0.00023423637390136717, 0.998046875) (-0.00023887652587890624, 1.0) (-0.000243298828125, 1.001953125) (-0.0002474948425292969, 1.00390625) (-0.00025145782470703125, 1.005859375) (-0.0002551826934814453, 1.0078125) (-0.00025866629028320313, 1.009765625) (-0.0002619069213867187, 1.01171875) (-0.00026490435791015626, 1.013671875) (-0.000267660400390625, 1.015625) (-0.00027017828369140624, 1.017578125) (-0.0002724627685546875, 1.01953125) (-0.000274519287109375, 1.021484375) (-0.00027635443115234373, 1.0234375) (-0.0002779755554199219, 1.025390625) (-0.0002793917846679687, 1.02734375) (-0.0002806134033203125, 1.029296875) (-0.0002816514892578125, 1.03125) (-0.0002825177612304687, 1.033203125) (-0.00028322454833984374, 1.03515625) (-0.00028378497314453124, 1.037109375) (-0.0002842129516601562, 1.0390625) (-0.0002845222473144531, 1.041015625) (-0.0002847261962890625, 1.04296875) (-0.0002848375244140625, 1.044921875) (-0.0002848685302734375, 1.046875) (-0.00028483123779296873, 1.048828125) (-0.00028473748779296875, 1.05078125) (-0.00028459802246093746, 1.052734375) (-0.00028442269897460936, 1.0546875) (-0.00028422100830078126, 1.056640625) (-0.00028400180053710935, 1.05859375) (-0.00028377392578124997, 1.060546875) (-0.0002835460510253906, 1.0625) (-0.00028332608032226563, 1.064453125) (-0.0002831204528808594, 1.06640625) (-0.00028293450927734375, 1.068359375) (-0.0002827725219726562, 1.0703125) (-0.00028263790893554686, 1.072265625) (-0.00028253369140625, 1.07421875) (-0.000282462158203125, 1.076171875) (-0.00028242367553710934, 1.078125) (-0.0002824173583984375, 1.080078125) (-0.0002824431457519531, 1.08203125) (-0.00028250219726562496, 1.083984375) (-0.000282596923828125, 1.0859375) (-0.00028273043823242184, 1.087890625) (-0.00028290423583984375, 1.08984375) (-0.0002831180725097656, 1.091796875) (-0.0002833724975585937, 1.09375) (-0.000283668701171875, 1.095703125) (-0.00028400640869140624, 1.09765625) (-0.00028438229370117185, 1.099609375) (-0.00028478939819335934, 1.1015625) (-0.0002852188720703125, 1.103515625) (-0.00028566473388671874, 1.10546875) (-0.0002861242065429687, 1.107421875) (-0.000286596435546875, 1.109375) (-0.00028708038330078125, 1.111328125) (-0.00028757293701171875, 1.11328125) (-0.0002880721435546875, 1.115234375) (-0.00028857861328125, 1.1171875) (-0.0002890929565429687, 1.119140625) (-0.00028961267089843746, 1.12109375) (-0.00029013354492187497, 1.123046875) (-0.000290645263671875, 1.125) (-0.00029113470458984374, 1.126953125) (-0.0002915989990234375, 1.12890625) (-0.00029203924560546876, 1.130859375) (-0.0002924638671875, 1.1328125) (-0.0002928914794921875, 1.134765625) (-0.00029333306884765626, 1.13671875) (-0.00029379095458984374, 1.138671875) (-0.0002942661437988281, 1.140625) (-0.00029475750732421875, 1.142578125) (-0.00029525457763671873, 1.14453125) (-0.00029574194335937496, 1.146484375) (-0.000296188232421875, 1.1484375) (-0.0002965457763671875, 1.150390625) (-0.00029678167724609376, 1.15234375) (-0.0002968631896972656, 1.154296875) (-0.00029676388549804687, 1.15625) (-0.0002964674072265625, 1.158203125) (-0.0002959377746582031, 1.16015625) (-0.00029514697265625, 1.162109375) (-0.00029406747436523434, 1.1640625) (-0.0002926522216796875, 1.166015625) (-0.00029086141967773436, 1.16796875) (-0.0002886833801269531, 1.169921875) (-0.0002861259765625, 1.171875) (-0.00028321481323242184, 1.173828125) (-0.0002800133056640625, 1.17578125) (-0.00027655706787109376, 1.177734375) (-0.00027288616943359374, 1.1796875) (-0.00026910980224609374, 1.181640625) (-0.0002653389892578125, 1.18359375) (-0.00026172454833984376, 1.185546875) (-0.00025843527221679685, 1.1875) (-0.00025559564208984376, 1.189453125) (-0.00025330889892578125, 1.19140625) (-0.00025170565795898435, 1.193359375) (-0.0002509820861816406, 1.1953125) (-0.0002512446899414062, 1.197265625) (-0.00025244297790527343, 1.19921875) (-0.00025428463745117184, 1.201171875) (-0.00025619763183593747, 1.203125) (-0.000257630615234375, 1.205078125) (-0.00025821597290039063, 1.20703125) (-0.0002576381530761719, 1.208984375) (-0.0002554315185546875, 1.2109375) (-0.00025132940673828124, 1.212890625) (-0.0002455360260009766, 1.21484375) (-0.00023876300048828123, 1.216796875) (-0.00023244728088378904, 1.21875) (-0.00022801153564453125, 1.220703125) (-0.00022612799072265624, 1.22265625) (-0.00022721189880371093, 1.224609375) (-0.00023182546997070313, 1.2265625) (-0.00024003199768066406, 1.228515625) (-0.0002509818115234375, 1.23046875) (-0.0002628070373535156, 1.232421875) (-0.00027217718505859374, 1.234375) (-0.0002754998779296875, 1.236328125) (-0.0002704796142578125, 1.23828125) (-0.0002549391784667969, 1.240234375) (-0.00022611549377441406, 1.2421875) (-0.00018165000915527343, 1.244140625) (-0.00011972699737548828, 1.24609375) (-4.2137924194335935e-05, 1.248046875) (4.444521331787109e-05, 1.25) (0.00013331013488769532, 1.251953125) (0.0002188511047363281, 1.25390625) (0.00030227313232421873, 1.255859375) (0.00039215966796874997, 1.2578125) (0.000489635986328125, 1.259765625) (0.0005891727294921875, 1.26171875) (0.0006731107177734375, 1.263671875) (0.0007088709106445313, 1.265625) (0.00067786962890625, 1.267578125) (0.0005750386962890625, 1.26953125) (0.00040794003295898437, 1.271484375) (0.000207682861328125, 1.2734375) (1.4208755493164061e-06, 1.275390625) (-0.00018971543884277342, 1.27734375) (-0.00034190344238281247, 1.279296875) (-0.0004457297973632812, 1.28125) (-0.0004996148681640625, 1.283203125) (-0.000506914794921875, 1.28515625) (-0.0004852705078125, 1.287109375) (-0.00045330517578125, 1.2890625) (-0.0004206885986328125, 1.291015625) (-0.0003922509765625, 1.29296875) (-0.00036538287353515624, 1.294921875) (-0.00033456918334960937, 1.296875) (-0.00030117681884765624, 1.298828125) (-0.00026869671630859373, 1.30078125) (-0.00024049166870117187, 1.302734375) (-0.00022071420288085936, 1.3046875) (-0.00021022174072265624, 1.306640625) (-0.00020773202514648436, 1.30859375) (-0.00021162460327148435, 1.310546875) (-0.000218770263671875, 1.3125) (-0.00022577732849121093, 1.314453125) (-0.00023108969116210937, 1.31640625) (-0.0002341893615722656, 1.318359375) (-0.00023491915893554687, 1.3203125) (-0.00023340306091308594, 1.322265625) (-0.00022934854125976562, 1.32421875) (-0.00022272064208984373, 1.326171875) (-0.00021459265136718748, 1.328125) (-0.00020664089965820312, 1.330078125) (-0.00019994419860839844, 1.33203125) (-0.0001948964385986328, 1.333984375) (-0.0001914489288330078, 1.3359375) (-0.00018935061645507811, 1.337890625) (-0.00018871463012695312, 1.33984375) (-0.00018962986755371094, 1.341796875) (-0.00019172705078125, 1.34375) (-0.00019432167053222654, 1.345703125) (-0.00019676139831542968, 1.34765625) (-0.00019865451049804687, 1.349609375) (-0.00019990051269531248, 1.3515625) (-0.00020056005859375, 1.353515625) (-0.00020060491943359375, 1.35546875) (-0.00019996067810058594, 1.357421875) (-0.0001986076965332031, 1.359375) (-0.00019660003662109375, 1.361328125) (-0.0001940640411376953, 1.36328125) (-0.00019111318969726562, 1.365234375) (-0.0001878068389892578, 1.3671875) (-0.00018415769958496093, 1.369140625) (-0.00018017236328124998, 1.37109375) (-0.00017589561462402344, 1.373046875) (-0.0001714034423828125, 1.375) (-0.00016679351806640625, 1.376953125) (-0.00016216648864746092, 1.37890625) (-0.00015758935546875, 1.380859375) (-0.00015309866333007813, 1.3828125) (-0.00014871916198730468, 1.384765625) (-0.00014446688842773437, 1.38671875) (-0.00014035386657714843, 1.388671875) (-0.0001363936004638672, 1.390625) (-0.00013258583068847656, 1.392578125) (-0.00012890884399414061, 1.39453125) (-0.00012534375, 1.396484375) (-0.00012187918090820312, 1.3984375) (-0.0001185093765258789, 1.400390625) (-0.00011523783874511718, 1.40234375) (-0.0001120600357055664, 1.404296875) (-0.00010895829010009765, 1.40625) (-0.00010590975189208984, 1.408203125) (-0.00010289305114746093, 1.41015625) (-9.989472961425781e-05, 1.412109375) (-9.690788269042969e-05, 1.4140625) (-9.392741394042969e-05, 1.416015625) (-9.094747924804687e-05, 1.41796875) (-8.796299743652344e-05, 1.419921875) (-8.497070312499999e-05, 1.421875) (-8.197205352783202e-05, 1.423828125) (-7.897252655029297e-05, 1.42578125) (-7.597494506835937e-05, 1.427734375) (-7.298086547851562e-05, 1.4296875) (-6.999058532714843e-05, 1.431640625) (-6.700243377685547e-05, 1.43359375) (-6.401757049560546e-05, 1.435546875) (-6.104025268554687e-05, 1.4375) (-5.807437133789062e-05, 1.439453125) (-5.512346267700195e-05, 1.44140625) (-5.218997192382812e-05, 1.443359375) (-4.9273902893066404e-05, 1.4453125) (-4.6377105712890624e-05, 1.447265625) (-4.3504035949707026e-05, 1.44921875) (-4.065983200073242e-05, 1.451171875) (-3.785087966918945e-05, 1.453125) (-3.508253479003906e-05, 1.455078125) (-3.235988998413086e-05, 1.45703125) (-2.9691741943359375e-05, 1.458984375) (-2.708890724182129e-05, 1.4609375) (-2.456273651123047e-05, 1.462890625) (-2.212486457824707e-05, 1.46484375) (-1.9779123306274413e-05, 1.466796875) (-1.7523775100708007e-05, 1.46875) (-1.536328125e-05, 1.470703125) (-1.330435848236084e-05, 1.47265625) (-1.1360933303833007e-05, 1.474609375) (-9.556214332580567e-06, 1.4765625) (-7.901405811309814e-06, 1.478515625) (-6.399779319763184e-06, 1.48046875) (-5.060043334960937e-06, 1.482421875) (-3.886584281921387e-06, 1.484375) (-2.876707077026367e-06, 1.486328125) (-2.0189220905303952e-06, 1.48828125) (-1.2716834545135497e-06, 1.490234375) (-5.749242305755615e-07, 1.4921875) (1.1988094449043273e-07, 1.494140625) (8.537689447402953e-07, 1.49609375) (1.6490275859832763e-06, 1.498046875) (2.516862154006958e-06, 1.5) (3.4893081188201903e-06, 1.501953125) (4.600305557250976e-06, 1.50390625) (5.883905410766602e-06, 1.505859375) (7.379614830017089e-06, 1.5078125) (9.093938827514649e-06, 1.509765625) (1.1022562026977538e-05, 1.51171875) (1.318549346923828e-05, 1.513671875) (1.5581842422485352e-05, 1.515625) (1.8173721313476563e-05, 1.517578125) (2.088491439819336e-05, 1.51953125) (2.3556056976318357e-05, 1.521484375) (2.599859619140625e-05, 1.5234375) (2.806861114501953e-05, 1.525390625) (2.9651317596435544e-05, 1.52734375) (3.067505645751953e-05, 1.529296875) (3.107046508789062e-05, 1.53125) (3.072273063659668e-05, 1.533203125) (2.9528539657592772e-05, 1.53515625) (2.739229393005371e-05, 1.537109375) (2.424390411376953e-05, 1.5390625) (2.011531066894531e-05, 1.541015625) (1.4988269805908202e-05, 1.54296875) (8.76226234436035e-06, 1.544921875) (1.5310680866241454e-06, 1.546875) (-6.4320349693298335e-06, 1.548828125) (-1.4609794616699217e-05, 1.55078125) (-2.213490295410156e-05, 1.552734375) (-2.824050521850586e-05, 1.5546875) (-3.240525817871093e-05, 1.556640625) (-3.4030410766601564e-05, 1.55859375) (-3.265282821655273e-05, 1.560546875) (-2.8187421798706053e-05, 1.5625) (-2.0774890899658202e-05, 1.564453125) (-1.1295421600341797e-05, 1.56640625) (-1.2186157703399657e-06, 1.568359375) (8.3397798538208e-06, 1.5703125) (1.6408107757568357e-05, 1.572265625) (2.2169567108154295e-05, 1.57421875) (2.555490493774414e-05, 1.576171875) (2.6945053100585937e-05, 1.578125) (2.7277795791625976e-05, 1.580078125) (2.904229736328125e-05, 1.58203125) (3.522593688964844e-05, 1.583984375) (4.836609649658203e-05, 1.5859375) (7.149781799316406e-05, 1.587890625) (0.00010718543243408203, 1.58984375) (0.0001568957824707031, 1.591796875) (0.00022202267456054688, 1.59375) (0.0003007280578613281, 1.595703125) (0.0003867086791992187, 1.59765625) (0.00047406414794921875, 1.599609375) (0.0005567913818359375, 1.6015625) (0.0006331571044921874, 1.603515625) (0.0007080570068359374, 1.60546875) (0.0007806102294921875, 1.607421875) (0.0008440323486328125, 1.609375) (0.0008844133911132812, 1.611328125) (0.0008803380126953125, 1.61328125) (0.0008208081665039062, 1.615234375) (0.0007075828857421875, 1.6171875) (0.0005506152343749999, 1.619140625) (0.0003679602661132812, 1.62109375) (0.00017745565795898436, 1.623046875) (-6.604629516601562e-06, 1.625) (-0.00016690731811523437, 1.626953125) (-0.0002837378845214844, 1.62890625) (-0.00034563867187499997, 1.630859375) (-0.0003486273193359375, 1.6328125) (-0.0002986813354492187, 1.634765625) (-0.0002149657745361328, 1.63671875) (-0.00011498898315429687, 1.638671875) (-1.4288963317871093e-05, 1.640625) (7.100859069824219e-05, 1.642578125) (0.0001329827880859375, 1.64453125) (0.00016844073486328124, 1.646484375) (0.00017992013549804686, 1.6484375) (0.00017885028076171873, 1.650390625) (0.00017525584411621093, 1.65234375) (0.0001740987854003906, 1.654296875) (0.00017545510864257812, 1.65625) (0.00017360507202148436, 1.658203125) (0.00016520153808593748, 1.66015625) (0.0001516776885986328, 1.662109375) (0.00013646969604492188, 1.6640625) (0.00012483055114746093, 1.666015625) (0.00011959571838378906, 1.66796875) (0.00012042567443847656, 1.669921875) (0.0001261731719970703, 1.671875) (0.00013503823852539063, 1.673828125) (0.00014522080993652344, 1.67578125) (0.00015540565490722655, 1.677734375) (0.00016459512329101563, 1.6796875) (0.00017192550659179688, 1.681640625) (0.00017705157470703124, 1.68359375) (0.0001801097869873047, 1.685546875) (0.00018134390258789062, 1.6875) (0.00018121527099609373, 1.689453125) (0.00018039816284179687, 1.69140625) (0.00017955950927734375, 1.693359375) (0.00017913665771484373, 1.6953125) (0.00017939013671874998, 1.697265625) (0.0001803687286376953, 1.69921875) (0.00018196055603027342, 1.701171875) (0.00018412477111816406, 1.703125) (0.00018682444763183593, 1.705078125) (0.00018996263122558594, 1.70703125) (0.0001934342346191406, 1.708984375) (0.00019715573120117187, 1.7109375) (0.00020108262634277343, 1.712890625) (0.0002052182159423828, 1.71484375) (0.00020958106994628905, 1.716796875) (0.0002141480255126953, 1.71875) (0.00021886016845703123, 1.720703125) (0.00022364494323730467, 1.72265625) (0.00022844166564941405, 1.724609375) (0.00023322564697265624, 1.7265625) (0.00023799223327636718, 1.728515625) (0.00024274282836914062, 1.73046875) (0.0002474802551269531, 1.732421875) (0.0002522016754150391, 1.734375) (0.0002569111328125, 1.736328125) (0.0002616246337890625, 1.73828125) (0.000266356689453125, 1.740234375) (0.0002711160888671875, 1.7421875) (0.00027590509033203125, 1.744140625) (0.0002807224426269531, 1.74609375) (0.00028557382202148437, 1.748046875) (0.0002904764404296875, 1.75) (0.00029545361328125, 1.751953125) (0.00030052996826171875, 1.75390625) (0.00030572583007812496, 1.755859375) (0.00031105328369140624, 1.7578125) (0.00031652099609375, 1.759765625) (0.00032213543701171873, 1.76171875) (0.0003278997497558594, 1.763671875) (0.00033381475830078126, 1.765625) (0.00033987762451171875, 1.767578125) (0.00034608187866210936, 1.76953125) (0.00035242297363281247, 1.771484375) (0.00035889819335937497, 1.7734375) (0.0003655044250488281, 1.775390625) (0.00037223837280273437, 1.77734375) (0.0003790940246582031, 1.779296875) (0.0003860621643066406, 1.78125) (0.0003931323547363281, 1.783203125) (0.00040029254150390623, 1.78515625) (0.0004075279846191406, 1.787109375) (0.00041482177734375, 1.7890625) (0.0004221556396484375, 1.791015625) (0.0004295103149414062, 1.79296875) (0.0004368667297363281, 1.794921875) (0.00044420568847656247, 1.796875) (0.00045150640869140625, 1.798828125) (0.00045874713134765624, 1.80078125) (0.00046590570068359374, 1.802734375) (0.0004729603271484375, 1.8046875) (0.00047988830566406246, 1.806640625) (0.0004866648559570312, 1.80859375) (0.0004932630920410156, 1.810546875) (0.0004996543884277344, 1.8125) (0.0005058109130859375, 1.814453125) (0.0005117064819335937, 1.81640625) (0.0005173154296875, 1.818359375) (0.0005226119384765625, 1.8203125) (0.0005275717773437499, 1.822265625) (0.0005321744384765625, 1.82421875) (0.0005364036865234375, 1.826171875) (0.0005402479248046875, 1.828125) (0.000543696533203125, 1.830078125) (0.0005467387084960938, 1.83203125) (0.0005493647460937499, 1.833984375) (0.0005515664672851562, 1.8359375) (0.0005533377685546874, 1.837890625) (0.0005546746826171875, 1.83984375) (0.0005555746459960937, 1.841796875) (0.0005560372924804688, 1.84375) (0.0005560670776367187, 1.845703125) (0.0005556729736328125, 1.84765625) (0.00055487158203125, 1.849609375) (0.0005536865844726562, 1.8515625) (0.000552140380859375, 1.853515625) (0.0005502550048828125, 1.85546875) (0.000548048095703125, 1.857421875) (0.0005455294189453125, 1.859375) (0.0005427161254882813, 1.861328125) (0.0005396334228515624, 1.86328125) (0.0005363086547851562, 1.865234375) (0.000532777099609375, 1.8671875) (0.0005290865478515625, 1.869140625) (0.000525291259765625, 1.87109375) (0.0005214619750976562, 1.873046875) (0.0005176824340820313, 1.875) (0.0005140249023437499, 1.876953125) (0.0005105602416992188, 1.87890625) (0.0005073499145507813, 1.880859375) (0.0005044408569335937, 1.8828125) (0.0005018862915039062, 1.884765625) (0.0004997273559570313, 1.88671875) (0.0004980039978027343, 1.888671875) (0.0004967754516601562, 1.890625) (0.0004960901489257812, 1.892578125) (0.0004959786376953125, 1.89453125) (0.0004964668884277344, 1.896484375) (0.0004975413818359374, 1.8984375) (0.0004991412963867187, 1.900390625) (0.0005012181701660156, 1.90234375) (0.0005036883850097656, 1.904296875) (0.00050643798828125, 1.90625) (0.0005093929138183593, 1.908203125) (0.000512437744140625, 1.91015625) (0.0005154404296875, 1.912109375) (0.0005183092041015625, 1.9140625) (0.0005209354248046875, 1.916015625) (0.0005232337646484375, 1.91796875) (0.000525179931640625, 1.919921875) (0.0005266663818359375, 1.921875) (0.0005275262451171875, 1.923828125) (0.0005277857055664062, 1.92578125) (0.0005276113891601562, 1.927734375) (0.0005273549194335938, 1.9296875) (0.0005276298828125, 1.931640625) (0.00052890380859375, 1.93359375) (0.0005314467163085937, 1.935546875) (0.0005357283935546875, 1.9375) (0.0005423046874999999, 1.939453125) (0.0005513216552734375, 1.94140625) (0.0005625899658203125, 1.943359375) (0.0005754133911132812, 1.9453125) (0.0005884937744140624, 1.947265625) (0.0006009051513671874, 1.94921875) (0.0006123065185546874, 1.951171875) (0.0006221693725585937, 1.953125) (0.0006298710327148437, 1.955078125) (0.0006355349731445312, 1.95703125) (0.0006398820190429687, 1.958984375) (0.0006444521484374999, 1.9609375) (0.000651815673828125, 1.962890625) (0.000664098388671875, 1.96484375) (0.0006825805664062499, 1.966796875) (0.0007088070068359375, 1.96875) (0.0007446788940429687, 1.970703125) (0.0007914166259765624, 1.97265625) (0.0008494724121093749, 1.974609375) (0.0009181085815429687, 1.9765625) (0.0009936200561523438, 1.978515625) (0.00107085302734375, 1.98046875) (0.00114564794921875, 1.982421875) (0.001214289794921875, 1.984375) (0.0012769776611328124, 1.986328125) (0.0013365277099609374, 1.98828125) (0.0013905871582031248, 1.990234375) (0.001430575927734375, 1.9921875) (0.0014400928955078125, 1.994140625) (0.0014013454589843748, 1.99609375) (0.001309258056640625, 1.998046875) (0.00117421337890625, 2.0) (0.001017383544921875, 2.001953125) (0.0008597980346679687, 2.00390625) (0.0007103900146484375, 2.005859375) (0.0005667955322265624, 2.0078125) (0.0004261263427734375, 2.009765625) (0.00029450994873046873, 2.01171875) (0.00018931942749023437, 2.013671875) (0.000130185791015625, 2.015625) (0.0001271898956298828, 2.017578125) (0.00017456634521484374, 2.01953125) (0.00025197799682617186, 2.021484375) (0.00033815216064453124, 2.0234375) (0.000419109375, 2.025390625) (0.0004888134765625, 2.02734375) (0.0005500358276367187, 2.029296875) (0.0006046614379882812, 2.03125) (0.0006494517211914062, 2.033203125) (0.0006809771728515624, 2.03515625) (0.0006961661987304687, 2.037109375) (0.000694576416015625, 2.0390625) (0.0006798994750976562, 2.041015625) (0.0006570308837890625, 2.04296875) (0.0006298074951171875, 2.044921875) (0.0006018695068359375, 2.046875) (0.0005770148315429687, 2.048828125) (0.0005575108032226562, 2.05078125) (0.0005444772338867187, 2.052734375) (0.0005382598266601563, 2.0546875) (0.00053773583984375, 2.056640625) (0.0005412371826171875, 2.05859375) (0.0005476226806640624, 2.060546875) (0.0005554002685546874, 2.0625) (0.0005626565551757812, 2.064453125) (0.0005683887329101563, 2.06640625) (0.0005721083984375, 2.068359375) (0.0005736527099609375, 2.0703125) (0.0005735897216796875, 2.072265625) (0.00057251318359375, 2.07421875) (0.0005707584228515625, 2.076171875) (0.0005688591918945312, 2.078125) (0.0005674287719726562, 2.080078125) (0.000566733642578125, 2.08203125) (0.000566899169921875, 2.083984375) (0.000567922119140625, 2.0859375) (0.0005695565795898437, 2.087890625) (0.0005716361083984375, 2.08984375) (0.0005740750732421874, 2.091796875) (0.000576728759765625, 2.09375) (0.000579476806640625, 2.095703125) (0.000582232421875, 2.09765625) (0.0005849055175781249, 2.099609375) (0.0005874354248046875, 2.1015625) (0.0005897929687499999, 2.103515625) (0.0005919406127929687, 2.10546875) (0.0005938449096679687, 2.107421875) (0.0005954831542968749, 2.109375) (0.0005968319091796875, 2.111328125) (0.0005978828125, 2.11328125) (0.0005986364135742188, 2.115234375) (0.000599096435546875, 2.1171875) (0.0005992737426757812, 2.119140625) (0.000599167724609375, 2.12109375) (0.0005987717895507812, 2.123046875) (0.00059807666015625, 2.125) (0.000597066162109375, 2.126953125) (0.000595732421875, 2.12890625) (0.000594074951171875, 2.130859375) (0.0005920960083007812, 2.1328125) (0.0005898009033203125, 2.134765625) (0.0005871927490234375, 2.13671875) (0.0005842718505859374, 2.138671875) (0.0005810403442382812, 2.140625) (0.0005775018310546874, 2.142578125) (0.00057365478515625, 2.14453125) (0.0005694944458007812, 2.146484375) (0.0005650120239257812, 2.1484375) (0.00056019580078125, 2.150390625) (0.0005550399169921875, 2.15234375) (0.0005495428466796875, 2.154296875) (0.0005437029418945312, 2.15625) (0.000537520263671875, 2.158203125) (0.0005309928588867187, 2.16015625) (0.0005241171264648437, 2.162109375) (0.0005168906860351562, 2.1640625) (0.0005093108825683593, 2.166015625) (0.0005013720092773437, 2.16796875) (0.0004930668334960938, 2.169921875) (0.00048438656616210933, 2.171875) (0.0004753215942382812, 2.173828125) (0.00046586437988281246, 2.17578125) (0.00045600830078125, 2.177734375) (0.00044574768066406247, 2.1796875) (0.00043507818603515623, 2.181640625) (0.00042399609375, 2.18359375) (0.0004124989624023437, 2.185546875) (0.000400586181640625, 2.1875) (0.00038825802612304686, 2.189453125) (0.0003755156555175781, 2.19140625) (0.00036236163330078124, 2.193359375) (0.0003487991943359375, 2.1953125) (0.0003348326416015625, 2.197265625) (0.00032046826171875, 2.19921875) (0.00030571405029296874, 2.201171875) (0.00029057992553710937, 2.203125) (0.0002750779418945312, 2.205078125) (0.0002592218017578125, 2.20703125) (0.0002430267333984375, 2.208984375) (0.00022651036071777344, 2.2109375) (0.0002096923828125, 2.212890625) (0.00019259396362304685, 2.21484375) (0.00017523770141601562, 2.216796875) (0.00015764710998535155, 2.21875) (0.00013984672546386718, 2.220703125) (0.00012186270904541015, 2.22265625) (0.00010372244262695312, 2.224609375) (8.545452880859374e-05, 2.2265625) (6.708918762207031e-05, 2.228515625) (4.865781784057617e-05, 2.23046875) (3.0192993164062497e-05, 2.232421875) (1.1728643417358398e-05, 2.234375) (-6.700891494750976e-06, 2.236328125) (-2.5061370849609372e-05, 2.23828125) (-4.331797409057617e-05, 2.240234375) (-6.143622207641601e-05, 2.2421875) (-7.93838882446289e-05, 2.244140625) (-9.713001251220702e-05, 2.24609375) (-0.00011464527893066406, 2.248046875) (-0.0001319028625488281, 2.25) (-0.0001488760986328125, 2.251953125) (-0.00016553945922851562, 2.25390625) (-0.00018187030029296873, 2.255859375) (-0.0001978472137451172, 2.2578125) (-0.00021344834899902343, 2.259765625) (-0.00022865252685546874, 2.26171875) (-0.00024343881225585937, 2.263671875) (-0.000257786865234375, 2.265625) (-0.00027168038940429684, 2.267578125) (-0.0002851057739257812, 2.26953125) (-0.00029805084228515623, 2.271484375) (-0.0003105072021484375, 2.2734375) (-0.0003224703674316406, 2.275390625) (-0.00033393933105468746, 2.27734375) (-0.0003449171142578125, 2.279296875) (-0.00035540740966796873, 2.28125) (-0.00036541293334960937, 2.283203125) (-0.0003749378662109375, 2.28515625) (-0.00038398413085937496, 2.287109375) (-0.0003925502319335937, 2.2890625) (-0.00040063851928710933, 2.291015625) (-0.0004082534790039062, 2.29296875) (-0.0004154051513671875, 2.294921875) (-0.0004221148986816406, 2.296875) (-0.00042840032958984376, 2.298828125) (-0.0004342725219726562, 2.30078125) (-0.00043974420166015624, 2.302734375) (-0.00044482211303710934, 2.3046875) (-0.0004495018615722656, 2.306640625) (-0.00045377221679687496, 2.30859375) (-0.0004576044006347656, 2.310546875) (-0.0004609536743164062, 2.3125) (-0.00046377972412109375, 2.314453125) (-0.00046604678344726563, 2.31640625) (-0.00046772650146484373, 2.318359375) (-0.0004688128967285156, 2.3203125) (-0.0004693121948242187, 2.322265625) (-0.0004692309875488281, 2.32421875) (-0.0004685720520019531, 2.326171875) (-0.00046732208251953124, 2.328125) (-0.00046547705078125, 2.330078125) (-0.00046306002807617187, 2.33203125) (-0.00046010598754882813, 2.333984375) (-0.00045666073608398436, 2.3359375) (-0.0004527764892578125, 2.337890625) (-0.0004485261535644531, 2.33984375) (-0.00044403411865234375, 2.341796875) (-0.0004394754638671875, 2.34375) (-0.0004350371398925781, 2.345703125) (-0.00043086938476562497, 2.34765625) (-0.0004270767211914062, 2.349609375) (-0.00042372650146484375, 2.3515625) (-0.0004208583374023437, 2.353515625) (-0.00041851947021484374, 2.35546875) (-0.0004167613525390625, 2.357421875) (-0.0004156251220703125, 2.359375) (-0.0004150924682617187, 2.361328125) (-0.00041510894775390625, 2.36328125) (-0.00041562823486328125, 2.365234375) (-0.0004165028076171875, 2.3671875) (-0.00041751135253906247, 2.369140625) (-0.0004182860412597656, 2.37109375) (-0.0004182130432128906, 2.373046875) (-0.000416588134765625, 2.375) (-0.000412787353515625, 2.376953125) (-0.00040633624267578125, 2.37890625) (-0.00039686273193359375, 2.380859375) (-0.0003843768310546875, 2.3828125) (-0.0003692777099609375, 2.384765625) (-0.0003522249755859375, 2.38671875) (-0.0003343834838867187, 2.388671875) (-0.0003171653137207031, 2.390625) (-0.00030174865722656246, 2.392578125) (-0.00028889239501953126, 2.39453125) (-0.00027895233154296876, 2.396484375) (-0.00027134277343749996, 2.3984375) (-0.00026460815429687497, 2.400390625) (-0.000257137451171875, 2.40234375) (-0.00024633721923828124, 2.404296875) (-0.0002285970764160156, 2.40625) (-0.00020067672729492185, 2.408203125) (-0.00016004881286621093, 2.41015625) (-0.00010698448181152344, 2.412109375) (-4.5404930114746095e-05, 2.4140625) (2.072462844848633e-05, 2.416015625) (8.921192932128905e-05, 2.41796875) (0.00016218638610839844, 2.419921875) (0.00024293901062011718, 2.421875) (0.0003277625732421875, 2.423828125) (0.00040440060424804685, 2.42578125) (0.00045209234619140624, 2.427734375) (0.0004515013427734375, 2.4296875) (0.00039587249755859374, 2.431640625) (0.0002918689270019531, 2.43359375) (0.00015577655029296874, 2.435546875) (3.616779327392578e-06, 2.4375) (-0.00015244909667968748, 2.439453125) (-0.000302452392578125, 2.44140625) (-0.000434875732421875, 2.443359375) (-0.00053533642578125, 2.4453125) (-0.0005944446411132812, 2.447265625) (-0.0006127071533203125, 2.44921875) (-0.0006009976806640625, 2.451171875) (-0.00057385791015625, 2.453125) (-0.0005409147949218749, 2.455078125) (-0.0005046358642578125, 2.45703125) (-0.0004615366821289062, 2.458984375) (-0.00040972860717773435, 2.4609375) (-0.00035244384765624996, 2.462890625) (-0.0002952828063964844, 2.46484375) (-0.00024536203002929687, 2.466796875) (-0.00020779641723632812, 2.46875) (-0.00018371572875976563, 2.470703125) (-0.00017241908264160156, 2.47265625) (-0.00017226263427734374, 2.474609375) (-0.00018100576782226563, 2.4765625) (-0.00019610258483886717, 2.478515625) (-0.00021513424682617188, 2.48046875) (-0.00023522441101074217, 2.482421875) (-0.00025297430419921876, 2.484375) (-0.00026634320068359376, 2.486328125) (-0.00027445275878906246, 2.48828125) (-0.00027693881225585937, 2.490234375) (-0.00027441232299804685, 2.4921875) (-0.00026790518188476563, 2.494140625) (-0.00025823480224609376, 2.49609375) (-0.0002467520141601562, 2.498046875) (-0.00023528277587890625, 2.5) (-0.00022483020019531248, 2.501953125) (-0.00021587265014648437, 2.50390625) (-0.00020860488891601562, 2.505859375) (-0.00020260690307617187, 2.5078125) (-0.0001974688262939453, 2.509765625) (-0.0001929678955078125, 2.51171875) (-0.00018862005615234375, 2.513671875) (-0.00018384503173828125, 2.515625) (-0.00017836734008789062, 2.517578125) (-0.0001720405731201172, 2.51953125) (-0.00016486032104492187, 2.521484375) (-0.0001570415802001953, 2.5234375) (-0.00014871041870117186, 2.525390625) (-0.00013992648315429686, 2.52734375) (-0.00013080511474609374, 2.529296875) (-0.00012143497467041015, 2.53125) (-0.00011188431549072265, 2.533203125) (-0.00010222708892822265, 2.53515625) (-9.250775146484375e-05, 2.537109375) (-8.275767517089843e-05, 2.5390625) (-7.302165985107422e-05, 2.541015625) (-6.333971786499023e-05, 2.54296875) (-5.3750885009765625e-05, 2.544921875) (-4.429457092285156e-05, 2.546875) (-3.499416732788086e-05, 2.548828125) (-2.5870874404907226e-05, 2.55078125) (-1.6939519882202146e-05, 2.552734375) (-8.201601028442383e-06, 2.5546875) (3.300387859344482e-07, 2.556640625) (8.636590003967284e-06, 2.55859375) (1.6697196960449218e-05, 2.560546875) (2.4481035232543945e-05, 2.5625) (3.1965728759765624e-05, 2.564453125) (3.9140262603759763e-05, 2.56640625) (4.599613952636718e-05, 2.568359375) (5.252970504760742e-05, 2.5703125) (5.8737854003906245e-05, 2.572265625) (6.461512756347656e-05, 2.57421875) (7.016047668457031e-05, 2.576171875) (7.537673187255859e-05, 2.578125) (8.026254272460937e-05, 2.580078125) (8.481410217285156e-05, 2.58203125) (8.90245361328125e-05, 2.583984375) (9.288381195068359e-05, 2.5859375) (9.638838195800781e-05, 2.587890625) (9.95398941040039e-05, 2.58984375) (0.00010234120178222656, 2.591796875) (0.00010479759216308593, 2.59375) (0.00010691422271728515, 2.595703125) (0.00010869599151611327, 2.59765625) (0.00011015032196044921, 2.599609375) (0.00011128598022460937, 2.6015625) (0.00011211019897460937, 2.603515625) (0.0001126291046142578, 2.60546875) (0.00011284819793701171, 2.607421875) (0.00011277227783203125, 2.609375) (0.00011240777587890624, 2.611328125) (0.00011176237487792969, 2.61328125) (0.0001108438720703125, 2.615234375) (0.00010966008758544922, 2.6171875) (0.00010821865081787108, 2.619140625) (0.00010652716827392578, 2.62109375) (0.00010459342956542969, 2.623046875) (0.000102425048828125, 2.625) (0.00010002896118164063, 2.626953125) (9.741085052490234e-05, 2.62890625) (9.45753402709961e-05, 2.630859375) (9.152641296386718e-05, 2.6328125) (8.826773834228515e-05, 2.634765625) (8.480247497558593e-05, 2.63671875) (8.113307952880858e-05, 2.638671875) (7.726123046874999e-05, 2.640625) (7.318797302246093e-05, 2.642578125) (6.891410827636719e-05, 2.64453125) (6.444023895263672e-05, 2.646484375) (5.9766559600830074e-05, 2.6484375) (5.48924331665039e-05, 2.650390625) (4.981646728515625e-05, 2.65234375) (4.453675079345703e-05, 2.654296875) (3.9051044464111324e-05, 2.65625) (3.3356727600097655e-05, 2.658203125) (2.7450904846191406e-05, 2.66015625) (2.133028221130371e-05, 2.662109375) (1.4991323471069335e-05, 2.6640625) (8.430838584899902e-06, 2.666015625) (1.6460778713226318e-06, 2.66796875) (-5.36543846130371e-06, 2.669921875) (-1.2605865478515624e-05, 2.671875) (-2.007718276977539e-05, 2.673828125) (-2.7781248092651366e-05, 2.67578125) (-3.571955871582031e-05, 2.677734375) (-4.3893180847167965e-05, 2.6796875) (-5.230288696289062e-05, 2.681640625) (-6.094906616210937e-05, 2.68359375) (-6.983162689208984e-05, 2.685546875) (-7.894992065429688e-05, 2.6875) (-8.83024673461914e-05, 2.689453125) (-9.788685607910156e-05, 2.69140625) (-0.00010769979095458984, 2.693359375) (-0.00011773710632324218, 2.6953125) (-0.00012799386596679688, 2.697265625) (-0.00013846435546874998, 2.69921875) (-0.00014914202880859375, 2.701171875) (-0.00016001954650878906, 2.703125) (-0.00017108879089355468, 2.705078125) (-0.00018234085083007812, 2.70703125) (-0.00019376600646972656, 2.708984375) (-0.00020535354614257813, 2.7109375) (-0.00021709190368652344, 2.712890625) (-0.00022896829223632812, 2.71484375) (-0.00024096900939941406, 2.716796875) (-0.00025307945251464844, 2.71875) (-0.0002652840576171875, 2.720703125) (-0.00027756658935546876, 2.72265625) (-0.0002899100646972656, 2.724609375) (-0.000302296875, 2.7265625) (-0.00031470904541015625, 2.728515625) (-0.00032712826538085937, 2.73046875) (-0.00033953576660156247, 2.732421875) (-0.0003519124755859375, 2.734375) (-0.0003642389526367187, 2.736328125) (-0.0003764955139160156, 2.73828125) (-0.000388662353515625, 2.740234375) (-0.0004007194213867187, 2.7421875) (-0.00041264666748046876, 2.744140625) (-0.00042442416381835934, 2.74609375) (-0.0004360321350097656, 2.748046875) (-0.00044745126342773435, 2.75) (-0.00045866265869140625, 2.751953125) (-0.0004696481018066406, 2.75390625) (-0.00048038977050781246, 2.755859375) (-0.0004908706665039062, 2.7578125) (-0.0005010743713378906, 2.759765625) (-0.0005109850463867187, 2.76171875) (-0.000520587890625, 2.763671875) (-0.0005298687744140625, 2.765625) (-0.000538814453125, 2.767578125) (-0.0005474130249023437, 2.76953125) (-0.0005556535034179687, 2.771484375) (-0.0005635265502929687, 2.7734375) (-0.0005710242309570312, 2.775390625) (-0.0005781402587890624, 2.77734375) (-0.0005848698120117187, 2.779296875) (-0.000591209716796875, 2.78125) (-0.0005971583251953125, 2.783203125) (-0.0006027154541015624, 2.78515625) (-0.0006078828125, 2.787109375) (-0.0006126629638671875, 2.7890625) (-0.0006170601806640625, 2.791015625) (-0.000621080322265625, 2.79296875) (-0.0006247302246093749, 2.794921875) (-0.0006280184326171875, 2.796875) (-0.000630955078125, 2.798828125) (-0.0006335516967773437, 2.80078125) (-0.0006358209838867187, 2.802734375) (-0.0006377769165039062, 2.8046875) (-0.0006394346923828125, 2.806640625) (-0.0006408104858398437, 2.80859375) (-0.0006419213256835938, 2.810546875) (-0.00064278515625, 2.8125) (-0.000643419921875, 2.814453125) (-0.0006438446044921875, 2.81640625) (-0.0006440780029296875, 2.818359375) (-0.0006441398315429688, 2.8203125) (-0.0006440499267578125, 2.822265625) (-0.0006438285522460937, 2.82421875) (-0.0006434959106445312, 2.826171875) (-0.0006430718383789062, 2.828125) (-0.0006425762329101562, 2.830078125) (-0.0006420281982421874, 2.83203125) (-0.0006414464111328125, 2.833984375) (-0.0006408485107421874, 2.8359375) (-0.0006402510986328125, 2.837890625) (-0.0006396693115234375, 2.83984375) (-0.0006391166381835938, 2.841796875) (-0.0006386057739257812, 2.84375) (-0.000638148193359375, 2.845703125) (-0.0006377537841796875, 2.84765625) (-0.0006374309082031249, 2.849609375) (-0.0006371865234374999, 2.8515625) (-0.000637025634765625, 2.853515625) (-0.0006369521484375, 2.85546875) (-0.00063696826171875, 2.857421875) (-0.0006370743408203125, 2.859375) (-0.000637268310546875, 2.861328125) (-0.0006375463256835937, 2.86328125) (-0.0006379025878906249, 2.865234375) (-0.0006383298339843749, 2.8671875) (-0.0006388189697265625, 2.869140625) (-0.0006393594970703125, 2.87109375) (-0.0006399390869140625, 2.873046875) (-0.0006405440673828125, 2.875) (-0.0006411597290039063, 2.876953125) (-0.0006417708740234374, 2.87890625) (-0.000642361572265625, 2.880859375) (-0.0006429146728515625, 2.8828125) (-0.0006434121093749999, 2.884765625) (-0.00064383447265625, 2.88671875) (-0.0006441621704101562, 2.888671875) (-0.0006443757934570312, 2.890625) (-0.0006444561767578124, 2.892578125) (-0.0006443838500976562, 2.89453125) (-0.0006441392211914062, 2.896484375) (-0.0006437036132812499, 2.8984375) (-0.0006430595092773437, 2.900390625) (-0.000642190673828125, 2.90234375) (-0.0006410825805664062, 2.904296875) (-0.0006397210693359375, 2.90625) (-0.0006380925292968749, 2.908203125) (-0.000636184814453125, 2.91015625) (-0.0006339877319335937, 2.912109375) (-0.0006314927978515625, 2.9140625) (-0.0006286934204101562, 2.916015625) (-0.0006255848999023437, 2.91796875) (-0.0006221633911132812, 2.919921875) (-0.0006184282836914063, 2.921875) (-0.0006143823852539063, 2.923828125) (-0.0006100311889648437, 2.92578125) (-0.000605382568359375, 2.927734375) (-0.0006004473876953124, 2.9296875) (-0.0005952384033203125, 2.931640625) (-0.0005897712402343749, 2.93359375) (-0.0005840657348632813, 2.935546875) (-0.0005781429443359375, 2.9375) (-0.0005720249633789062, 2.939453125) (-0.000565735595703125, 2.94140625) (-0.0005592993774414062, 2.943359375) (-0.00055274267578125, 2.9453125) (-0.0005460943603515625, 2.947265625) (-0.0005393831787109375, 2.94921875) (-0.000532636474609375, 2.951171875) (-0.0005258828125, 2.953125) (-0.000519151123046875, 2.955078125) (-0.00051247314453125, 2.95703125) (-0.0005058826904296875, 2.958984375) (-0.0004994110717773437, 2.9609375) (-0.0004930872192382812, 2.962890625) (-0.00048694012451171875, 2.96484375) (-0.0004809984436035156, 2.966796875) (-0.0004752934875488281, 2.96875) (-0.00046985791015624997, 2.970703125) (-0.0004647161865234375, 2.97265625) (-0.0004598833618164062, 2.974609375) (-0.00045537670898437496, 2.9765625) (-0.0004512132873535156, 2.978515625) (-0.00044741577148437497, 2.98046875) (-0.0004440138244628906, 2.982421875) (-0.0004410218505859375, 2.984375) (-0.0004384374084472656, 2.986328125) (-0.0004362525634765625, 2.98828125) (-0.0004344570922851562, 2.990234375) (-0.00043303720092773435, 2.9921875) (-0.0004319750366210937, 2.994140625) (-0.000431231689453125, 2.99609375) (-0.00043074020385742187, 2.998046875) (-0.00043043328857421875, 3.0) (-0.0004302528381347656, 3.001953125) (-0.00043016149902343746, 3.00390625) (-0.0004301435546875, 3.005859375) (-0.00043016748046875, 3.0078125) (-0.0004301856079101562, 3.009765625) (-0.0004301382446289062, 3.01171875) (-0.00042996212768554686, 3.013671875) (-0.00042962802124023433, 3.015625) (-0.0004291400451660156, 3.017578125) (-0.0004284980773925781, 3.01953125) (-0.0004276821899414062, 3.021484375) (-0.00042669238281249996, 3.0234375) (-0.00042555706787109375, 3.025390625) (-0.00042436071777343746, 3.02734375) (-0.00042326403808593747, 3.029296875) (-0.0004224085693359375, 3.03125) (-0.00042188275146484374, 3.033203125) (-0.0004217426147460937, 3.03515625) (-0.0004220040283203125, 3.037109375) (-0.000422673828125, 3.0390625) (-0.00042379705810546874, 3.041015625) (-0.00042543170166015623, 3.04296875) (-0.0004275984497070312, 3.044921875) (-0.00043030636596679683, 3.046875) (-0.00043351885986328125, 3.048828125) (-0.0004371512451171875, 3.05078125) (-0.00044123410034179687, 3.052734375) (-0.0004458023986816406, 3.0546875) (-0.00045066119384765623, 3.056640625) (-0.0004554254150390625, 3.05859375) (-0.00045942953491210937, 3.060546875) (-0.0004617845764160156, 3.0625) (-0.0004618100891113281, 3.064453125) (-0.00045903573608398435, 3.06640625) (-0.0004528695068359375, 3.068359375) (-0.0004428845520019531, 3.0703125) (-0.0004291336975097656, 3.072265625) (-0.00041197479248046874, 3.07421875) (-0.0003926023254394531, 3.076171875) (-0.00037288128662109376, 3.078125) (-0.0003542851867675781, 3.080078125) (-0.0003381554565429687, 3.08203125) (-0.00032572027587890625, 3.083984375) (-0.000317302001953125, 3.0859375) (-0.000312406494140625, 3.087890625) (-0.00030985794067382814, 3.08984375) (-0.00030691986083984375, 3.091796875) (-0.0003001178588867187, 3.09375) (-0.0002861908264160156, 3.095703125) (-0.00026115203857421875, 3.09765625) (-0.00022142349243164063, 3.099609375) (-0.00016484597778320312, 3.1015625) (-9.207572174072265e-05, 3.103515625) (-7.775588512420655e-06, 3.10546875) (8.18467559814453e-05, 3.107421875) (0.000170132568359375, 3.109375) (0.0002551598510742187, 3.111328125) (0.0003414727783203125, 3.11328125) (0.0004298218078613281, 3.115234375) (0.0005171788330078124, 3.1171875) (0.0005924393920898437, 3.119140625) (0.0006285911865234375, 3.12109375) (0.000603489013671875, 3.123046875) (0.0005047730712890625, 3.125) (0.0003289327392578125, 3.126953125) (0.00010233317565917968, 3.12890625) (-0.00013746502685546875, 3.130859375) (-0.0003541642456054687, 3.1328125) (-0.0005086205749511718, 3.134765625) (-0.000589275146484375, 3.13671875) (-0.0006065904541015625, 3.138671875) (-0.0005797081298828125, 3.140625) (-0.0005395829467773437, 3.142578125) (-0.0005027639770507812, 3.14453125) (-0.00047086300659179685, 3.146484375) (-0.00044100488281249996, 3.1484375) (-0.0004042111206054687, 3.150390625) (-0.0003593992919921875, 3.15234375) (-0.0003127303466796875, 3.154296875) (-0.00026982730102539064, 3.15625) (-0.00023709069824218748, 3.158203125) (-0.00021738639831542968, 3.16015625) (-0.00020938153076171875, 3.162109375) (-0.00021096458435058594, 3.1640625) (-0.00021886328124999998, 3.166015625) (-0.0002291905822753906, 3.16796875) (-0.00023904069519042968, 3.169921875) (-0.00024670147705078125, 3.171875) (-0.00025105038452148437, 3.173828125) (-0.00025118365478515625, 3.17578125) (-0.0002468049621582031, 3.177734375) (-0.00023817347717285155, 3.1796875) (-0.0002261357421875, 3.181640625) (-0.00021247386169433592, 3.18359375) (-0.0001990221252441406, 3.185546875) (-0.0001867075500488281, 3.1875) (-0.0001759884033203125, 3.189453125) (-0.00016717471313476562, 3.19140625) (-0.00016024504089355468, 3.193359375) (-0.0001550948028564453, 3.1953125) (-0.00015152252197265625, 3.197265625) (-0.00014884860229492187, 3.19921875) (-0.00014622811889648436, 3.201171875) (-0.00014318833923339844, 3.203125) (-0.00013948643493652343, 3.205078125) (-0.0001350348663330078, 3.20703125) (-0.00012993243408203125, 3.208984375) (-0.00012420204162597655, 3.2109375) (-0.0001178045654296875, 3.212890625) (-0.00011082142639160155, 3.21484375) (-0.00010339464569091796, 3.216796875) (-9.563341522216797e-05, 3.21875) (-8.76351318359375e-05, 3.220703125) (-7.943913269042968e-05, 3.22265625) (-7.103044128417968e-05, 3.224609375) (-6.245206451416016e-05, 3.2265625) (-5.378439712524414e-05, 3.228515625) (-4.512445068359375e-05, 3.23046875) (-3.659678268432617e-05, 3.232421875) (-2.8285140991210936e-05, 3.234375) (-2.0230617523193358e-05, 3.236328125) (-1.2465948104858398e-05, 3.23828125) (-5.010653018951416e-06, 3.240234375) (2.120983600616455e-06, 3.2421875) (8.909884452819825e-06, 3.244140625) (1.5353330612182617e-05, 3.24609375) (2.1471687316894532e-05, 3.248046875) (2.7281961441040038e-05, 3.25) (3.279536819458008e-05, 3.251953125) (3.801691436767578e-05, 3.25390625) (4.2944503784179684e-05, 3.255859375) (4.758829116821289e-05, 3.2578125) (5.1971900939941406e-05, 3.259765625) (5.6126354217529295e-05, 3.26171875) (6.0085922241210935e-05, 3.263671875) (6.387633895874024e-05, 3.265625) (6.751673889160156e-05, 3.267578125) (7.102668762207031e-05, 3.26953125) (7.442514801025391e-05, 3.271484375) (7.772970581054688e-05, 3.2734375) (8.095641326904296e-05, 3.275390625) (8.411564636230468e-05, 3.27734375) (8.721368408203125e-05, 3.279296875) (9.026069641113282e-05, 3.28125) (9.326906585693359e-05, 3.283203125) (9.62509765625e-05, 3.28515625) (9.921849822998046e-05, 3.287109375) (0.00010218034362792969, 3.2890625) (0.00010514219665527344, 3.291015625) (0.00010810965728759765, 3.29296875) (0.00011108744812011719, 3.294921875) (0.00011407779693603515, 3.296875) (0.00011708116149902344, 3.298828125) (0.00012009552764892578, 3.30078125) (0.00012311711120605468, 3.302734375) (0.000126142333984375, 3.3046875) (0.0001291665496826172, 3.306640625) (0.0001321825408935547, 3.30859375) (0.0001351807403564453, 3.310546875) (0.00013814807128906248, 3.3125) (0.00014106852722167967, 3.314453125) (0.00014392611694335938, 3.31640625) (0.0001467034912109375, 3.318359375) (0.00014938067626953124, 3.3203125) (0.00015193743896484374, 3.322265625) (0.00015435302734375, 3.32421875) (0.00015660763549804686, 3.326171875) (0.00015868519592285155, 3.328125) (0.00016057084655761718, 3.330078125) (0.00016224751281738282, 3.33203125) (0.00016369786071777342, 3.333984375) (0.00016490353393554686, 3.3359375) (0.00016584585571289062, 3.337890625) (0.00016650949096679685, 3.33984375) (0.00016687945556640625, 3.341796875) (0.0001669403076171875, 3.34375) (0.00016668148803710935, 3.345703125) (0.00016609645080566406, 3.34765625) (0.0001651804656982422, 3.349609375) (0.00016393675231933592, 3.3515625) (0.00016237155151367186, 3.353515625) (0.00016048638916015624, 3.35546875) (0.00015828375244140625, 3.357421875) (0.00015575811767578124, 3.359375) (0.00015289237976074218, 3.361328125) (0.00014967597961425781, 3.36328125) (0.00014610765075683593, 3.365234375) (0.0001421914367675781, 3.3671875) (0.00013794122314453124, 3.369140625) (0.00013337916564941406, 3.37109375) (0.00012853167724609374, 3.373046875) (0.00012344525146484373, 3.375) (0.00011818273162841797, 3.376953125) (0.0001128036880493164, 3.37890625) (0.00010737319946289063, 3.380859375) (0.00010194705200195312, 3.3828125) (9.657037353515625e-05, 3.384765625) (9.129901123046875e-05, 3.38671875) (8.618644714355468e-05, 3.388671875) (8.129351043701172e-05, 3.390625) (7.67057647705078e-05, 3.392578125) (7.250495910644531e-05, 3.39453125) (6.87318115234375e-05, 3.396484375) (6.539980316162109e-05, 3.3984375) (6.250677490234375e-05, 3.400390625) (6.001995468139648e-05, 3.40234375) (5.7917037963867186e-05, 3.404296875) (5.61620864868164e-05, 3.40625) (5.4640357971191404e-05, 3.408203125) (5.320011901855469e-05, 3.41015625) (5.168482971191406e-05, 3.412109375) (4.992997360229492e-05, 3.4140625) (4.778507614135742e-05, 3.416015625) (4.515453338623047e-05, 3.41796875) (4.188833236694336e-05, 3.419921875) (3.7752132415771484e-05, 3.421875) (3.266316604614258e-05, 3.423828125) (2.6668014526367186e-05, 3.42578125) (2.0027490615844727e-05, 3.427734375) (1.3346826553344725e-05, 3.4296875) (7.185494422912597e-06, 3.431640625) (1.8971663713455199e-06, 3.43359375) (-2.0012881755828855e-06, 3.435546875) (-3.89934253692627e-06, 3.4375) (-3.6565401554107666e-06, 3.439453125) (-1.3684263229370116e-06, 3.44140625) (2.289084434509277e-06, 3.443359375) (5.66152286529541e-06, 3.4453125) (7.4851121902465815e-06, 3.447265625) (7.044943809509277e-06, 3.44921875) (3.326704978942871e-06, 3.451171875) (-4.352153778076171e-06, 3.453125) (-1.5534146308898926e-05, 3.455078125) (-2.9229034423828125e-05, 3.45703125) (-4.315569305419922e-05, 3.458984375) (-5.316928482055664e-05, 3.4609375) (-5.5876049041748044e-05, 3.462890625) (-4.857853317260742e-05, 3.46484375) (-2.779928398132324e-05, 3.466796875) (9.265634536743164e-06, 3.46875) (6.402631378173828e-05, 3.470703125) (0.00013744067382812498, 3.47265625) (0.00022636810302734375, 3.474609375) (0.00032293206787109373, 3.4765625) (0.00042082269287109373, 3.478515625) (0.000513638916015625, 3.48046875) (0.0005997822265625, 3.482421875) (0.00068481396484375, 3.484375) (0.0007673689575195313, 3.486328125) (0.000841438232421875, 3.48828125) (0.0008924255981445312, 3.490234375) (0.0008945610961914062, 3.4921875) (0.0008353956298828124, 3.494140625) (0.000713693359375, 3.49609375) (0.0005392648315429687, 3.498046875) (0.00034029061889648434, 3.5) (0.00013806088256835937, 3.501953125) (-5.013172912597656e-05, 3.50390625) (-0.000206967041015625, 3.505859375) (-0.0003269212036132812, 3.5078125) (-0.0004013512268066406, 3.509765625) (-0.00042499914550781247, 3.51171875) (-0.00039998773193359373, 3.513671875) (-0.0003296912841796875, 3.515625) (-0.00022967015075683593, 3.517578125) (-0.0001190356979370117, 3.51953125) (-1.822339057922363e-05, 3.521484375) (5.3733860015869136e-05, 3.5234375) (9.323240661621093e-05, 3.525390625) (0.0001060593032836914, 3.52734375) (0.00010461041259765624, 3.529296875) (0.0001023773956298828, 3.53125) (0.00010335671997070312, 3.533203125) (0.00010451242828369141, 3.53515625) (9.985997772216796e-05, 3.537109375) (8.579949951171874e-05, 3.5390625) (6.385125350952148e-05, 3.541015625) (3.919818496704101e-05, 3.54296875) (1.8070850372314453e-05, 3.544921875) (3.5144834518432617e-06, 3.546875) (-4.113492012023925e-06, 3.548828125) (-5.512837886810303e-06, 3.55078125) (-2.564024209976196e-06, 3.552734375) (3.1213948726654053e-06, 3.5546875) (1.0347899436950682e-05, 3.556640625) (1.7343368530273436e-05, 3.55859375) (2.272085952758789e-05, 3.560546875) (2.595330238342285e-05, 3.5625) (2.679168701171875e-05, 3.564453125) (2.5452045440673827e-05, 3.56640625) (2.249728775024414e-05, 3.568359375) (1.8422130584716798e-05, 3.5703125) (1.3818432807922362e-05, 3.572265625) (9.408303260803222e-06, 3.57421875) (5.634929180145263e-06, 3.576171875) (2.6630334854125974e-06, 3.578125) (5.440788865089416e-07, 3.580078125) (-8.324902057647705e-07, 3.58203125) (-1.5750648975372313e-06, 3.583984375) (-1.722602128982544e-06, 3.5859375) (-1.3657538890838622e-06, 3.587890625) (-6.058182120323181e-07, 3.58984375) (5.154138803482055e-07, 3.591796875) (1.9787731170654297e-06, 3.59375) (3.7793743610382078e-06, 3.595703125) (5.925810813903808e-06, 3.59765625) (8.384777069091797e-06, 3.599609375) (1.1093017578125e-05, 3.6015625) (1.4003067016601562e-05, 3.603515625) (1.7078535079956053e-05, 3.60546875) (2.0301856994628905e-05, 3.607421875) (2.3671215057373047e-05, 3.609375) (2.7182159423828124e-05, 3.611328125) (3.0831045150756835e-05, 3.61328125) (3.4617355346679684e-05, 3.615234375) (3.85432014465332e-05, 3.6171875) (4.260871887207031e-05, 3.619140625) (4.6805969238281245e-05, 3.62109375) (5.1119213104248044e-05, 3.623046875) (5.553190612792968e-05, 3.625) (6.0032882690429684e-05, 3.626953125) (6.461643218994141e-05, 3.62890625) (6.928401184082031e-05, 3.630859375) (7.403839111328125e-05, 3.6328125) (7.887784576416015e-05, 3.634765625) (8.379835510253906e-05, 3.63671875) (8.879116821289062e-05, 3.638671875) (9.384278869628906e-05, 3.640625) (9.893716430664062e-05, 3.642578125) (0.00010405522155761719, 3.64453125) (0.00010917480468749999, 3.646484375) (0.00011427268981933594, 3.6484375) (0.00011932808685302734, 3.650390625) (0.0001243224639892578, 3.65234375) (0.00012923908996582032, 3.654296875) (0.00013406224060058593, 3.65625) (0.00013877520751953123, 3.658203125) (0.0001433604278564453, 3.66015625) (0.00014780050659179687, 3.662109375) (0.00015207858276367186, 3.6640625) (0.000156177001953125, 3.666015625) (0.00016007789611816405, 3.66796875) (0.00016376394653320312, 3.669921875) (0.00016721853637695312, 3.671875) (0.0001704270782470703, 3.673828125) (0.00017337683105468748, 3.67578125) (0.000176056396484375, 3.677734375) (0.0001784556884765625, 3.6796875) (0.00018056585693359374, 3.681640625) (0.00018237940979003904, 3.68359375) (0.00018389047241210938, 3.685546875) (0.0001850945587158203, 3.6875) (0.0001859884796142578, 3.689453125) (0.00018657049560546874, 3.69140625) (0.000186840087890625, 3.693359375) (0.00018679835510253904, 3.6953125) (0.00018644841003417968, 3.697265625) (0.00018579501342773437, 3.69921875) (0.00018484457397460936, 3.701171875) (0.00018360516357421875, 3.703125) (0.0001820862579345703, 3.705078125) (0.00018029893493652342, 3.70703125) (0.00017825595092773436, 3.708984375) (0.000175971435546875, 3.7109375) (0.00017346037292480468, 3.712890625) (0.00017073883056640624, 3.71484375) (0.00016782373046875, 3.716796875) (0.00016473275756835937, 3.71875) (0.00016148428344726562, 3.720703125) (0.00015809719848632812, 3.72265625) (0.0001545906524658203, 3.724609375) (0.00015098397827148437, 3.7265625) (0.00014729693603515625, 3.728515625) (0.00014354933166503905, 3.73046875) (0.000139760986328125, 3.732421875) (0.00013595130920410155, 3.734375) (0.00013213931274414062, 3.736328125) (0.00012834323120117187, 3.73828125) (0.00012458072662353516, 3.740234375) (0.00012086847686767578, 3.7421875) (0.00011722213745117187, 3.744140625) (0.00011365628051757812, 3.74609375) (0.00011018446350097656, 3.748046875) (0.00010681901550292968, 3.75) (0.00010357109069824219, 3.751953125) (0.00010045057678222656, 3.75390625) (9.746604156494141e-05, 3.755859375) (9.462452697753906e-05, 3.7578125) (9.193161010742187e-05, 3.759765625) (8.93912353515625e-05, 3.76171875) (8.700570678710937e-05, 3.763671875) (8.477569580078125e-05, 3.765625) (8.270035552978515e-05, 3.767578125) (8.077732849121093e-05, 3.76953125) (7.90028839111328e-05, 3.771484375) (7.737209320068358e-05, 3.7734375) (7.587895202636719e-05, 3.775390625) (7.45163803100586e-05, 3.77734375) (7.327654266357421e-05, 3.779296875) (7.215084838867187e-05, 3.78125) (7.113020324707032e-05, 3.783203125) (7.02049789428711e-05, 3.78515625) (6.936501312255859e-05, 3.787109375) (6.859978485107421e-05, 3.7890625) (6.789845275878906e-05, 3.791015625) (6.725016784667968e-05, 3.79296875) (6.664443206787109e-05, 3.794921875) (6.607097625732422e-05, 3.796875) (6.551973724365234e-05, 3.798828125) (6.49812774658203e-05, 3.80078125) (6.444693756103516e-05, 3.802734375) (6.390899658203125e-05, 3.8046875) (6.33609733581543e-05, 3.806640625) (6.279714965820312e-05, 3.80859375) (6.221226119995117e-05, 3.810546875) (6.160188293457031e-05, 3.8125) (6.096266937255859e-05, 3.814453125) (6.029231262207031e-05, 3.81640625) (5.958962249755859e-05, 3.818359375) (5.885462188720703e-05, 3.8203125) (5.8088249206542965e-05, 3.822265625) (5.72927131652832e-05, 3.82421875) (5.6471942901611324e-05, 3.826171875) (5.563124084472656e-05, 3.828125) (5.4777126312255856e-05, 3.830078125) (5.391716766357422e-05, 3.83203125) (5.305961227416992e-05, 3.833984375) (5.2213253021240234e-05, 3.8359375) (5.1387725830078124e-05, 3.837890625) (5.059320831298828e-05, 3.83984375) (4.9840023040771484e-05, 3.841796875) (4.9138622283935545e-05, 3.84375) (4.849918746948242e-05, 3.845703125) (4.793209075927734e-05, 3.84765625) (4.744828033447265e-05, 3.849609375) (4.7058708190917966e-05, 3.8515625) (4.677443695068359e-05, 3.853515625) (4.660600280761718e-05, 3.85546875) (4.6562835693359375e-05, 3.857421875) (4.665409469604492e-05, 3.859375) (4.688891220092773e-05, 3.861328125) (4.727458953857422e-05, 3.86328125) (4.781623458862305e-05, 3.865234375) (4.851678085327148e-05, 3.8671875) (4.937605285644531e-05, 3.869140625) (5.0392848968505855e-05, 3.87109375) (5.15663948059082e-05, 3.873046875) (5.289421081542969e-05, 3.875) (5.437165832519531e-05, 3.876953125) (5.599419021606445e-05, 3.87890625) (5.775731658935547e-05, 3.880859375) (5.9657646179199214e-05, 3.8828125) (6.16940689086914e-05, 3.884765625) (6.386338043212891e-05, 3.88671875) (6.615806579589843e-05, 3.888671875) (6.856809997558594e-05, 3.890625) (7.108259582519532e-05, 3.892578125) (7.369093322753906e-05, 3.89453125) (7.638346862792968e-05, 3.896484375) (7.914926147460938e-05, 3.8984375) (8.197439575195312e-05, 3.900390625) (8.484619903564453e-05, 3.90234375) (8.775411987304687e-05, 3.904296875) (9.069276428222655e-05, 3.90625) (9.366143035888672e-05, 3.908203125) (9.665215301513672e-05, 3.91015625) (9.964913940429687e-05, 3.912109375) (0.00010262806701660156, 3.9140625) (0.00010555693817138672, 3.916015625) (0.00010840958404541015, 3.91796875) (0.00011116967010498046, 3.919921875) (0.00011382386779785156, 3.921875) (0.0001163580322265625, 3.923828125) (0.00011876634216308593, 3.92578125) (0.00012105200195312499, 3.927734375) (0.00012323783111572266, 3.9296875) (0.00012536994171142578, 3.931640625) (0.0001274892578125, 3.93359375) (0.00012962921142578124, 3.935546875) (0.00013181069946289063, 3.9375) (0.0001340478515625, 3.939453125) (0.00013637380981445312, 3.94140625) (0.00013883282470703124, 3.943359375) (0.00014147816467285156, 3.9453125) (0.0001443644104003906, 3.947265625) (0.00014752981567382813, 3.94921875) (0.0001509920196533203, 3.951171875) (0.00015475746154785156, 3.953125) (0.00015882484436035156, 3.955078125) (0.0001631592559814453, 3.95703125) (0.00016771081542968748, 3.958984375) (0.00017239152526855468, 3.9609375) (0.00017704850769042967, 3.962890625) (0.00018152355957031248, 3.96484375) (0.00018564891052246093, 3.966796875) (0.00018926428222656248, 3.96875) (0.000192235595703125, 3.970703125) (0.00019442730712890624, 3.97265625) (0.00019565299987792968, 3.974609375) (0.000195662841796875, 3.9765625) (0.0001943194885253906, 3.978515625) (0.00019165838623046874, 3.98046875) (0.0001879093780517578, 3.982421875) (0.00018351202392578124, 3.984375) (0.0001788913879394531, 3.986328125) (0.00017436500549316406, 3.98828125) (0.00017034478759765624, 3.990234375) (0.0001675052795410156, 3.9921875) (0.0001663626251220703, 3.994140625) (0.00016696221923828125, 3.99609375) (0.0001688245849609375, 3.998046875) (0.00017076229858398436, 4.0) (0.00017157614135742186, 4.001953125) (0.0001706695098876953, 4.00390625) (0.00016753456115722656, 4.005859375) (0.000161383056640625, 4.0078125) (0.00015176493835449218, 4.009765625) (0.0001391204833984375, 4.01171875) (0.00012504104614257812, 4.013671875) (0.00011271305847167968, 4.015625) (0.00010568925476074218, 4.017578125) (0.00010656346130371093, 4.01953125) (0.0001180671157836914, 4.021484375) (0.0001433361053466797, 4.0234375) (0.00018518161010742186, 4.025390625) (0.00024585662841796873, 4.02734375) (0.00032399493408203126, 4.029296875) (0.00041409997558593747, 4.03125) (0.0005109903564453125, 4.033203125) (0.0006094998168945312, 4.03515625) (0.000708641357421875, 4.037109375) (0.0008120273437499999, 4.0390625) (0.0009154826660156249, 4.041015625) (0.0010098886718749999, 4.04296875) (0.00108009765625, 4.044921875) (0.0011039250488281249, 4.046875) (0.001071643310546875, 4.048828125) (0.000984962890625, 4.05078125) (0.0008518070068359374, 4.052734375) (0.000687928955078125, 4.0546875) (0.0005069267578125, 4.056640625) (0.0003201583557128906, 4.05859375) (0.00014460005187988281, 4.060546875) (1.1135520935058593e-06, 4.0625) (-9.507395935058593e-05, 4.064453125) (-0.00013924053955078125, 4.06640625) (-0.00014047862243652344, 4.068359375) (-0.0001174111099243164, 4.0703125) (-8.468965148925781e-05, 4.072265625) (-4.6386913299560544e-05, 4.07421875) (6.156082153320312e-07, 4.076171875) (5.63404541015625e-05, 4.078125) (0.0001165810546875, 4.080078125) (0.00017070146179199217, 4.08203125) (0.00020618734741210937, 4.083984375) (0.00022283212280273435, 4.0859375) (0.00022367816162109373, 4.087890625) (0.0002142099609375, 4.08984375) (0.00020300682067871093, 4.091796875) (0.00018965025329589842, 4.09375) (0.00017426866149902344, 4.095703125) (0.00015927468872070313, 4.09765625) (0.00014442208862304687, 4.099609375) (0.00013319575500488282, 4.1015625) (0.0001283562774658203, 4.103515625) (0.00012939334106445313, 4.10546875) (0.00013598902893066406, 4.107421875) (0.00014663694763183594, 4.109375) (0.00015887643432617186, 4.111328125) (0.00017102232360839844, 4.11328125) (0.00018197674560546873, 4.115234375) (0.0001907873077392578, 4.1171875) (0.0001971201477050781, 4.119140625) (0.00020108262634277343, 4.12109375) (0.00020281796264648436, 4.123046875) (0.000202725341796875, 4.125) (0.00020149200439453124, 4.126953125) (0.00019987051391601561, 4.12890625) (0.00019841790771484374, 4.130859375) (0.00019749206542968748, 4.1328125) (0.0001972276611328125, 4.134765625) (0.0001975841064453125, 4.13671875) (0.00019854986572265625, 4.138671875) (0.00020012600708007813, 4.140625) (0.00020227636718749998, 4.142578125) (0.0002049224853515625, 4.14453125) (0.00020798477172851562, 4.146484375) (0.0002114241027832031, 4.1484375) (0.000215230224609375, 4.150390625) (0.00021942924499511717, 4.15234375) (0.0002240323486328125, 4.154296875) (0.00022899899291992185, 4.15625) (0.0002342676544189453, 4.158203125) (0.00023975540161132812, 4.16015625) (0.00024537365722656246, 4.162109375) (0.0002510685119628906, 4.1640625) (0.0002568091125488281, 4.166015625) (0.0002625674133300781, 4.16796875) (0.0002683235778808594, 4.169921875) (0.00027406219482421876, 4.171875) (0.0002797653198242187, 4.173828125) (0.00028543414306640626, 4.17578125) (0.00029108694458007813, 4.177734375) (0.0002967291259765625, 4.1796875) (0.0003023607177734375, 4.181640625) (0.0003079790344238281, 4.18359375) (0.0003135767211914062, 4.185546875) (0.00031915759277343747, 4.1875) (0.00032473583984375, 4.189453125) (0.00033032574462890624, 4.19140625) (0.0003359371337890625, 4.193359375) (0.0003415732421875, 4.1953125) (0.00034723107910156247, 4.197265625) (0.00035290570068359376, 4.19921875) (0.0003585928039550781, 4.201171875) (0.00036428448486328124, 4.203125) (0.0003699688415527344, 4.205078125) (0.00037562945556640626, 4.20703125) (0.0003812469482421875, 4.208984375) (0.0003868050842285156, 4.2109375) (0.0003922909240722656, 4.212890625) (0.0003976917114257812, 4.21484375) (0.0004029945068359375, 4.216796875) (0.00040818481445312497, 4.21875) (0.0004132471923828125, 4.220703125) (0.0004181673889160156, 4.22265625) (0.00042293255615234374, 4.224609375) (0.0004275289916992187, 4.2265625) (0.0004319418029785156, 4.228515625) (0.00043615570068359375, 4.23046875) (0.00044015582275390625, 4.232421875) (0.0004439291076660156, 4.234375) (0.00044746386718749997, 4.236328125) (0.00045074914550781247, 4.23828125) (0.00045377438354492184, 4.240234375) (0.0004565300903320312, 4.2421875) (0.000459008544921875, 4.244140625) (0.00046120404052734374, 4.24609375) (0.00046311138916015624, 4.248046875) (0.00046472564697265626, 4.25) (0.00046604244995117187, 4.251953125) (0.0004670583801269531, 4.25390625) (0.0004677717590332031, 4.255859375) (0.00046818286132812496, 4.2578125) (0.00046829296874999996, 4.259765625) (0.0004681045532226562, 4.26171875) (0.00046762133789062497, 4.263671875) (0.0004668492431640625, 4.265625) (0.0004657962646484375, 4.267578125) (0.00046447186279296874, 4.26953125) (0.0004628861083984375, 4.271484375) (0.0004610486145019531, 4.2734375) (0.00045896929931640623, 4.275390625) (0.0004566578369140625, 4.27734375) (0.000454125, 4.279296875) (0.0004513825073242187, 4.28125) (0.00044844113159179686, 4.283203125) (0.0004453113098144531, 4.28515625) (0.00044200372314453124, 4.287109375) (0.0004385297241210937, 4.2890625) (0.0004349020080566406, 4.291015625) (0.000431134521484375, 4.29296875) (0.0004272396545410156, 4.294921875) (0.0004232274475097656, 4.296875) (0.00041910821533203124, 4.298828125) (0.0004148919677734375, 4.30078125) (0.0004105872802734375, 4.302734375) (0.000406201904296875, 4.3046875) (0.0004017397766113281, 4.306640625) (0.00039720141601562496, 4.30859375) (0.00039258883666992185, 4.310546875) (0.000387906005859375, 4.3125) (0.00038315670776367184, 4.314453125) (0.0003783442993164062, 4.31640625) (0.00037347222900390624, 4.318359375) (0.00036854345703124996, 4.3203125) (0.00036356442260742185, 4.322265625) (0.00035854473876953126, 4.32421875) (0.0003534903259277344, 4.326171875) (0.0003484024658203125, 4.328125) (0.0003432791748046875, 4.330078125) (0.0003381173095703125, 4.33203125) (0.00033291607666015625, 4.333984375) (0.0003276786499023437, 4.3359375) (0.00032240869140625, 4.337890625) (0.00031710879516601563, 4.33984375) (0.00031178466796875, 4.341796875) (0.0003064457092285156, 4.34375) (0.0003011079711914062, 4.345703125) (0.0002957940368652344, 4.34765625) (0.0002905196838378906, 4.349609375) (0.0002852896118164062, 4.3515625) (0.00028009677124023435, 4.353515625) (0.0002749248657226562, 4.35546875) (0.00026976727294921875, 4.357421875) (0.0002646349182128906, 4.359375) (0.0002595411682128906, 4.361328125) (0.00025449488830566407, 4.36328125) (0.0002495168762207031, 4.365234375) (0.00024463812255859374, 4.3671875) (0.00023991091918945312, 4.369140625) (0.00023541864013671874, 4.37109375) (0.00023121874999999998, 4.373046875) (0.00022733215332031249, 4.375) (0.0002237709503173828, 4.376953125) (0.00022053192138671873, 4.37890625) (0.00021762121582031248, 4.380859375) (0.00021507675170898436, 4.3828125) (0.0002129351348876953, 4.384765625) (0.00021121945190429687, 4.38671875) (0.00020996080017089843, 4.388671875) (0.00020917179870605468, 4.390625) (0.00020885305786132812, 4.392578125) (0.00020903146362304687, 4.39453125) (0.0002096781768798828, 4.396484375) (0.0002107157287597656, 4.3984375) (0.00021205020141601562, 4.400390625) (0.00021349856567382813, 4.40234375) (0.00021490771484375, 4.404296875) (0.00021621115112304686, 4.40625) (0.00021730941772460935, 4.408203125) (0.00021812896728515624, 4.41015625) (0.0002186624755859375, 4.412109375) (0.00021879534912109375, 4.4140625) (0.00021840550231933594, 4.416015625) (0.00021759510803222656, 4.41796875) (0.00021649423217773436, 4.419921875) (0.00021535040283203124, 4.421875) (0.00021465834045410155, 4.423828125) (0.00021471717834472656, 4.42578125) (0.0002157626190185547, 4.427734375) (0.00021832357788085935, 4.4296875) (0.00022282290649414062, 4.431640625) (0.00022933370971679686, 4.43359375) (0.00023765994262695312, 4.435546875) (0.0002468775482177734, 4.4375) (0.000255615966796875, 4.439453125) (0.0002629638671875, 4.44140625) (0.00026805609130859374, 4.443359375) (0.00026989471435546873, 4.4453125) (0.00026802740478515624, 4.447265625) (0.0002625756530761719, 4.44921875) (0.0002545166320800781, 4.451171875) (0.0002463447265625, 4.453125) (0.00024091616821289062, 4.455078125) (0.00024084359741210936, 4.45703125) (0.00024927420043945313, 4.458984375) (0.00026925341796875, 4.4609375) (0.00030350665283203126, 4.462890625) (0.0003524703369140625, 4.46484375) (0.00041232281494140626, 4.466796875) (0.00047771588134765624, 4.46875) (0.0005432487182617187, 4.470703125) (0.0006078751220703124, 4.47265625) (0.000678125, 4.474609375) (0.0007575594482421875, 4.4765625) (0.0008426403808593749, 4.478515625) (0.0009210372314453124, 4.48046875) (0.0009647069091796874, 4.482421875) (0.0009474510498046875, 4.484375) (0.0008569498901367188, 4.486328125) (0.0006907666015625, 4.48828125) (0.0004699812622070312, 4.490234375) (0.00022953042602539062, 4.4921875) (-2.6581573486328123e-07, 4.494140625) (-0.0001854677734375, 4.49609375) (-0.0003058504028320312, 4.498046875) (-0.00036334051513671874, 4.5) (-0.0003637786254882812, 4.501953125) (-0.000327435546875, 4.50390625) (-0.0002764010009765625, 4.505859375) (-0.00021731558227539063, 4.5078125) (-0.0001595995178222656, 4.509765625) (-0.00010481246948242186, 4.51171875) (-5.0262672424316404e-05, 4.513671875) (-3.567355155944824e-06, 4.515625) (3.559217071533203e-05, 4.517578125) (6.696481323242188e-05, 4.51953125) (8.736851501464844e-05, 4.521484375) (0.00010047352600097655, 4.5234375) (0.00010465768432617187, 4.525390625) (9.882528686523437e-05, 4.52734375) (8.584151458740235e-05, 4.529296875) (6.713475036621094e-05, 4.53125) (4.706974029541016e-05, 4.533203125) (2.965099334716797e-05, 4.53515625) (1.6494853973388672e-05, 4.537109375) (8.782404899597168e-06, 4.5390625) (6.25537109375e-06, 4.541015625) (7.9140305519104e-06, 4.54296875) (1.2771398544311523e-05, 4.544921875) (1.9290908813476562e-05, 4.546875) (2.5808563232421874e-05, 4.548828125) (3.126628303527832e-05, 4.55078125) (3.491213607788086e-05, 4.552734375) (3.647003936767578e-05, 4.5546875) (3.608617401123047e-05, 4.556640625) (3.40006103515625e-05, 4.55859375) (3.067870140075683e-05, 4.560546875) (2.6767799377441404e-05, 4.5625) (2.2950551986694334e-05, 4.564453125) (1.965892219543457e-05, 4.56640625) (1.707212448120117e-05, 4.568359375) (1.5199419021606444e-05, 4.5703125) (1.3931466102600097e-05, 4.572265625) (1.3195362091064453e-05, 4.57421875) (1.2914155960083007e-05, 4.576171875) (1.2964750289916992e-05, 4.578125) (1.319822883605957e-05, 4.580078125) (1.3505796432495117e-05, 4.58203125) (1.3839722633361816e-05, 4.583984375) (1.417072582244873e-05, 4.5859375) (1.4486867904663085e-05, 4.587890625) (1.4739232063293456e-05, 4.58984375) (1.483832550048828e-05, 4.591796875) (1.4718415260314942e-05, 4.59375) (1.433557891845703e-05, 4.595703125) (1.366619873046875e-05, 4.59765625) (1.2710713386535644e-05, 4.599609375) (1.1472370147705077e-05, 4.6015625) (9.948732376098632e-06, 4.603515625) (8.147354125976563e-06, 4.60546875) (6.0886087417602534e-06, 4.607421875) (3.7856094837188718e-06, 4.609375) (1.248176097869873e-06, 4.611328125) (-1.5179965496063231e-06, 4.61328125) (-4.517066955566406e-06, 4.615234375) (-7.744431018829346e-06, 4.6171875) (-1.1184988021850585e-05, 4.619140625) (-1.481848907470703e-05, 4.62109375) (-1.862055969238281e-05, 4.623046875) (-2.2570236206054688e-05, 4.625) (-2.665058898925781e-05, 4.626953125) (-3.08480339050293e-05, 4.62890625) (-3.515205001831054e-05, 4.630859375) (-3.955567169189453e-05, 4.6328125) (-4.405569458007812e-05, 4.634765625) (-4.865253829956055e-05, 4.63671875) (-5.3348548889160155e-05, 4.638671875) (-5.81419677734375e-05, 4.640625) (-6.302827453613281e-05, 4.642578125) (-6.800206756591797e-05, 4.64453125) (-7.305699920654296e-05, 4.646484375) (-7.818870544433594e-05, 4.6484375) (-8.339430236816406e-05, 4.650390625) (-8.86707763671875e-05, 4.65234375) (-9.401594543457031e-05, 4.654296875) (-9.943022155761718e-05, 4.65625) (-0.00010491607666015625, 4.658203125) (-0.00011047691345214844, 4.66015625) (-0.00011611654663085938, 4.662109375) (-0.00012183782958984374, 4.6640625) (-0.00012764273834228515, 4.666015625) (-0.00013353349304199219, 4.66796875) (-0.0001395126953125, 4.669921875) (-0.0001455831298828125, 4.671875) (-0.00015174742126464842, 4.673828125) (-0.00015800807189941406, 4.67578125) (-0.00016436759948730467, 4.677734375) (-0.00017082882690429686, 4.6796875) (-0.00017739523315429687, 4.681640625) (-0.00018407032775878907, 4.68359375) (-0.00019085676574707032, 4.685546875) (-0.000197756103515625, 4.6875) (-0.00020476892089843748, 4.689453125) (-0.00021189505004882812, 4.69140625) (-0.00021913339233398436, 4.693359375) (-0.0002264818420410156, 4.6953125) (-0.00023393681335449217, 4.697265625) (-0.0002414932861328125, 4.69921875) (-0.00024914520263671875, 4.701171875) (-0.0002568860473632812, 4.703125) (-0.00026470849609375, 4.705078125) (-0.0002726040954589844, 4.70703125) (-0.0002805633544921875, 4.708984375) (-0.00028857574462890623, 4.7109375) (-0.000296629638671875, 4.712890625) (-0.0003047130126953125, 4.71484375) (-0.00031281307983398437, 4.716796875) (-0.0003209157409667969, 4.71875) (-0.0003290060119628906, 4.720703125) (-0.0003370682678222656, 4.72265625) (-0.00034508651733398434, 4.724609375) (-0.000353044921875, 4.7265625) (-0.00036092755126953125, 4.728515625) (-0.00036871832275390626, 4.73046875) (-0.0003764009094238281, 4.732421875) (-0.00038395904541015623, 4.734375) (-0.00039137680053710934, 4.736328125) (-0.0003986383361816406, 4.73828125) (-0.00040572796630859373, 4.740234375) (-0.00041263012695312497, 4.7421875) (-0.0004193292236328125, 4.744140625) (-0.00042581024169921874, 4.74609375) (-0.00043205917358398436, 4.748046875) (-0.00043806304931640625, 4.75) (-0.00044381005859374996, 4.751953125) (-0.00044928930664062496, 4.75390625) (-0.0004544912719726562, 4.755859375) (-0.0004594078979492187, 4.7578125) (-0.000464032958984375, 4.759765625) (-0.00046836187744140625, 4.76171875) (-0.00047239144897460935, 4.763671875) (-0.0004761192626953125, 4.765625) (-0.00047954461669921875, 4.767578125) (-0.0004826680908203125, 4.76953125) (-0.0004854918212890625, 4.771484375) (-0.00048801934814453123, 4.7734375) (-0.0004902548522949219, 4.775390625) (-0.0004922033691406249, 4.77734375) (-0.0004938706970214844, 4.779296875) (-0.0004952642517089843, 4.78125) (-0.0004963925476074219, 4.783203125) (-0.0004972647094726563, 4.78515625) (-0.0004978900756835937, 4.787109375) (-0.0004982779541015625, 4.7890625) (-0.0004984383544921875, 4.791015625) (-0.0004983817749023437, 4.79296875) (-0.000498119384765625, 4.794921875) (-0.0004976622924804687, 4.796875) (-0.0004970213623046875, 4.798828125) (-0.0004962074584960938, 4.80078125) (-0.0004952320556640625, 4.802734375) (-0.0004941070556640625, 4.8046875) (-0.0004928446044921875, 4.806640625) (-0.0004914569091796875, 4.80859375) (-0.0004899550170898437, 4.810546875) (-0.0004883497009277344, 4.8125) (-0.00048665173339843747, 4.814453125) (-0.00048487194824218746, 4.81640625) (-0.00048302038574218745, 4.818359375) (-0.0004811065979003906, 4.8203125) (-0.0004791385498046875, 4.822265625) (-0.0004771231079101562, 4.82421875) (-0.0004750672912597656, 4.826171875) (-0.0004729783325195312, 4.828125) (-0.00047086297607421874, 4.830078125) (-0.0004687266235351562, 4.83203125) (-0.0004665741577148437, 4.833984375) (-0.00046441021728515624, 4.8359375) (-0.00046224066162109373, 4.837890625) (-0.0004600733032226562, 4.83984375) (-0.00045791537475585936, 4.841796875) (-0.00045577243041992183, 4.84375) (-0.00045365014648437497, 4.845703125) (-0.0004515546264648437, 4.84765625) (-0.00044949203491210935, 4.849609375) (-0.0004474691467285156, 4.8515625) (-0.00044548974609374996, 4.853515625) (-0.0004435537414550781, 4.85546875) (-0.00044166204833984374, 4.857421875) (-0.00043981674194335934, 4.859375) (-0.00043802099609375, 4.861328125) (-0.0004362796936035156, 4.86328125) (-0.00043459591674804686, 4.865234375) (-0.000432971923828125, 4.8671875) (-0.0004314133605957031, 4.869140625) (-0.0004299273071289062, 4.87109375) (-0.0004285211181640625, 4.873046875) (-0.0004272020874023437, 4.875) (-0.00042596810913085934, 4.876953125) (-0.00042481066894531247, 4.87890625) (-0.0004237275390625, 4.880859375) (-0.0004227176818847656, 4.8828125) (-0.0004217879028320312, 4.884765625) (-0.00042095556640624996, 4.88671875) (-0.000420224365234375, 4.888671875) (-0.00041959008789062497, 4.890625) (-0.0004190560607910156, 4.892578125) (-0.00041862130737304687, 4.89453125) (-0.0004182780151367187, 4.896484375) (-0.0004180106506347656, 4.8984375) (-0.0004177706298828125, 4.900390625) (-0.00041748730468749997, 4.90234375) (-0.00041710421752929683, 4.904296875) (-0.00041657223510742185, 4.90625) (-0.0004158612365722656, 4.908203125) (-0.00041495794677734373, 4.91015625) (-0.0004138260498046875, 4.912109375) (-0.00041242596435546875, 4.9140625) (-0.00041072152709960936, 4.916015625) (-0.00040867315673828123, 4.91796875) (-0.00040627655029296876, 4.919921875) (-0.0004035400695800781, 4.921875) (-0.0004004427490234375, 4.923828125) (-0.00039697515869140625, 4.92578125) (-0.0003931723327636719, 4.927734375) (-0.00038911547851562496, 4.9296875) (-0.0003849717102050781, 4.931640625) (-0.00038094720458984373, 4.93359375) (-0.000377197998046875, 4.935546875) (-0.00037384008789062497, 4.9375) (-0.0003709560852050781, 4.939453125) (-0.0003686388549804687, 4.94140625) (-0.0003670079650878906, 4.943359375) (-0.0003661541442871094, 4.9453125) (-0.0003661710815429687, 4.947265625) (-0.0003671102294921875, 4.94921875) (-0.00036893569946289063, 4.951171875) (-0.0003717217407226562, 4.953125) (-0.0003756021728515625, 4.955078125) (-0.00038046228027343746, 4.95703125) (-0.00038606591796875, 4.958984375) (-0.0003919608154296875, 4.9609375) (-0.0003972542724609375, 4.962890625) (-0.0004011516418457031, 4.96484375) (-0.0004030484008789062, 4.966796875) (-0.00040208142089843746, 4.96875) (-0.0003976614990234375, 4.970703125) (-0.00038988446044921875, 4.97265625) (-0.00037886596679687496, 4.974609375) (-0.0003652557678222656, 4.9765625) (-0.000350857421875, 4.978515625) (-0.00033734698486328124, 4.98046875) (-0.0003261160888671875, 4.982421875) (-0.00031908251953125, 4.984375) (-0.00031560940551757813, 4.986328125) (-0.0003121022338867187, 4.98828125) (-0.0003077195129394531, 4.990234375) (-0.00030187908935546873, 4.9921875) (-0.00029495147705078126, 4.994140625) (-0.0002914744873046875, 4.99609375) (-0.00028655792236328124, 4.998046875) (-0.00026783273315429684, 5.0) (-0.00022464173889160156, 5.001953125) (-0.00014623561096191405, 5.00390625) (-3.65171012878418e-05, 5.005859375) (8.730364227294921e-05, 5.0078125) (0.00020928131103515625, 5.009765625) (0.0003183597412109375, 5.01171875) (0.000416042724609375, 5.013671875) (0.0005065609130859375, 5.015625) (0.0005887373657226562, 5.017578125) (0.0006513782348632813, 5.01953125) (0.0006689781494140625, 5.021484375) (0.0006256304931640625, 5.0234375) (0.000516626220703125, 5.025390625) (0.0003466397399902344, 5.02734375) (0.00014155044555664063, 5.029296875) (-7.409611511230469e-05, 5.03125) (-0.00027913214111328124, 5.033203125) (-0.0004479880981445312, 5.03515625) (-0.0005688151245117187, 5.037109375) (-0.0006384793701171875, 5.0390625) (-0.0006579462890624999, 5.041015625) (-0.00063866015625, 5.04296875) (-0.0005923674316406249, 5.044921875) (-0.0005264846801757812, 5.046875) (-0.0004513762512207031, 5.048828125) (-0.0003800542602539062, 5.05078125) (-0.000323080810546875, 5.052734375) (-0.00028914913940429686, 5.0546875) (-0.0002780810546875, 5.056640625) (-0.0002779505615234375, 5.05859375) (-0.0002782381286621094, 5.060546875) (-0.00027329754638671873, 5.0625) (-0.00026375735473632814, 5.064453125) (-0.0002577235107421875, 5.06640625) (-0.00026029302978515626, 5.068359375) (-0.0002707389526367187, 5.0703125) (-0.00028557080078125, 5.072265625) (-0.0002993417053222656, 5.07421875) (-0.000308654541015625, 5.076171875) (-0.0003131487121582031, 5.078125) (-0.00031327645874023436, 5.080078125) (-0.00030995037841796875, 5.08203125) (-0.00030413336181640626, 5.083984375) (-0.00029686639404296873, 5.0859375) (-0.0002895293273925781, 5.087890625) (-0.00028315130615234375, 5.08984375) (-0.0002783619384765625, 5.091796875) (-0.0002753922119140625, 5.09375) (-0.0002740801696777344, 5.095703125) (-0.0002742239074707031, 5.09765625) (-0.00027550872802734375, 5.099609375) (-0.00027734811401367184, 5.1015625) (-0.0002790565185546875, 5.103515625) (-0.0002801659545898437, 5.10546875) (-0.0002804253540039062, 5.107421875) (-0.0002797761840820312, 5.109375) (-0.0002783131103515625, 5.111328125) (-0.0002760808715820312, 5.11328125) (-0.0002731005859375, 5.115234375) (-0.0002694629211425781, 5.1171875) (-0.0002652884216308594, 5.119140625) (-0.00026067230224609375, 5.12109375) (-0.00025567567443847655, 5.123046875) (-0.0002503180236816406, 5.125) (-0.00024460516357421874, 5.126953125) (-0.00023858456420898437, 5.12890625) (-0.00023234124755859375, 5.130859375) (-0.00022597441101074217, 5.1328125) (-0.00021956832885742185, 5.134765625) (-0.000213172607421875, 5.13671875) (-0.00020681521606445312, 5.138671875) (-0.00020051544189453123, 5.140625) (-0.00019428826904296874, 5.142578125) (-0.00018814672851562498, 5.14453125) (-0.00018209417724609375, 5.146484375) (-0.00017612117004394532, 5.1484375) (-0.00017022105407714843, 5.150390625) (-0.0001643944854736328, 5.15234375) (-0.00015864840698242186, 5.154296875) (-0.00015299331665039062, 5.15625) (-0.00014743139648437499, 5.158203125) (-0.00014195545959472657, 5.16015625) (-0.00013655236816406249, 5.162109375) (-0.00013120562744140625, 5.1640625) (-0.00012590259552001953, 5.166015625) (-0.00012063671874999999, 5.16796875) (-0.00011540301513671875, 5.169921875) (-0.00011019783782958983, 5.171875) (-0.00010502093505859374, 5.173828125) (-9.987348175048828e-05, 5.17578125) (-9.475994873046874e-05, 5.177734375) (-8.968775177001952e-05, 5.1796875) (-8.465989685058593e-05, 5.181640625) (-7.967545318603515e-05, 5.18359375) (-7.473300170898437e-05, 5.185546875) (-6.983116149902344e-05, 5.1875) (-6.497006225585937e-05, 5.189453125) (-6.015142822265625e-05, 5.19140625) (-5.537711334228515e-05, 5.193359375) (-5.064942169189453e-05, 5.1953125) (-4.5974674224853516e-05, 5.197265625) (-4.136317443847656e-05, 5.19921875) (-3.68259048461914e-05, 5.201171875) (-3.2373386383056636e-05, 5.203125) (-2.8015487670898437e-05, 5.205078125) (-2.3761886596679687e-05, 5.20703125) (-1.9622676849365234e-05, 5.208984375) (-1.5608346939086913e-05, 5.2109375) (-1.1726729393005371e-05, 5.212890625) (-7.982097625732421e-06, 5.21484375) (-4.379386901855468e-06, 5.216796875) (-9.252237081527709e-07, 5.21875) (2.3714506626129148e-06, 5.220703125) (5.499342441558838e-06, 5.22265625) (8.448195457458496e-06, 5.224609375) (1.1208459854125976e-05, 5.2265625) (1.3768288612365722e-05, 5.228515625) (1.6114654541015625e-05, 5.23046875) (1.8233634948730468e-05, 5.232421875) (2.0111406326293946e-05, 5.234375) (2.1742929458618164e-05, 5.236328125) (2.3129417419433594e-05, 5.23828125) (2.4267324447631833e-05, 5.240234375) (2.515152359008789e-05, 5.2421875) (2.5768621444702147e-05, 5.244140625) (2.6095478057861326e-05, 5.24609375) (2.6122415542602537e-05, 5.248046875) (2.5849586486816404e-05, 5.25) (2.5273860931396483e-05, 5.251953125) (2.439902305603027e-05, 5.25390625) (2.3236705780029295e-05, 5.255859375) (2.1807666778564453e-05, 5.2578125) (2.0165035247802735e-05, 5.259765625) (1.8383949279785156e-05, 5.26171875) (1.6530204772949217e-05, 5.263671875) (1.4663098335266113e-05, 5.265625) (1.2823165893554687e-05, 5.267578125) (1.103674030303955e-05, 5.26953125) (9.349098205566405e-06, 5.271484375) (7.8082275390625e-06, 5.2734375) (6.460735321044922e-06, 5.275390625) (5.3566460609436035e-06, 5.27734375) (4.510629653930664e-06, 5.279296875) (3.9212150573730466e-06, 5.28125) (3.607753276824951e-06, 5.283203125) (3.5693728923797604e-06, 5.28515625) (3.766520023345947e-06, 5.287109375) (4.118725299835205e-06, 5.2890625) (4.46183967590332e-06, 5.291015625) (4.5954270362854005e-06, 5.29296875) (4.3558993339538575e-06, 5.294921875) (3.6070199012756347e-06, 5.296875) (2.247553825378418e-06, 5.298828125) (1.770075559616089e-07, 5.30078125) (-2.738871097564697e-06, 5.302734375) (-6.621083259582519e-06, 5.3046875) (-1.1574432373046874e-05, 5.306640625) (-1.7662120819091796e-05, 5.30859375) (-2.4847492218017577e-05, 5.310546875) (-3.3129386901855464e-05, 5.3125) (-4.2567550659179687e-05, 5.314453125) (-5.304338455200195e-05, 5.31640625) (-6.427365112304688e-05, 5.318359375) (-7.57494659423828e-05, 5.3203125) (-8.665521240234375e-05, 5.322265625) (-9.627183532714844e-05, 5.32421875) (-0.00010406755065917968, 5.326171875) (-0.00010941299438476563, 5.328125) (-0.00011177175903320312, 5.330078125) (-0.0001109188232421875, 5.33203125) (-0.00010684748840332031, 5.333984375) (-0.00010018336486816406, 5.3359375) (-9.204793548583984e-05, 5.337890625) (-8.326441955566406e-05, 5.33984375) (-7.457329559326172e-05, 5.341796875) (-6.672439575195312e-05, 5.34375) (-5.9935295104980465e-05, 5.345703125) (-5.404310607910156e-05, 5.34765625) (-4.8414634704589844e-05, 5.349609375) (-4.1135108947753907e-05, 5.3515625) (-2.9844524383544922e-05, 5.353515625) (-1.2576807975769042e-05, 5.35546875) (1.3006801605224609e-05, 5.357421875) (4.914965057373047e-05, 5.359375) (9.736416625976562e-05, 5.361328125) (0.00015909487915039062, 5.36328125) (0.00023304989624023435, 5.365234375) (0.00031380966186523435, 5.3671875) (0.00039591680908203125, 5.369140625) (0.00047372335815429686, 5.37109375) (0.0005463180541992187, 5.373046875) (0.0006193889770507812, 5.375) (0.00069334765625, 5.376953125) (0.000762918212890625, 5.37890625) (0.000813142578125, 5.380859375) (0.0008194490966796875, 5.3828125) (0.0007679434814453124, 5.384765625) (0.0006574822998046875, 5.38671875) (0.0004983542480468749, 5.388671875) (0.0003123742980957031, 5.390625) (0.0001181752700805664, 5.392578125) (-7.024853515625e-05, 5.39453125) (-0.0002378762512207031, 5.396484375) (-0.0003698783569335937, 5.3984375) (-0.0004545908508300781, 5.400390625) (-0.00048516070556640624, 5.40234375) (-0.0004634839477539062, 5.404296875) (-0.00040295281982421875, 5.40625) (-0.00031730117797851564, 5.408203125) (-0.00022084532165527344, 5.41015625) (-0.00012990695190429687, 5.412109375) (-5.3589714050292965e-05, 5.4140625) (-3.859257698059082e-07, 5.416015625) (2.784601593017578e-05, 5.41796875) (3.989711761474609e-05, 5.419921875) (4.268463134765625e-05, 5.421875) (4.420777511596679e-05, 5.423828125) (4.705107116699219e-05, 5.42578125) (4.5680431365966794e-05, 5.427734375) (3.832382583618164e-05, 5.4296875) (2.4493835449218748e-05, 5.431640625) (6.510391235351562e-06, 5.43359375) (-9.212282180786132e-06, 5.435546875) (-1.9777156829833985e-05, 5.4375) (-2.4727497100830075e-05, 5.439453125) (-2.4177047729492185e-05, 5.44140625) (-2.006958770751953e-05, 5.443359375) (-1.4038121223449707e-05, 5.4453125) (-6.970788955688476e-06, 5.447265625) (-4.83489990234375e-07, 5.44921875) (4.139840126037597e-06, 5.451171875) (6.4724612236022945e-06, 5.453125) (6.296567916870117e-06, 5.455078125) (3.832646369934082e-06, 5.45703125) (-3.665652275085449e-07, 5.458984375) (-5.822863101959228e-06, 5.4609375) (-1.1983552932739258e-05, 5.462890625) (-1.8117233276367186e-05, 5.46484375) (-2.3742830276489258e-05, 5.466796875) (-2.8669137954711913e-05, 5.46875) (-3.2812957763671876e-05, 5.470703125) (-3.6262111663818355e-05, 5.47265625) (-3.910124206542968e-05, 5.474609375) (-4.134347915649414e-05, 5.4765625) (-4.306378555297851e-05, 5.478515625) (-4.436504364013672e-05, 5.48046875) (-4.529780578613281e-05, 5.482421875) (-4.588399887084961e-05, 5.484375) (-4.6125431060791015e-05, 5.486328125) (-4.6003524780273436e-05, 5.48828125) (-4.554230117797851e-05, 5.490234375) (-4.479949951171875e-05, 5.4921875) (-4.381308364868164e-05, 5.494140625) (-4.2605804443359375e-05, 5.49609375) (-4.1178279876708985e-05, 5.498046875) (-3.9512279510498043e-05, 5.5) (-3.7592346191406246e-05, 5.501953125) (-3.540266418457031e-05, 5.50390625) (-3.29227409362793e-05, 5.505859375) (-3.0127502441406248e-05, 5.5078125) (-2.6994815826416015e-05, 5.509765625) (-2.3513011932373045e-05, 5.51171875) (-1.9680891036987305e-05, 5.513671875) (-1.5502679824829102e-05, 5.515625) (-1.0980334281921386e-05, 5.517578125) (-6.112298965454101e-06, 5.51953125) (-8.926923274993896e-07, 5.521484375) (4.683036804199219e-06, 5.5234375) (1.0612022399902343e-05, 5.525390625) (1.6886846542358396e-05, 5.52734375) (2.3493335723876952e-05, 5.529296875) (3.0410884857177732e-05, 5.53125) (3.7614311218261715e-05, 5.533203125) (4.507241821289062e-05, 5.53515625) (5.2748355865478514e-05, 5.537109375) (6.06019172668457e-05, 5.5390625) (6.859398651123046e-05, 5.541015625) (7.668672943115234e-05, 5.54296875) (8.484259033203125e-05, 5.544921875) (9.30235137939453e-05, 5.546875) (0.00010118917846679687, 5.548828125) (0.00010929777526855468, 5.55078125) (0.00011730723571777343, 5.552734375) (0.0001251754913330078, 5.5546875) (0.00013285891723632812, 5.556640625) (0.00014031256103515623, 5.55859375) (0.00014749156188964842, 5.560546875) (0.00015435202026367186, 5.5625) (0.00016085227966308594, 5.564453125) (0.00016695317077636718, 5.56640625) (0.00017261761474609373, 5.568359375) (0.0001778106994628906, 5.5703125) (0.0001825003204345703, 5.572265625) (0.00018665773010253907, 5.57421875) (0.00019025775146484374, 5.576171875) (0.00019327880859375, 5.578125) (0.0001957026672363281, 5.580078125) (0.0001975145263671875, 5.58203125) (0.00019870329284667968, 5.583984375) (0.00019926176452636718, 5.5859375) (0.00019918719482421874, 5.587890625) (0.00019848062133789063, 5.58984375) (0.00019714709472656248, 5.591796875) (0.00019519549560546875, 5.59375) (0.00019263879394531248, 5.595703125) (0.00018949398803710937, 5.59765625) (0.00018578225708007812, 5.599609375) (0.00018152835083007812, 5.6015625) (0.00017676011657714844, 5.603515625) (0.00017150839233398438, 5.60546875) (0.00016580706787109375, 5.607421875) (0.00015969276428222655, 5.609375) (0.00015320431518554687, 5.611328125) (0.00014638250732421874, 5.61328125) (0.00013926953125, 5.615234375) (0.0001319088439941406, 5.6171875) (0.00012434579467773436, 5.619140625) (0.00011662734985351562, 5.62109375) (0.00010880117797851562, 5.623046875) (0.00010091529083251953, 5.625) (9.301770019531249e-05, 5.626953125) (8.515621185302734e-05, 5.62890625) (7.737860107421875e-05, 5.630859375) (6.973219299316405e-05, 5.6328125) (6.226238250732422e-05, 5.634765625) (5.5012245178222655e-05, 5.63671875) (4.8022727966308594e-05, 5.638671875) (4.133248138427734e-05, 5.640625) (3.497799682617187e-05, 5.642578125) (2.8993221282958982e-05, 5.64453125) (2.3408660888671873e-05, 5.646484375) (1.825130271911621e-05, 5.6484375) (1.3545003890991211e-05, 5.650390625) (9.31052017211914e-06, 5.65234375) (5.565197944641113e-06, 5.654296875) (2.3227229118347167e-06, 5.65625) (-4.074873924255371e-07, 5.658203125) (-2.620284557342529e-06, 5.66015625) (-4.314236640930175e-06, 5.662109375) (-5.491535663604736e-06, 5.6640625) (-6.157823085784912e-06, 5.666015625) (-6.322320938110351e-06, 5.66796875) (-5.998139858245849e-06, 5.669921875) (-5.20203971862793e-06, 5.671875) (-3.953489303588867e-06, 5.673828125) (-2.2740869522094726e-06, 5.67578125) (-1.8742203712463378e-07, 5.677734375) (2.2807302474975583e-06, 5.6796875) (5.1015033721923825e-06, 5.681640625) (8.242986679077148e-06, 5.68359375) (1.167202091217041e-05, 5.685546875) (1.5354822158813474e-05, 5.6875) (1.925555992126465e-05, 5.689453125) (2.3335977554321287e-05, 5.69140625) (2.755445098876953e-05, 5.693359375) (3.186626815795898e-05, 5.6953125) (3.6227447509765624e-05, 5.697265625) (4.059577560424804e-05, 5.69921875) (4.492841720581054e-05, 5.701171875) (4.91817512512207e-05, 5.703125) (5.331306076049804e-05, 5.705078125) (5.7281066894531245e-05, 5.70703125) (6.104967498779297e-05, 5.708984375) (6.458921813964844e-05, 5.7109375) (6.786985778808593e-05, 5.712890625) (7.086112976074219e-05, 5.71484375) (7.3533935546875e-05, 5.716796875) (7.585940551757813e-05, 5.71875) (7.781358337402344e-05, 5.720703125) (7.937837219238281e-05, 5.72265625) (8.05361328125e-05, 5.724609375) (8.12698516845703e-05, 5.7265625) (8.156733703613281e-05, 5.728515625) (8.142037963867187e-05, 5.73046875) (8.082930755615233e-05, 5.732421875) (7.980564880371094e-05, 5.734375) (7.835711669921875e-05, 5.736328125) (7.648741912841797e-05, 5.73828125) (7.419589233398438e-05, 5.740234375) (7.147217559814453e-05, 5.7421875) (6.831671142578124e-05, 5.744140625) (6.47430191040039e-05, 5.74609375) (6.076737594604492e-05, 5.748046875) (5.6413619995117187e-05, 5.75) (5.1715385437011716e-05, 5.751953125) (4.671367263793945e-05, 5.75390625) (4.147229766845703e-05, 5.755859375) (3.608060836791992e-05, 5.7578125) (3.061820602416992e-05, 5.759765625) (2.5157705307006836e-05, 5.76171875) (1.976748275756836e-05, 5.763671875) (1.4497594833374023e-05, 5.765625) (9.414843559265136e-06, 5.767578125) (4.596595764160156e-06, 5.76953125) (1.1167120933532715e-07, 5.771484375) (-3.9617052078247065e-06, 5.7734375) (-7.556704044342041e-06, 5.775390625) (-1.0624401092529297e-05, 5.77734375) (-1.3131549835205078e-05, 5.779296875) (-1.5075231552124023e-05, 5.78125) (-1.649376106262207e-05, 5.783203125) (-1.7453624725341795e-05, 5.78515625) (-1.8042951583862303e-05, 5.787109375) (-1.8381664276123046e-05, 5.7890625) (-1.8592445373535155e-05, 5.791015625) (-1.8816232681274412e-05, 5.79296875) (-1.920689010620117e-05, 5.794921875) (-1.98949031829834e-05, 5.796875) (-2.1015586853027343e-05, 5.798828125) (-2.2665813446044922e-05, 5.80078125) (-2.495176887512207e-05, 5.802734375) (-2.8058946609497068e-05, 5.8046875) (-3.205797576904297e-05, 5.806640625) (-3.687189483642578e-05, 5.80859375) (-4.225141906738281e-05, 5.810546875) (-4.7662326812744136e-05, 5.8125) (-5.251789855957031e-05, 5.814453125) (-5.638992691040039e-05, 5.81640625) (-5.876472854614258e-05, 5.818359375) (-5.895706939697266e-05, 5.8203125) (-5.661222076416015e-05, 5.822265625) (-5.16948127746582e-05, 5.82421875) (-4.461780929565429e-05, 5.826171875) (-3.664377975463867e-05, 5.828125) (-2.9045017242431638e-05, 5.830078125) (-2.262845420837402e-05, 5.83203125) (-1.825801086425781e-05, 5.833984375) (-1.6744373321533203e-05, 5.8359375) (-1.8210611343383787e-05, 5.837890625) (-2.2092119216918944e-05, 5.83984375) (-2.6871438980102537e-05, 5.841796875) (-2.9490598678588865e-05, 5.84375) (-2.6507732391357422e-05, 5.845703125) (-1.4999103546142577e-05, 5.84765625) (7.876266956329345e-06, 5.849609375) (4.494168090820312e-05, 5.8515625) (9.826019287109374e-05, 5.853515625) (0.00016867506408691405, 5.85546875) (0.00025583880615234376, 5.857421875) (0.00035529476928710936, 5.859375) (0.0004591738891601562, 5.861328125) (0.0005604286499023437, 5.86328125) (0.0006518027954101562, 5.865234375) (0.0007312442016601562, 5.8671875) (0.0008023314208984375, 5.869140625) (0.0008642117919921875, 5.87109375) (0.0009137958984375, 5.873046875) (0.0009386352539062499, 5.875) (0.0009171317138671874, 5.876953125) (0.000836755615234375, 5.87890625) (0.0006907330322265625, 5.880859375) (0.0004893684692382813, 5.8828125) (0.00026472314453125, 5.884765625) (4.816763687133789e-05, 5.88671875) (-0.00012733531188964843, 5.888671875) (-0.00024028361511230467, 5.890625) (-0.0002938986511230469, 5.892578125) (-0.0002984891357421875, 5.89453125) (-0.000269915771484375, 5.896484375) (-0.00022479429626464842, 5.8984375) (-0.00017012057495117185, 5.900390625) (-0.000113318115234375, 5.90234375) (-6.644502258300782e-05, 5.904296875) (-3.906671524047851e-05, 5.90625) (-3.707979583740234e-05, 5.908203125) (-5.757431411743164e-05, 5.91015625) (-8.624314880371094e-05, 5.912109375) (-0.00010963179016113281, 5.9140625) (-0.00012058744812011719, 5.916015625) (-0.00011935983276367187, 5.91796875) (-0.00011362824249267578, 5.919921875) (-0.00010897447204589843, 5.921875) (-0.00010670027923583983, 5.923828125) (-0.00010582475280761718, 5.92578125) (-0.0001033035888671875, 5.927734375) (-9.81385498046875e-05, 5.9296875) (-9.147465515136718e-05, 5.931640625) (-8.439707946777344e-05, 5.93359375) (-7.813905334472656e-05, 5.935546875) (-7.344613647460937e-05, 5.9375) (-7.025756072998046e-05, 5.939453125) (-6.851511383056641e-05, 5.94140625) (-6.81043930053711e-05, 5.943359375) (-6.86415786743164e-05, 5.9453125) (-6.980136108398437e-05, 5.947265625) (-7.13476104736328e-05, 5.94921875) (-7.306835174560546e-05, 5.951171875) (-7.480005645751953e-05, 5.953125) (-7.641426086425781e-05, 5.955078125) (-7.772491455078125e-05, 5.95703125) (-7.850268554687499e-05, 5.958984375) (-7.862892150878906e-05, 5.9609375) (-7.803329467773437e-05, 5.962890625) (-7.666234588623047e-05, 5.96484375) (-7.451141357421874e-05, 5.966796875) (-7.156185150146484e-05, 5.96875) (-6.78028564453125e-05, 5.970703125) (-6.328186416625976e-05, 5.97265625) (-5.809007263183594e-05, 5.974609375) (-5.2319816589355466e-05, 5.9765625) (-4.6061691284179684e-05, 5.978515625) (-3.93948974609375e-05, 5.98046875) (-3.237700271606445e-05, 5.982421875) (-2.5086421966552733e-05, 5.984375) (-1.761940574645996e-05, 5.986328125) (-1.0081156730651854e-05, 5.98828125) (-2.5878412723541257e-06, 5.990234375) (4.773284912109375e-06, 5.9921875) (1.1941679000854492e-05, 5.994140625) (1.8866092681884765e-05, 5.99609375) (2.5507308959960936e-05, 5.998046875) (3.183100891113281e-05, 6.0) (3.781063461303711e-05, 6.001953125) (4.3441864013671874e-05, 6.00390625) (4.873915863037109e-05, 6.005859375) (5.371087646484375e-05, 6.0078125) (5.835836791992187e-05, 6.009765625) (6.26788215637207e-05, 6.01171875) (6.666364288330078e-05, 6.013671875) (7.031433868408203e-05, 6.015625) (7.364074707031249e-05, 6.017578125) (7.665181732177734e-05, 6.01953125) (7.935620880126953e-05, 6.021484375) (8.175959014892578e-05, 6.0234375) (8.386562347412108e-05, 6.025390625) (8.568038177490233e-05, 6.02734375) (8.721157836914061e-05, 6.029296875) (8.846455383300781e-05, 6.03125) (8.9442626953125e-05, 6.033203125) (9.014710998535156e-05, 6.03515625) (9.05782241821289e-05, 6.037109375) (9.074084472656249e-05, 6.0390625) (9.06435546875e-05, 6.041015625) (9.029583740234374e-05, 6.04296875) (8.970866394042968e-05, 6.044921875) (8.889331054687499e-05, 6.046875) (8.786122131347656e-05, 6.048828125) (8.662579345703124e-05, 6.05078125) (8.520147705078124e-05, 6.052734375) (8.360150146484374e-05, 6.0546875) (8.183821868896484e-05, 6.056640625) (7.992372894287108e-05, 6.05859375) (7.786968231201171e-05, 6.060546875) (7.568841552734375e-05, 6.0625) (7.339268493652344e-05, 6.064453125) (7.099452972412109e-05, 6.06640625) (6.850546264648438e-05, 6.068359375) (6.593716430664062e-05, 6.0703125) (6.330142974853515e-05, 6.072265625) (6.0610195159912107e-05, 6.07421875) (5.78754653930664e-05, 6.076171875) (5.5108509063720704e-05, 6.078125) (5.232001876831054e-05, 6.080078125) (4.952078247070312e-05, 6.08203125) (4.6721786499023436e-05, 6.083984375) (4.393381881713867e-05, 6.0859375) (4.116729354858398e-05, 6.087890625) (3.843196868896484e-05, 6.08984375) (3.573696517944336e-05, 6.091796875) (3.309133148193359e-05, 6.09375) (3.0503942489624023e-05, 6.095703125) (2.7983219146728514e-05, 6.09765625) (2.55369758605957e-05, 6.099609375) (2.3172218322753906e-05, 6.1015625) (2.0895214080810546e-05, 6.103515625) (1.8711763381958006e-05, 6.10546875) (1.6627105712890625e-05, 6.107421875) (1.4645627975463867e-05, 6.109375) (1.2770855903625487e-05, 6.111328125) (1.1005305290222168e-05, 6.11328125) (9.350500106811523e-06, 6.115234375) (7.807522773742676e-06, 6.1171875) (6.3769283294677736e-06, 6.119140625) (5.058510303497314e-06, 6.12109375) (3.851354598999024e-06, 6.123046875) (2.7536487579345703e-06, 6.125) (1.7626707553863525e-06, 6.126953125) (8.750142455101012e-07, 6.12890625) (8.652389049530029e-08, 6.130859375) (-6.080378293991088e-07, 6.1328125) (-1.2149770259857177e-06, 6.134765625) (-1.741652488708496e-06, 6.13671875) (-2.1964650154113767e-06, 6.138671875) (-2.5885939598083497e-06, 6.140625) (-2.9279801845550538e-06, 6.142578125) (-3.2253940105438233e-06, 6.14453125) (-3.4923353195190426e-06, 6.146484375) (-3.7409145832061764e-06, 6.1484375) (-3.983725070953369e-06, 6.150390625) (-4.233669281005859e-06, 6.15234375) (-4.503868579864502e-06, 6.154296875) (-4.8076453208923335e-06, 6.15625) (-5.158379554748535e-06, 6.158203125) (-5.569352149963378e-06, 6.16015625) (-6.053592681884766e-06, 6.162109375) (-6.62363862991333e-06, 6.1640625) (-7.291409969329834e-06, 6.166015625) (-8.068099021911621e-06, 6.16796875) (-8.964000701904297e-06, 6.169921875) (-9.988357543945312e-06, 6.171875) (-1.1149230003356932e-05, 6.173828125) (-1.2453351974487304e-05, 6.17578125) (-1.3906064987182616e-05, 6.177734375) (-1.5511335372924802e-05, 6.1796875) (-1.7271692276000977e-05, 6.181640625) (-1.9188148498535154e-05, 6.18359375) (-2.1260158538818358e-05, 6.185546875) (-2.3485532760620115e-05, 6.1875) (-2.5860406875610352e-05, 6.189453125) (-2.8379253387451172e-05, 6.19140625) (-3.1034828186035154e-05, 6.193359375) (-3.381813812255859e-05, 6.1953125) (-3.671841430664062e-05, 6.197265625) (-3.972315216064453e-05, 6.19921875) (-4.2818145751953125e-05, 6.201171875) (-4.5987602233886714e-05, 6.203125) (-4.92142105102539e-05, 6.205078125) (-5.24792594909668e-05, 6.20703125) (-5.576275634765625e-05, 6.208984375) (-5.9043575286865234e-05, 6.2109375) (-6.229962921142578e-05, 6.212890625) (-6.5508056640625e-05, 6.21484375) (-6.864537048339844e-05, 6.216796875) (-7.168772888183593e-05, 6.21875) (-7.461108398437499e-05, 6.220703125) (-7.739144897460937e-05, 6.22265625) (-8.000516510009765e-05, 6.224609375) (-8.242913055419921e-05, 6.2265625) (-8.464105224609374e-05, 6.228515625) (-8.661972045898437e-05, 6.23046875) (-8.834518432617187e-05, 6.232421875) (-8.979904174804687e-05, 6.234375) (-9.096454620361328e-05, 6.236328125) (-9.182691192626952e-05, 6.23828125) (-9.237329864501953e-05, 6.240234375) (-9.259304809570312e-05, 6.2421875) (-9.24777374267578e-05, 6.244140625) (-9.202127838134766e-05, 6.24609375) (-9.122003173828124e-05, 6.248046875) (-9.007284545898437e-05, 6.25) (-8.85810546875e-05, 6.251953125) (-8.674856567382812e-05, 6.25390625) (-8.458192443847656e-05, 6.255859375) (-8.209025573730469e-05, 6.2578125) (-7.928521728515624e-05, 6.259765625) (-7.618107604980469e-05, 6.26171875) (-7.279447937011719e-05, 6.263671875) (-6.914453887939453e-05, 6.265625) (-6.525276947021484e-05, 6.267578125) (-6.114286041259765e-05, 6.26953125) (-5.684057235717773e-05, 6.271484375) (-5.237361145019531e-05, 6.2734375) (-4.777139282226562e-05, 6.275390625) (-4.3064903259277344e-05, 6.27734375) (-3.828652954101562e-05, 6.279296875) (-3.346963119506836e-05, 6.28125) (-2.864827537536621e-05, 6.283203125) (-2.3856969833374023e-05, 6.28515625) (-1.913027000427246e-05, 6.287109375) (-1.4502573013305663e-05, 6.2890625) (-1.0007877349853515e-05, 6.291015625) (-5.679376602172851e-06, 6.29296875) (-1.5491443872451782e-06, 6.294921875) (2.3521208763122555e-06, 6.296875) (5.995466232299805e-06, 6.298828125) (9.35379409790039e-06, 6.30078125) (1.240192699432373e-05, 6.302734375) (1.5117034912109375e-05, 6.3046875) (1.7478843688964843e-05, 6.306640625) (1.9469720840454102e-05, 6.30859375) (2.1074922561645508e-05, 6.310546875) (2.2282453536987305e-05, 6.3125) (2.308292007446289e-05, 6.314453125) (2.346991729736328e-05, 6.31640625) (2.3440181732177734e-05, 6.318359375) (2.2993324279785155e-05, 6.3203125) (2.213196563720703e-05, 6.322265625) (2.0861566543579102e-05, 6.32421875) (1.9190174102783203e-05, 6.326171875) (1.7128887176513673e-05, 6.328125) (1.4691947937011718e-05, 6.330078125) (1.1896357536315918e-05, 6.33203125) (8.761865615844726e-06, 6.333984375) (5.3109111785888666e-06, 6.3359375) (1.568252444267273e-06, 6.337890625) (-2.4388303756713867e-06, 6.33984375) (-6.680471420288086e-06, 6.341796875) (-1.1125080108642577e-05, 6.34375) (-1.5739518165588378e-05, 6.345703125) (-2.0489440917968748e-05, 6.34765625) (-2.5339910507202148e-05, 6.349609375) (-3.0255146026611326e-05, 6.3515625) (-3.5198612213134765e-05, 6.353515625) (-4.013362121582031e-05, 6.35546875) (-4.502374267578125e-05, 6.357421875) (-4.9833106994628905e-05, 6.359375) (-5.4527038574218745e-05, 6.361328125) (-5.907176971435547e-05, 6.36328125) (-6.343417358398437e-05, 6.365234375) (-6.758283233642578e-05, 6.3671875) (-7.148849487304687e-05, 6.369140625) (-7.512407684326171e-05, 6.37109375) (-7.84651870727539e-05, 6.373046875) (-8.148956298828124e-05, 6.375) 