(8.699691772460937e-06, 0.0) (4.351122379302978e-07, 0.001953125) (-7.937545776367187e-06, 0.00390625) (-1.62824649810791e-05, 0.005859375) (-2.4470333099365234e-05, 0.0078125) (-3.240347290039062e-05, 0.009765625) (-4.0000541687011716e-05, 0.01171875) (-4.717860412597656e-05, 0.013671875) (-5.3841144561767574e-05, 0.015625) (-5.987348556518555e-05, 0.017578125) (-6.519641876220703e-05, 0.01953125) (-6.978005218505859e-05, 0.021484375) (-7.364159393310546e-05, 0.0234375) (-7.683063507080078e-05, 0.025390625) (-7.938385009765625e-05, 0.02734375) (-8.133607482910156e-05, 0.029296875) (-8.273383331298828e-05, 0.03125) (-8.364891815185547e-05, 0.033203125) (-8.418158721923828e-05, 0.03515625) (-8.442511749267578e-05, 0.037109375) (-8.444972229003906e-05, 0.0390625) (-8.4298828125e-05, 0.041015625) (-8.40118408203125e-05, 0.04296875) (-8.363998413085937e-05, 0.044921875) (-8.32523422241211e-05, 0.046875) (-8.292977905273437e-05, 0.048828125) (-8.272492980957031e-05, 0.05078125) (-8.2662109375e-05, 0.052734375) (-8.274380493164062e-05, 0.0546875) (-8.29598388671875e-05, 0.056640625) (-8.330905151367187e-05, 0.05859375) (-8.378329467773437e-05, 0.060546875) (-8.435762023925781e-05, 0.0625) (-8.498519897460937e-05, 0.064453125) (-8.560538482666015e-05, 0.06640625) (-8.617424011230468e-05, 0.068359375) (-8.667096710205078e-05, 0.0703125) (-8.709106445312499e-05, 0.072265625) (-8.743075561523437e-05, 0.07421875) (-8.76788558959961e-05, 0.076171875) (-8.781607055664062e-05, 0.078125) (-8.782305908203125e-05, 0.080078125) (-8.769651794433593e-05, 0.08203125) (-8.74397964477539e-05, 0.083984375) (-8.705821990966797e-05, 0.0859375) (-8.655762481689453e-05, 0.087890625) (-8.594017791748047e-05, 0.08984375) (-8.521578979492188e-05, 0.091796875) (-8.440589141845702e-05, 0.09375) (-8.354238891601562e-05, 0.095703125) (-8.266039276123047e-05, 0.09765625) (-8.178472900390625e-05, 0.099609375) (-8.092953491210937e-05, 0.1015625) (-8.010325622558593e-05, 0.103515625) (-7.93135986328125e-05, 0.10546875) (-7.856895446777344e-05, 0.107421875) (-7.787745666503906e-05, 0.109375) (-7.724301147460937e-05, 0.111328125) (-7.666351318359375e-05, 0.11328125) (-7.613853454589844e-05, 0.115234375) (-7.567051696777344e-05, 0.1171875) (-7.526332092285155e-05, 0.119140625) (-7.49216079711914e-05, 0.12109375) (-7.464637756347655e-05, 0.123046875) (-7.443455505371093e-05, 0.125) (-7.42808609008789e-05, 0.126953125) (-7.418001556396484e-05, 0.12890625) (-7.412823486328124e-05, 0.130859375) (-7.412272644042968e-05, 0.1328125) (-7.416082000732422e-05, 0.134765625) (-7.423968505859375e-05, 0.13671875) (-7.435722351074219e-05, 0.138671875) (-7.451231384277343e-05, 0.140625) (-7.470535278320312e-05, 0.142578125) (-7.49374542236328e-05, 0.14453125) (-7.520809936523437e-05, 0.146484375) (-7.551549530029297e-05, 0.1484375) (-7.585711669921875e-05, 0.150390625) (-7.622993469238281e-05, 0.15234375) (-7.663111114501953e-05, 0.154296875) (-7.705780029296875e-05, 0.15625) (-7.750665283203124e-05, 0.158203125) (-7.79739990234375e-05, 0.16015625) (-7.845675659179687e-05, 0.162109375) (-7.895242309570312e-05, 0.1640625) (-7.945873260498046e-05, 0.166015625) (-7.99736328125e-05, 0.16796875) (-8.049486541748047e-05, 0.169921875) (-8.102004241943359e-05, 0.171875) (-8.154698181152343e-05, 0.173828125) (-8.207360076904296e-05, 0.17578125) (-8.259780883789062e-05, 0.177734375) (-8.311747741699218e-05, 0.1796875) (-8.36304702758789e-05, 0.181640625) (-8.413483428955078e-05, 0.18359375) (-8.462893676757812e-05, 0.185546875) (-8.511138916015624e-05, 0.1875) (-8.55809326171875e-05, 0.189453125) (-8.603631591796875e-05, 0.19140625) (-8.647622680664062e-05, 0.193359375) (-8.689945220947265e-05, 0.1953125) (-8.7304931640625e-05, 0.197265625) (-8.769157409667968e-05, 0.19921875) (-8.80582504272461e-05, 0.201171875) (-8.840377807617187e-05, 0.203125) (-8.87269058227539e-05, 0.205078125) (-8.902659606933594e-05, 0.20703125) (-8.930204772949219e-05, 0.208984375) (-8.955271911621093e-05, 0.2109375) (-8.977817535400391e-05, 0.212890625) (-8.997810363769531e-05, 0.21484375) (-9.015229797363282e-05, 0.216796875) (-9.030067443847656e-05, 0.21875) (-9.04234161376953e-05, 0.220703125) (-9.052078247070312e-05, 0.22265625) (-9.059292602539062e-05, 0.224609375) (-9.063992309570312e-05, 0.2265625) (-9.066189575195313e-05, 0.228515625) (-9.065895843505858e-05, 0.23046875) (-9.063134765625e-05, 0.232421875) (-9.0579345703125e-05, 0.234375) (-9.050319671630859e-05, 0.236328125) (-9.040312194824219e-05, 0.23828125) (-9.027935791015625e-05, 0.240234375) (-9.013217163085937e-05, 0.2421875) (-8.996183776855469e-05, 0.244140625) (-8.976863098144531e-05, 0.24609375) (-8.955278015136719e-05, 0.248046875) (-8.9314453125e-05, 0.25) (-8.905389404296874e-05, 0.251953125) (-8.877142333984375e-05, 0.25390625) (-8.846747589111328e-05, 0.255859375) (-8.814259338378906e-05, 0.2578125) (-8.779741668701172e-05, 0.259765625) (-8.743266296386718e-05, 0.26171875) (-8.704913330078125e-05, 0.263671875) (-8.664777374267578e-05, 0.265625) (-8.622956848144531e-05, 0.267578125) (-8.579556274414062e-05, 0.26953125) (-8.534678649902344e-05, 0.271484375) (-8.488429260253906e-05, 0.2734375) (-8.44091796875e-05, 0.275390625) (-8.392257690429688e-05, 0.27734375) (-8.342568206787109e-05, 0.279296875) (-8.291972351074219e-05, 0.28125) (-8.240597534179688e-05, 0.283203125) (-8.188575744628906e-05, 0.28515625) (-8.136044311523437e-05, 0.287109375) (-8.083143615722656e-05, 0.2890625) (-8.030015563964844e-05, 0.291015625) (-7.976800537109375e-05, 0.29296875) (-7.923634338378905e-05, 0.294921875) (-7.870651245117187e-05, 0.296875) (-7.81798324584961e-05, 0.298828125) (-7.765766143798828e-05, 0.30078125) (-7.714130401611328e-05, 0.302734375) (-7.663208007812499e-05, 0.3046875) (-7.613129425048828e-05, 0.306640625) (-7.564022064208985e-05, 0.30859375) (-7.516014862060547e-05, 0.310546875) (-7.469231414794921e-05, 0.3125) (-7.423779296874999e-05, 0.314453125) (-7.37974853515625e-05, 0.31640625) (-7.337200927734375e-05, 0.318359375) (-7.296182250976563e-05, 0.3203125) (-7.256716918945312e-05, 0.322265625) (-7.218809509277344e-05, 0.32421875) (-7.182437133789062e-05, 0.326171875) (-7.147557067871093e-05, 0.328125) (-7.114102935791015e-05, 0.330078125) (-7.081990051269531e-05, 0.33203125) (-7.051124572753905e-05, 0.333984375) (-7.021386718749999e-05, 0.3359375) (-6.99263687133789e-05, 0.337890625) (-6.964706420898437e-05, 0.33984375) (-6.937403869628906e-05, 0.341796875) (-6.910511779785156e-05, 0.34375) (-6.883793640136719e-05, 0.345703125) (-6.856989288330078e-05, 0.34765625) (-6.829812622070312e-05, 0.349609375) (-6.801962280273437e-05, 0.3515625) (-6.773119354248047e-05, 0.353515625) (-6.742953491210937e-05, 0.35546875) (-6.711128997802734e-05, 0.357421875) (-6.677309417724609e-05, 0.359375) (-6.641142272949218e-05, 0.361328125) (-6.602262878417968e-05, 0.36328125) (-6.560303497314453e-05, 0.365234375) (-6.514888763427734e-05, 0.3671875) (-6.465644073486328e-05, 0.369140625) (-6.412188720703125e-05, 0.37109375) (-6.354128646850585e-05, 0.373046875) (-6.29107437133789e-05, 0.375) (-6.22265167236328e-05, 0.376953125) (-6.148519134521484e-05, 0.37890625) (-6.068379211425781e-05, 0.380859375) (-5.9819625854492184e-05, 0.3828125) (-5.8890129089355464e-05, 0.384765625) (-5.789306259155273e-05, 0.38671875) (-5.6826568603515625e-05, 0.388671875) (-5.568909454345703e-05, 0.390625) (-5.447955703735351e-05, 0.392578125) (-5.3197113037109376e-05, 0.39453125) (-5.1841022491455076e-05, 0.396484375) (-5.041089630126953e-05, 0.3984375) (-4.8906879425048824e-05, 0.400390625) (-4.732952499389648e-05, 0.40234375) (-4.5679931640625e-05, 0.404296875) (-4.3959789276123046e-05, 0.40625) (-4.217109298706054e-05, 0.408203125) (-4.031631088256836e-05, 0.41015625) (-3.839856719970703e-05, 0.412109375) (-3.642140960693359e-05, 0.4140625) (-3.438876724243164e-05, 0.416015625) (-3.230499267578125e-05, 0.41796875) (-3.0174789428710935e-05, 0.419921875) (-2.8003055572509765e-05, 0.421875) (-2.5795345306396483e-05, 0.423828125) (-2.3557769775390625e-05, 0.42578125) (-2.129673194885254e-05, 0.427734375) (-1.901934814453125e-05, 0.4296875) (-1.6733482360839843e-05, 0.431640625) (-1.444799518585205e-05, 0.43359375) (-1.2172703742980956e-05, 0.435546875) (-9.918437957763671e-06, 0.4375) (-7.696441650390625e-06, 0.439453125) (-5.517976760864257e-06, 0.44140625) (-3.395024299621582e-06, 0.443359375) (-1.3400076627731322e-06, 0.4453125) (6.33878469467163e-07, 0.447265625) (2.513445854187012e-06, 0.44921875) (4.286116600036621e-06, 0.451171875) (5.939316749572753e-06, 0.453125) (7.460354804992676e-06, 0.455078125) (8.83565330505371e-06, 0.45703125) (1.005104637145996e-05, 0.458984375) (1.10928955078125e-05, 0.4609375) (1.1950160026550292e-05, 0.462890625) (1.261310577392578e-05, 0.46484375) (1.3071285247802733e-05, 0.466796875) (1.3316431999206543e-05, 0.46875) (1.3340300559997557e-05, 0.470703125) (1.313609504699707e-05, 0.47265625) (1.270302391052246e-05, 0.474609375) (1.2041106224060058e-05, 0.4765625) (1.1148288726806641e-05, 0.478515625) (1.0020715713500976e-05, 0.48046875) (8.652387619018554e-06, 0.482421875) (7.034838199615478e-06, 0.484375) (5.162772178649902e-06, 0.486328125) (3.0346834659576415e-06, 0.48828125) (6.460240483283997e-07, 0.490234375) (-2.007652521133423e-06, 0.4921875) (-4.933724403381347e-06, 0.494140625) (-8.137481689453124e-06, 0.49609375) (-1.1611754417419433e-05, 0.498046875) (-1.5344877243041992e-05, 0.5) (-1.9320066452026368e-05, 0.501953125) (-2.3519325256347656e-05, 0.50390625) (-2.79323616027832e-05, 0.505859375) (-3.254167175292969e-05, 0.5078125) (-3.7310333251953126e-05, 0.509765625) (-4.2187103271484376e-05, 0.51171875) (-4.7111068725585935e-05, 0.513671875) (-5.200713729858398e-05, 0.515625) (-5.679829025268554e-05, 0.517578125) (-6.140732955932618e-05, 0.51953125) (-6.573685455322265e-05, 0.521484375) (-6.968435668945313e-05, 0.5234375) (-7.314887237548828e-05, 0.525390625) (-7.603507995605469e-05, 0.52734375) (-7.82784423828125e-05, 0.529296875) (-7.983831024169921e-05, 0.53125) (-8.070094299316406e-05, 0.533203125) (-8.088233947753906e-05, 0.53515625) (-8.040591430664062e-05, 0.537109375) (-7.93224868774414e-05, 0.5390625) (-7.770410919189453e-05, 0.541015625) (-7.562358856201171e-05, 0.54296875) (-7.319489288330077e-05, 0.544921875) (-7.058207702636719e-05, 0.546875) (-6.797107696533203e-05, 0.548828125) (-6.557314300537109e-05, 0.55078125) (-6.362058258056641e-05, 0.552734375) (-6.230979919433593e-05, 0.5546875) (-6.193179702758789e-05, 0.556640625) (-6.291363143920898e-05, 0.55859375) (-6.547279357910156e-05, 0.560546875) (-6.961524963378905e-05, 0.5625) (-7.509420013427734e-05, 0.564453125) (-8.122392272949218e-05, 0.56640625) (-8.734605407714844e-05, 0.568359375) (-9.302383422851562e-05, 0.5703125) (-9.752597045898437e-05, 0.572265625) (-9.990308380126952e-05, 0.57421875) (-9.978507232666016e-05, 0.576171875) (-9.724052429199218e-05, 0.578125) (-9.298306274414063e-05, 0.580078125) (-8.915584564208984e-05, 0.58203125) (-8.782402801513671e-05, 0.583984375) (-9.028362274169922e-05, 0.5859375) (-9.849798583984375e-05, 0.587890625) (-0.00011331839752197266, 0.58984375) (-0.00013275674438476562, 0.591796875) (-0.00015432337951660157, 0.59375) (-0.00017415126037597655, 0.595703125) (-0.00018852488708496093, 0.59765625) (-0.0001993328399658203, 0.599609375) (-0.00020833123779296874, 0.6015625) (-0.0002131735382080078, 0.603515625) (-0.0002074931640625, 0.60546875) (-0.0001754093017578125, 0.607421875) (-0.00010068193054199218, 0.609375) (2.440045166015625e-05, 0.611328125) (0.00020044561767578123, 0.61328125) (0.0004137788391113281, 0.615234375) (0.0006410209350585938, 0.6171875) (0.0008572872924804688, 0.619140625) (0.001033817138671875, 0.62109375) (0.0011489735107421874, 0.623046875) (0.001194518310546875, 0.625) (0.0011719177246093749, 0.626953125) (0.0010951763916015624, 0.62890625) (0.000981489501953125, 0.630859375) (0.0008422779541015625, 0.6328125) (0.0006867089233398437, 0.634765625) (0.0005209366455078125, 0.63671875) (0.0003532491149902344, 0.638671875) (0.000197780517578125, 0.640625) (6.605027770996094e-05, 0.642578125) (-3.46573600769043e-05, 0.64453125) (-0.00010435305786132812, 0.646484375) (-0.00015218869018554686, 0.6484375) (-0.00018515345764160156, 0.650390625) (-0.0002067024688720703, 0.65234375) (-0.00021706658935546875, 0.654296875) (-0.00021134420776367185, 0.65625) (-0.00018870689392089842, 0.658203125) (-0.00015302967834472656, 0.66015625) (-0.00010991268920898437, 0.662109375) (-6.667027282714843e-05, 0.6640625) (-2.7639198303222656e-05, 0.666015625) (5.656726837158203e-06, 0.66796875) (3.252519607543945e-05, 0.669921875) (5.269818878173828e-05, 0.671875) (6.551105499267578e-05, 0.673828125) (7.08954086303711e-05, 0.67578125) (7.036837005615233e-05, 0.677734375) (6.615692901611327e-05, 0.6796875) (6.028810119628906e-05, 0.681640625) (5.465949249267578e-05, 0.68359375) (5.01481819152832e-05, 0.685546875) (4.721570205688476e-05, 0.6875) (4.6868713378906246e-05, 0.689453125) (4.949164199829101e-05, 0.69140625) (5.458647537231445e-05, 0.693359375) (6.130660247802735e-05, 0.6953125) (6.834381103515625e-05, 0.697265625) (7.420103454589844e-05, 0.69921875) (7.823226928710937e-05, 0.701171875) (8.021514129638672e-05, 0.703125) (7.972967529296874e-05, 0.705078125) (7.67671890258789e-05, 0.70703125) (7.156840515136718e-05, 0.708984375) (6.444036865234375e-05, 0.7109375) (5.614857864379882e-05, 0.712890625) (4.762985610961914e-05, 0.71484375) (3.942231750488281e-05, 0.716796875) (3.1846834182739255e-05, 0.71875) (2.5154912948608398e-05, 0.720703125) (1.9404253005981443e-05, 0.72265625) (1.4688087463378905e-05, 0.724609375) (1.1132896423339844e-05, 0.7265625) (8.687814712524413e-06, 0.728515625) (7.230517387390137e-06, 0.73046875) (6.670671463012695e-06, 0.732421875) (6.914813041687011e-06, 0.734375) (7.912093162536621e-06, 0.736328125) (9.639660835266112e-06, 0.73828125) (1.2007990837097168e-05, 0.740234375) (1.4883165359497069e-05, 0.7421875) (1.811568260192871e-05, 0.744140625) (2.1540531158447263e-05, 0.74609375) (2.5031192779541013e-05, 0.748046875) (2.8506994247436522e-05, 0.75) (3.1897029876708986e-05, 0.751953125) (3.513918685913086e-05, 0.75390625) (3.818174743652343e-05, 0.755859375) (4.0982044219970704e-05, 0.7578125) (4.3523841857910155e-05, 0.759765625) (4.5815284729003905e-05, 0.76171875) (4.786895751953125e-05, 0.763671875) (4.969485855102539e-05, 0.765625) (5.129949569702148e-05, 0.767578125) (5.269360733032226e-05, 0.76953125) (5.390232849121094e-05, 0.771484375) (5.496192550659179e-05, 0.7734375) (5.5916496276855465e-05, 0.775390625) (5.681207275390625e-05, 0.77734375) (5.768104171752929e-05, 0.779296875) (5.854433441162109e-05, 0.78125) (5.9419670104980465e-05, 0.783203125) (6.0320121765136716e-05, 0.78515625) (6.125636291503906e-05, 0.787109375) (6.223719787597656e-05, 0.7890625) (6.32642822265625e-05, 0.791015625) (6.433441162109375e-05, 0.79296875) (6.54481430053711e-05, 0.794921875) (6.660980224609375e-05, 0.796875) (6.782542419433593e-05, 0.798828125) (6.910208892822266e-05, 0.80078125) (7.044384765624999e-05, 0.802734375) (7.185225677490234e-05, 0.8046875) (7.332845306396484e-05, 0.806640625) (7.487290954589843e-05, 0.80859375) (7.648752593994141e-05, 0.810546875) (7.81760025024414e-05, 0.8125) (7.994253540039062e-05, 0.814453125) (8.179249572753906e-05, 0.81640625) (8.373275756835937e-05, 0.818359375) (8.577013397216797e-05, 0.8203125) (8.791231536865234e-05, 0.822265625) (9.016802978515624e-05, 0.82421875) (9.254340362548828e-05, 0.826171875) (9.504229736328125e-05, 0.828125) (9.76674575805664e-05, 0.830078125) (0.00010041803741455077, 0.83203125) (0.00010329112243652343, 0.833984375) (0.00010628567504882812, 0.8359375) (0.00010940025329589843, 0.837890625) (0.00011263449096679687, 0.83984375) (0.00011599113464355468, 0.841796875) (0.00011946808624267578, 0.84375) (0.00012305963134765624, 0.845703125) (0.00012676062011718748, 0.84765625) (0.0001305612335205078, 0.849609375) (0.0001344468994140625, 0.8515625) (0.00013839968872070312, 0.853515625) (0.00014239227294921876, 0.85546875) (0.0001463946533203125, 0.857421875) (0.0001503855743408203, 0.859375) (0.00015434709167480467, 0.861328125) (0.00015826739501953124, 0.86328125) (0.00016214414978027344, 0.865234375) (0.00016597064208984374, 0.8671875) (0.00016974166870117186, 0.869140625) (0.00017345547485351562, 0.87109375) (0.00017710018920898436, 0.873046875) (0.0001806669006347656, 0.875) (0.0001841505432128906, 0.876953125) (0.00018753768920898436, 0.87890625) (0.00019081951904296874, 0.880859375) (0.00019399923706054688, 0.8828125) (0.00019708502197265625, 0.884765625) (0.0002001022033691406, 0.88671875) (0.00020308444213867186, 0.888671875) (0.00020604217529296873, 0.890625) (0.0002089740295410156, 0.892578125) (0.00021186900329589844, 0.89453125) (0.00021469244384765624, 0.896484375) (0.0002174093322753906, 0.8984375) (0.00021997589111328125, 0.900390625) (0.0002223299560546875, 0.90234375) (0.00022442369079589842, 0.904296875) (0.00022621611022949218, 0.90625) (0.00022766545104980468, 0.908203125) (0.00022874769592285156, 0.91015625) (0.00022943838500976563, 0.912109375) (0.00022969580078125, 0.9140625) (0.00022947579956054688, 0.916015625) (0.00022871905517578124, 0.91796875) (0.00022735327148437498, 0.919921875) (0.0002253365783691406, 0.921875) (0.0002226448516845703, 0.923828125) (0.0002192633361816406, 0.92578125) (0.00021521070861816406, 0.927734375) (0.00021051615905761718, 0.9296875) (0.00020522567749023437, 0.931640625) (0.00019941796875, 0.93359375) (0.0001931621398925781, 0.935546875) (0.00018651303100585936, 0.9375) (0.00017952442932128905, 0.939453125) (0.00017223307800292968, 0.94140625) (0.00016467333984374998, 0.943359375) (0.00015689797973632812, 0.9453125) (0.00014896066284179687, 0.947265625) (0.0001409224853515625, 0.94921875) (0.00013286134338378906, 0.951171875) (0.0001248370132446289, 0.953125) (0.0001168985595703125, 0.955078125) (0.00010909518432617186, 0.95703125) (0.00010145156860351562, 0.958984375) (9.398081970214843e-05, 0.9609375) (8.668361663818359e-05, 0.962890625) (7.953388214111328e-05, 0.96484375) (7.251046752929687e-05, 0.966796875) (6.560857391357422e-05, 0.96875) (5.882731246948242e-05, 0.970703125) (5.2177482604980466e-05, 0.97265625) (4.567533874511719e-05, 0.974609375) (3.9327133178710937e-05, 0.9765625) (3.314127349853515e-05, 0.978515625) (2.712814712524414e-05, 0.98046875) (2.1286251068115234e-05, 0.982421875) (1.5617368698120116e-05, 0.984375) (1.0125250816345214e-05, 0.986328125) (4.808047294616699e-06, 0.98828125) (-3.26772928237915e-07, 0.990234375) (-5.265356063842773e-06, 0.9921875) (-9.990357398986815e-06, 0.994140625) (-1.4474028587341308e-05, 0.99609375) (-1.8690885543823243e-05, 0.998046875) (-2.262628173828125e-05, 1.0) (-2.627012252807617e-05, 1.001953125) (-2.961821937561035e-05, 1.00390625) (-3.267249298095703e-05, 1.005859375) (-3.5434509277343746e-05, 1.0078125) (-3.791009521484375e-05, 1.009765625) (-4.0111259460449215e-05, 1.01171875) (-4.204743194580078e-05, 1.013671875) (-4.3727478027343746e-05, 1.015625) (-4.516091156005859e-05, 1.017578125) (-4.635507202148437e-05, 1.01953125) (-4.732001495361328e-05, 1.021484375) (-4.806932067871094e-05, 1.0234375) (-4.861761474609375e-05, 1.025390625) (-4.8981700897216796e-05, 1.02734375) (-4.917940902709961e-05, 1.029296875) (-4.922674560546875e-05, 1.03125) (-4.913919830322266e-05, 1.033203125) (-4.8932094573974606e-05, 1.03515625) (-4.8619110107421875e-05, 1.037109375) (-4.821315002441406e-05, 1.0390625) (-4.772588348388672e-05, 1.041015625) (-4.7166671752929685e-05, 1.04296875) (-4.65447769165039e-05, 1.044921875) (-4.587011337280273e-05, 1.046875) (-4.515239334106445e-05, 1.048828125) (-4.4401374816894526e-05, 1.05078125) (-4.3626377105712887e-05, 1.052734375) (-4.283566665649414e-05, 1.0546875) (-4.2037147521972656e-05, 1.056640625) (-4.123857498168945e-05, 1.05859375) (-4.0446701049804686e-05, 1.060546875) (-3.9667266845703125e-05, 1.0625) (-3.890513229370117e-05, 1.064453125) (-3.8164108276367184e-05, 1.06640625) (-3.744734954833984e-05, 1.068359375) (-3.675758361816406e-05, 1.0703125) (-3.609680938720703e-05, 1.072265625) (-3.546638488769531e-05, 1.07421875) (-3.486712646484375e-05, 1.076171875) (-3.429938507080078e-05, 1.078125) (-3.3763061523437497e-05, 1.080078125) (-3.325779342651367e-05, 1.08203125) (-3.2782855987548826e-05, 1.083984375) (-3.2337150573730465e-05, 1.0859375) (-3.191933250427246e-05, 1.087890625) (-3.152779388427734e-05, 1.08984375) (-3.1160709381103514e-05, 1.091796875) (-3.081618499755859e-05, 1.09375) (-3.0492275238037106e-05, 1.095703125) (-3.018696403503418e-05, 1.09765625) (-2.9898288726806638e-05, 1.099609375) (-2.962442398071289e-05, 1.1015625) (-2.936374282836914e-05, 1.103515625) (-2.9114948272705076e-05, 1.10546875) (-2.8877029418945312e-05, 1.107421875) (-2.8649091720581054e-05, 1.109375) (-2.8430423736572266e-05, 1.111328125) (-2.8220525741577146e-05, 1.11328125) (-2.801901626586914e-05, 1.115234375) (-2.7825666427612302e-05, 1.1171875) (-2.764034271240234e-05, 1.119140625) (-2.7462875366210937e-05, 1.12109375) (-2.7293231964111328e-05, 1.123046875) (-2.7131549835205077e-05, 1.125) (-2.6978107452392577e-05, 1.126953125) (-2.683332824707031e-05, 1.12890625) (-2.6697742462158203e-05, 1.130859375) (-2.6571914672851562e-05, 1.1328125) (-2.6456478118896483e-05, 1.134765625) (-2.6352130889892577e-05, 1.13671875) (-2.6259540557861328e-05, 1.138671875) (-2.6179319381713867e-05, 1.140625) (-2.611201477050781e-05, 1.142578125) (-2.6058042526245116e-05, 1.14453125) (-2.6017734527587888e-05, 1.146484375) (-2.5991357803344725e-05, 1.1484375) (-2.5979103088378904e-05, 1.150390625) (-2.5981128692626953e-05, 1.15234375) (-2.599755859375e-05, 1.154296875) (-2.6028459548950196e-05, 1.15625) (-2.607383155822754e-05, 1.158203125) (-2.613364219665527e-05, 1.16015625) (-2.6207756042480467e-05, 1.162109375) (-2.629591369628906e-05, 1.1640625) (-2.6397697448730467e-05, 1.166015625) (-2.6512451171875e-05, 1.16796875) (-2.663930320739746e-05, 1.169921875) (-2.6777187347412108e-05, 1.171875) (-2.692484664916992e-05, 1.173828125) (-2.708089256286621e-05, 1.17578125) (-2.724381446838379e-05, 1.177734375) (-2.7412033081054685e-05, 1.1796875) (-2.758394432067871e-05, 1.181640625) (-2.7757978439331054e-05, 1.18359375) (-2.7932613372802734e-05, 1.185546875) (-2.8106376647949217e-05, 1.1875) (-2.8277851104736327e-05, 1.189453125) (-2.8445678710937498e-05, 1.19140625) (-2.860857582092285e-05, 1.193359375) (-2.8765350341796873e-05, 1.1953125) (-2.8914947509765622e-05, 1.197265625) (-2.9056457519531247e-05, 1.19921875) (-2.9189172744750976e-05, 1.201171875) (-2.9312597274780273e-05, 1.203125) (-2.9426465988159178e-05, 1.205078125) (-2.9530784606933593e-05, 1.20703125) (-2.962578582763672e-05, 1.208984375) (-2.9711915969848632e-05, 1.2109375) (-2.978977584838867e-05, 1.212890625) (-2.9860050201416014e-05, 1.21484375) (-2.9923473358154294e-05, 1.216796875) (-2.9980812072753905e-05, 1.21875) (-3.0032827377319336e-05, 1.220703125) (-3.0080291748046874e-05, 1.22265625) (-3.0123981475830075e-05, 1.224609375) (-3.0164707183837888e-05, 1.2265625) (-3.0203357696533202e-05, 1.228515625) (-3.0240943908691404e-05, 1.23046875) (-3.0278594970703124e-05, 1.232421875) (-3.0317562103271482e-05, 1.234375) (-3.035919952392578e-05, 1.236328125) (-3.04049015045166e-05, 1.23828125) (-3.0456092834472654e-05, 1.240234375) (-3.051419448852539e-05, 1.2421875) (-3.058059883117676e-05, 1.244140625) (-3.065662002563476e-05, 1.24609375) (-3.0743499755859376e-05, 1.248046875) (-3.084239959716797e-05, 1.25) (-3.095441055297851e-05, 1.251953125) (-3.108056259155273e-05, 1.25390625) (-3.1221828460693356e-05, 1.255859375) (-3.137905883789063e-05, 1.2578125) (-3.1552953720092774e-05, 1.259765625) (-3.174400329589844e-05, 1.26171875) (-3.195246124267578e-05, 1.263671875) (-3.217830657958984e-05, 1.265625) (-3.242119216918945e-05, 1.267578125) (-3.2680484771728516e-05, 1.26953125) (-3.2955230712890624e-05, 1.271484375) (-3.324424362182617e-05, 1.2734375) (-3.3546154022216795e-05, 1.275390625) (-3.3859516143798826e-05, 1.27734375) (-3.418285751342773e-05, 1.279296875) (-3.451470947265625e-05, 1.28125) (-3.4853637695312496e-05, 1.283203125) (-3.519825744628906e-05, 1.28515625) (-3.554724502563476e-05, 1.287109375) (-3.5899284362792966e-05, 1.2890625) (-3.6253089904785155e-05, 1.291015625) (-3.6607326507568355e-05, 1.29296875) (-3.696063995361328e-05, 1.294921875) (-3.731166076660156e-05, 1.296875) (-3.765904235839844e-05, 1.298828125) (-3.8001495361328126e-05, 1.30078125) (-3.833779907226562e-05, 1.302734375) (-3.866680145263672e-05, 1.3046875) (-3.898744201660156e-05, 1.306640625) (-3.9298728942871093e-05, 1.30859375) (-3.959973907470703e-05, 1.310546875) (-3.988958740234375e-05, 1.3125) (-4.016741943359375e-05, 1.314453125) (-4.043235778808594e-05, 1.31640625) (-4.068355560302734e-05, 1.318359375) (-4.092021560668945e-05, 1.3203125) (-4.1141700744628906e-05, 1.322265625) (-4.134756088256836e-05, 1.32421875) (-4.15375862121582e-05, 1.326171875) (-4.1711872100830077e-05, 1.328125) (-4.1870845794677734e-05, 1.330078125) (-4.2015258789062496e-05, 1.33203125) (-4.2146190643310545e-05, 1.333984375) (-4.226498413085937e-05, 1.3359375) (-4.237318420410156e-05, 1.337890625) (-4.247241973876953e-05, 1.33984375) (-4.256439208984375e-05, 1.341796875) (-4.2650821685791016e-05, 1.34375) (-4.273343276977539e-05, 1.345703125) (-4.2813934326171876e-05, 1.34765625) (-4.289399337768555e-05, 1.349609375) (-4.297526550292969e-05, 1.3515625) (-4.305937194824219e-05, 1.353515625) (-4.314791107177734e-05, 1.35546875) (-4.324245071411133e-05, 1.357421875) (-4.3344467163085936e-05, 1.359375) (-4.3455322265624996e-05, 1.361328125) (-4.357621002197266e-05, 1.36328125) (-4.370815277099609e-05, 1.365234375) (-4.3852035522460935e-05, 1.3671875) (-4.400862503051757e-05, 1.369140625) (-4.417857360839843e-05, 1.37109375) (-4.436248397827148e-05, 1.373046875) (-4.4560924530029296e-05, 1.375) (-4.4774501800537106e-05, 1.376953125) (-4.500383377075195e-05, 1.37890625) (-4.524955749511719e-05, 1.380859375) (-4.551226043701172e-05, 1.3828125) (-4.5792404174804686e-05, 1.384765625) (-4.6090255737304686e-05, 1.38671875) (-4.6405834197998046e-05, 1.388671875) (-4.67388801574707e-05, 1.390625) (-4.7088806152343746e-05, 1.392578125) (-4.74547004699707e-05, 1.39453125) (-4.78353385925293e-05, 1.396484375) (-4.822920227050781e-05, 1.3984375) (-4.863455200195312e-05, 1.400390625) (-4.904949951171875e-05, 1.40234375) (-4.947201919555664e-05, 1.404296875) (-4.989997100830078e-05, 1.40625) (-5.0331115722656246e-05, 1.408203125) (-5.076312637329101e-05, 1.41015625) (-5.119361114501953e-05, 1.412109375) (-5.162015914916992e-05, 1.4140625) (-5.204035186767578e-05, 1.416015625) (-5.245179367065429e-05, 1.41796875) (-5.285217666625976e-05, 1.419921875) (-5.323931884765625e-05, 1.421875) (-5.3611244201660154e-05, 1.423828125) (-5.3966224670410156e-05, 1.42578125) (-5.4302761077880856e-05, 1.427734375) (-5.461959838867187e-05, 1.4296875) (-5.491565704345703e-05, 1.431640625) (-5.5189998626708984e-05, 1.43359375) (-5.544181823730469e-05, 1.435546875) (-5.567037963867187e-05, 1.4375) (-5.587500762939453e-05, 1.439453125) (-5.605506896972656e-05, 1.44140625) (-5.62099609375e-05, 1.443359375) (-5.633918762207031e-05, 1.4453125) (-5.6442443847656246e-05, 1.447265625) (-5.65196418762207e-05, 1.44921875) (-5.657096099853515e-05, 1.451171875) (-5.6596881866455075e-05, 1.453125) (-5.6598175048828124e-05, 1.455078125) (-5.6575939178466794e-05, 1.45703125) (-5.653156661987304e-05, 1.458984375) (-5.646676635742187e-05, 1.4609375) (-5.638350677490234e-05, 1.462890625) (-5.628401565551758e-05, 1.46484375) (-5.6170719146728515e-05, 1.466796875) (-5.604628753662109e-05, 1.46875) (-5.5913608551025386e-05, 1.470703125) (-5.5775787353515624e-05, 1.47265625) (-5.563608169555664e-05, 1.474609375) (-5.549788665771484e-05, 1.4765625) (-5.5364646911621094e-05, 1.478515625) (-5.523983001708984e-05, 1.48046875) (-5.512683868408203e-05, 1.482421875) (-5.502894592285156e-05, 1.484375) (-5.4949230194091794e-05, 1.486328125) (-5.489055633544922e-05, 1.48828125) (-5.485551452636719e-05, 1.490234375) (-5.48464241027832e-05, 1.4921875) (-5.486540603637695e-05, 1.494140625) (-5.491434478759765e-05, 1.49609375) (-5.499491119384765e-05, 1.498046875) (-5.510860443115234e-05, 1.5) (-5.5256710052490235e-05, 1.501953125) (-5.544036102294922e-05, 1.50390625) (-5.566047668457031e-05, 1.505859375) (-5.591776275634765e-05, 1.5078125) (-5.621263885498047e-05, 1.509765625) (-5.654523468017578e-05, 1.51171875) (-5.691535186767578e-05, 1.513671875) (-5.7322467803955076e-05, 1.515625) (-5.776573944091797e-05, 1.517578125) (-5.824399948120117e-05, 1.51953125) (-5.8755714416503904e-05, 1.521484375) (-5.9299057006835934e-05, 1.5234375) (-5.987184906005859e-05, 1.525390625) (-6.047156524658203e-05, 1.52734375) (-6.109535598754883e-05, 1.529296875) (-6.174006271362305e-05, 1.53125) (-6.240211486816406e-05, 1.533203125) (-6.30777130126953e-05, 1.53515625) (-6.376275253295898e-05, 1.537109375) (-6.44528579711914e-05, 1.5390625) (-6.514346313476563e-05, 1.541015625) (-6.582990264892577e-05, 1.54296875) (-6.650740051269531e-05, 1.544921875) (-6.717125701904297e-05, 1.546875) (-6.781675720214844e-05, 1.548828125) (-6.843922424316406e-05, 1.55078125) (-6.903402709960937e-05, 1.552734375) (-6.959671020507813e-05, 1.5546875) (-7.012287902832031e-05, 1.556640625) (-7.060845184326171e-05, 1.55859375) (-7.104948425292968e-05, 1.560546875) (-7.144223022460937e-05, 1.5625) (-7.178318786621094e-05, 1.564453125) (-7.2069091796875e-05, 1.56640625) (-7.22969741821289e-05, 1.568359375) (-7.24642333984375e-05, 1.5703125) (-7.2568603515625e-05, 1.572265625) (-7.260807037353516e-05, 1.57421875) (-7.258098602294922e-05, 1.576171875) (-7.24860610961914e-05, 1.578125) (-7.2322265625e-05, 1.580078125) (-7.208903503417968e-05, 1.58203125) (-7.178616333007812e-05, 1.583984375) (-7.141374969482422e-05, 1.5859375) (-7.097222900390625e-05, 1.587890625) (-7.046247100830078e-05, 1.58984375) (-6.988565063476563e-05, 1.591796875) (-6.924339294433594e-05, 1.59375) (-6.853775024414063e-05, 1.595703125) (-6.777095794677735e-05, 1.59765625) (-6.6945556640625e-05, 1.599609375) (-6.606446838378905e-05, 1.6015625) (-6.513085174560546e-05, 1.603515625) (-6.414808654785156e-05, 1.60546875) (-6.311975860595703e-05, 1.607421875) (-6.20494499206543e-05, 1.609375) (-6.094085693359375e-05, 1.611328125) (-5.9798088073730464e-05, 1.61328125) (-5.862542343139648e-05, 1.615234375) (-5.742731094360351e-05, 1.6171875) (-5.620828247070312e-05, 1.619140625) (-5.497257614135742e-05, 1.62109375) (-5.3724403381347655e-05, 1.623046875) (-5.246803283691406e-05, 1.625) (-5.1207515716552734e-05, 1.626953125) (-4.994673919677734e-05, 1.62890625) (-4.868936920166015e-05, 1.630859375) (-4.7438587188720704e-05, 1.6328125) (-4.619726181030273e-05, 1.634765625) (-4.496826934814453e-05, 1.63671875) (-4.375413131713867e-05, 1.638671875) (-4.2557144165039064e-05, 1.640625) (-4.1379547119140626e-05, 1.642578125) (-4.02230224609375e-05, 1.64453125) (-3.908888626098633e-05, 1.646484375) (-3.797850799560547e-05, 1.6484375) (-3.689292526245117e-05, 1.650390625) (-3.583280181884766e-05, 1.65234375) (-3.4798786163330075e-05, 1.654296875) (-3.3791267395019527e-05, 1.65625) (-3.281017303466797e-05, 1.658203125) (-3.185585021972656e-05, 1.66015625) (-3.092863845825195e-05, 1.662109375) (-3.0028383255004882e-05, 1.6640625) (-2.9155458450317383e-05, 1.666015625) (-2.8310852050781247e-05, 1.66796875) (-2.7495773315429687e-05, 1.669921875) (-2.6712289810180663e-05, 1.671875) (-2.596298599243164e-05, 1.673828125) (-2.524960708618164e-05, 1.67578125) (-2.4574472427368163e-05, 1.677734375) (-2.3941211700439453e-05, 1.6796875) (-2.335360527038574e-05, 1.681640625) (-2.2816253662109373e-05, 1.68359375) (-2.2333839416503904e-05, 1.685546875) (-2.1909873962402343e-05, 1.6875) (-2.154865837097168e-05, 1.689453125) (-2.125658416748047e-05, 1.69140625) (-2.104058265686035e-05, 1.693359375) (-2.0908342361450195e-05, 1.6953125) (-2.0867050170898437e-05, 1.697265625) (-2.0920639038085936e-05, 1.69921875) (-2.1073951721191405e-05, 1.701171875) (-2.1334064483642577e-05, 1.703125) (-2.170674133300781e-05, 1.705078125) (-2.2198402404785156e-05, 1.70703125) (-2.2812959671020508e-05, 1.708984375) (-2.3547321319580078e-05, 1.7109375) (-2.4399467468261716e-05, 1.712890625) (-2.5373418807983396e-05, 1.71484375) (-2.6474288940429685e-05, 1.716796875) (-2.771101379394531e-05, 1.71875) (-2.909418487548828e-05, 1.720703125) (-3.0624637603759765e-05, 1.72265625) (-3.2303497314453126e-05, 1.724609375) (-3.413901138305664e-05, 1.7265625) (-3.614075469970703e-05, 1.728515625) (-3.832245635986328e-05, 1.73046875) (-4.0692157745361325e-05, 1.732421875) (-4.324164962768554e-05, 1.734375) (-4.595787048339844e-05, 1.736328125) (-4.883157730102539e-05, 1.73828125) (-5.185784530639648e-05, 1.740234375) (-5.504098510742187e-05, 1.7421875) (-5.8375492095947266e-05, 1.744140625) (-6.182572937011718e-05, 1.74609375) (-6.5344970703125e-05, 1.748046875) (-6.88784942626953e-05, 1.75) (-7.236283874511718e-05, 1.751953125) (-7.574691772460938e-05, 1.75390625) (-7.897149658203125e-05, 1.755859375) (-8.194930267333984e-05, 1.7578125) (-8.458366394042968e-05, 1.759765625) (-8.678170013427734e-05, 1.76171875) (-8.846721649169922e-05, 1.763671875) (-8.960107421875e-05, 1.765625) (-9.017534637451171e-05, 1.767578125) (-9.018600463867187e-05, 1.76953125) (-8.963143920898438e-05, 1.771484375) (-8.852098083496094e-05, 1.7734375) (-8.688623046875e-05, 1.775390625) (-8.479830932617186e-05, 1.77734375) (-8.236503601074219e-05, 1.779296875) (-7.972714233398437e-05, 1.78125) (-7.705226898193359e-05, 1.783203125) (-7.451931762695312e-05, 1.78515625) (-7.231651306152343e-05, 1.787109375) (-7.063790893554687e-05, 1.7890625) (-6.974250793457031e-05, 1.791015625) (-6.996192932128906e-05, 1.79296875) (-7.155189514160156e-05, 1.794921875) (-7.459117126464844e-05, 1.796875) (-7.887855529785156e-05, 1.798828125) (-8.395762634277343e-05, 1.80078125) (-8.933951568603515e-05, 1.802734375) (-9.463121795654296e-05, 1.8046875) (-9.935845184326172e-05, 1.806640625) (-0.00010283673095703125, 1.80859375) (-0.00010448138427734374, 1.810546875) (-0.00010411099243164062, 1.8125) (-0.00010237078857421874, 1.814453125) (-0.00010065497589111328, 1.81640625) (-0.00010043057250976561, 1.818359375) (-0.00010302104187011718, 1.8203125) (-0.00010956890869140625, 1.822265625) (-0.00012120806884765625, 1.82421875) (-0.00013905816650390624, 1.826171875) (-0.0001621908264160156, 1.828125) (-0.0001865435028076172, 1.830078125) (-0.00020715219116210936, 1.83203125) (-0.00021851290893554686, 1.833984375) (-0.00021850384521484374, 1.8359375) (-0.00021076882934570313, 1.837890625) (-0.00019746801757812498, 1.83984375) (-0.0001781715087890625, 1.841796875) (-0.00014709408569335938, 1.84375) (-8.949230957031249e-05, 1.845703125) (8.750431060791016e-06, 1.84765625) (0.00015520541381835936, 1.849609375) (0.00034745715332031246, 1.8515625) (0.0005667636718749999, 1.853515625) (0.0007820999755859374, 1.85546875) (0.0009613937988281249, 1.857421875) (0.00107863916015625, 1.859375) (0.0011210903320312499, 1.861328125) (0.0010942713623046875, 1.86328125) (0.00101167431640625, 1.865234375) (0.0008874310302734375, 1.8671875) (0.0007368358154296875, 1.869140625) (0.0005696284790039062, 1.87109375) (0.00039589154052734374, 1.873046875) (0.0002314619445800781, 1.875) (8.811718749999999e-05, 1.876953125) (-2.6201982498168945e-05, 1.87890625) (-0.00010935421752929687, 1.880859375) (-0.00016971356201171873, 1.8828125) (-0.0002166614990234375, 1.884765625) (-0.00025489059448242186, 1.88671875) (-0.00028610775756835935, 1.888671875) (-0.00030667919921874997, 1.890625) (-0.0003114094848632812, 1.892578125) (-0.0003006018676757812, 1.89453125) (-0.00027728118896484376, 1.896484375) (-0.0002465139465332031, 1.8984375) (-0.0002150459747314453, 1.900390625) (-0.0001862774200439453, 1.90234375) (-0.00016119499206542967, 1.904296875) (-0.0001403704071044922, 1.90625) (-0.00012345549011230468, 1.908203125) (-0.00011044052124023437, 1.91015625) (-0.00010214045715332031, 1.912109375) (-9.793827819824218e-05, 1.9140625) (-9.600321197509765e-05, 1.916015625) (-9.488496398925781e-05, 1.91796875) (-9.304190063476562e-05, 1.919921875) (-8.964754486083984e-05, 1.921875) (-8.491060638427734e-05, 1.923828125) (-7.858304595947265e-05, 1.92578125) (-6.994770050048828e-05, 1.927734375) (-5.913579177856445e-05, 1.9296875) (-4.684907913208008e-05, 1.931640625) (-3.4067428588867186e-05, 1.93359375) (-2.2319583892822263e-05, 1.935546875) (-1.2452204704284667e-05, 1.9375) (-4.530786514282226e-06, 1.939453125) (1.2009955644607544e-06, 1.94140625) (4.483129978179931e-06, 1.943359375) (5.3175787925720215e-06, 1.9453125) (3.802670955657959e-06, 1.947265625) (4.0739011764526366e-07, 1.94921875) (-3.995076417922973e-06, 1.951171875) (-8.844411849975585e-06, 1.953125) (-1.3868803024291992e-05, 1.955078125) (-1.883641242980957e-05, 1.95703125) (-2.3641578674316404e-05, 1.958984375) (-2.8131977081298827e-05, 1.9609375) (-3.209659194946289e-05, 1.962890625) (-3.5456787109375e-05, 1.96484375) (-3.824074554443359e-05, 1.966796875) (-4.044475555419922e-05, 1.96875) (-4.2046134948730464e-05, 1.970703125) (-4.300541687011719e-05, 1.97265625) (-4.325858688354492e-05, 1.974609375) (-4.2809906005859375e-05, 1.9765625) (-4.172052764892578e-05, 1.978515625) (-4.006941986083984e-05, 1.98046875) (-3.7953479766845705e-05, 1.982421875) (-3.545835113525391e-05, 1.984375) (-3.266090393066406e-05, 1.986328125) (-2.9632141113281247e-05, 1.98828125) (-2.6438459396362304e-05, 1.990234375) (-2.3147832870483396e-05, 1.9921875) (-1.981924057006836e-05, 1.994140625) (-1.6505826950073243e-05, 1.99609375) (-1.3256340026855467e-05, 1.998046875) (-1.0119577407836914e-05, 2.0) (-7.148009300231933e-06, 2.001953125) (-4.383782386779785e-06, 2.00390625) (-1.8534140586853027e-06, 2.005859375) (4.3652924895286556e-07, 2.0078125) (2.4957644939422608e-06, 2.009765625) (4.343225479125977e-06, 2.01171875) (6.003491401672363e-06, 2.013671875) (7.503401279449463e-06, 2.015625) (8.874292373657226e-06, 2.017578125) (1.0144445419311523e-05, 2.01953125) (1.133904457092285e-05, 2.021484375) (1.2481477737426758e-05, 2.0234375) (1.3590056419372558e-05, 2.025390625) (1.4686473846435547e-05, 2.02734375) (1.5795787811279297e-05, 2.029296875) (1.6946725845336913e-05, 2.03125) (1.8172962188720702e-05, 2.033203125) (1.9502683639526368e-05, 2.03515625) (2.0956926345825196e-05, 2.037109375) (2.255216598510742e-05, 2.0390625) (2.4300521850585935e-05, 2.041015625) (2.6211557388305664e-05, 2.04296875) (2.829342269897461e-05, 2.044921875) (3.055000305175781e-05, 2.046875) (3.2980228424072266e-05, 2.048828125) (3.558459091186523e-05, 2.05078125) (3.8365264892578124e-05, 2.052734375) (4.132551193237305e-05, 2.0546875) (4.4470252990722656e-05, 2.056640625) (4.7801513671875e-05, 2.05859375) (5.131832885742187e-05, 2.060546875) (5.5018165588378906e-05, 2.0625) (5.889672470092773e-05, 2.064453125) (6.294961929321289e-05, 2.06640625) (6.717250061035155e-05, 2.068359375) (7.155963134765624e-05, 2.0703125) (7.610401916503906e-05, 2.072265625) (8.079844665527343e-05, 2.07421875) (8.563507080078124e-05, 2.076171875) (9.060620880126952e-05, 2.078125) (9.570445251464844e-05, 2.080078125) (0.00010092025756835937, 2.08203125) (0.00010624214935302735, 2.083984375) (0.00011165751647949218, 2.0859375) (0.00011715242767333984, 2.087890625) (0.00012271232604980467, 2.08984375) (0.00012832223510742186, 2.091796875) (0.00013396603393554688, 2.09375) (0.00013962644958496093, 2.095703125) (0.00014528607177734373, 2.09765625) (0.00015092715454101562, 2.099609375) (0.00015653182983398436, 2.1015625) (0.0001620820617675781, 2.103515625) (0.00016755918884277344, 2.10546875) (0.00017294403076171874, 2.107421875) (0.00017821728515625, 2.109375) (0.00018335952758789063, 2.111328125) (0.00018835140991210937, 2.11328125) (0.00019317372131347655, 2.115234375) (0.00019780712890625, 2.1171875) (0.00020223265075683592, 2.119140625) (0.00020643168640136717, 2.12109375) (0.00021038612365722656, 2.123046875) (0.00021407853698730467, 2.125) (0.00021749212646484373, 2.126953125) (0.00022061068725585936, 2.12890625) (0.00022341891479492186, 2.130859375) (0.00022590234375, 2.1328125) (0.00022804757690429687, 2.134765625) (0.00022984228515625, 2.13671875) (0.00023127529907226562, 2.138671875) (0.00023233663940429688, 2.140625) (0.000233017578125, 2.142578125) (0.0002333108673095703, 2.14453125) (0.00023321066284179686, 2.146484375) (0.00023271266174316405, 2.1484375) (0.0002318140411376953, 2.150390625) (0.00023051348876953123, 2.15234375) (0.00022881132507324218, 2.154296875) (0.00022670945739746093, 2.15625) (0.00022421150207519531, 2.158203125) (0.00022132269287109373, 2.16015625) (0.0002180498352050781, 2.162109375) (0.00021440139770507812, 2.1640625) (0.00021038745117187498, 2.166015625) (0.0002060197296142578, 2.16796875) (0.00020131164550781248, 2.169921875) (0.00019627816772460935, 2.171875) (0.0001909356689453125, 2.173828125) (0.00018530192565917967, 2.17578125) (0.00017939599609375, 2.177734375) (0.00017323825073242187, 2.1796875) (0.00016685009765625, 2.181640625) (0.00016025390625, 2.18359375) (0.00015347293090820313, 2.185546875) (0.00014653118896484376, 2.1875) (0.00013945326232910155, 2.189453125) (0.00013226429748535156, 2.19140625) (0.00012498976135253906, 2.193359375) (0.00011765531921386718, 2.1953125) (0.00011028668212890625, 2.197265625) (0.00010290937042236327, 2.19921875) (9.554858398437499e-05, 2.201171875) (8.822909545898437e-05, 2.203125) (8.097509765624999e-05, 2.205078125) (7.381002807617187e-05, 2.20703125) (6.67564926147461e-05, 2.208984375) (5.983615112304687e-05, 2.2109375) (5.306964492797851e-05, 2.212890625) (4.647649383544922e-05, 2.21484375) (4.007504272460937e-05, 2.216796875) (3.3882320404052734e-05, 2.21875) (2.7913978576660156e-05, 2.220703125) (2.2184188842773436e-05, 2.22265625) (1.670559310913086e-05, 2.224609375) (1.1489240646362303e-05, 2.2265625) (6.544551849365234e-06, 2.228515625) (1.8792972564697265e-06, 2.23046875) (-2.500415802001953e-06, 2.232421875) (-6.590114116668701e-06, 2.234375) (-1.0386920928955077e-05, 2.236328125) (-1.3889514923095703e-05, 2.23828125) (-1.7098093032836912e-05, 2.240234375) (-2.0014320373535154e-05, 2.2421875) (-2.2641319274902342e-05, 2.244140625) (-2.4983600616455077e-05, 2.24609375) (-2.7047029495239256e-05, 2.248046875) (-2.8838760375976563e-05, 2.25) (-3.0367156982421873e-05, 2.251953125) (-3.1641700744628906e-05, 2.25390625) (-3.267289733886719e-05, 2.255859375) (-3.347213745117187e-05, 2.2578125) (-3.4051567077636716e-05, 2.259765625) (-3.4423961639404295e-05, 2.26171875) (-3.460256958007812e-05, 2.263671875) (-3.460102081298828e-05, 2.265625) (-3.443321228027344e-05, 2.267578125) (-3.411321258544922e-05, 2.26953125) (-3.365516662597656e-05, 2.271484375) (-3.307323455810547e-05, 2.2734375) (-3.2381500244140626e-05, 2.275390625) (-3.1593902587890625e-05, 2.27734375) (-3.072414588928223e-05, 2.279296875) (-2.978561973571777e-05, 2.28125) (-2.879129409790039e-05, 2.283203125) (-2.7753637313842772e-05, 2.28515625) (-2.6684562683105466e-05, 2.287109375) (-2.5595346450805664e-05, 2.2890625) (-2.449661064147949e-05, 2.291015625) (-2.3398277282714844e-05, 2.29296875) (-2.2309576034545898e-05, 2.294921875) (-2.1239032745361328e-05, 2.296875) (-2.019448661804199e-05, 2.298828125) (-1.91830997467041e-05, 2.30078125) (-1.821135330200195e-05, 2.302734375) (-1.7285037994384766e-05, 2.3046875) (-1.6409233093261718e-05, 2.306640625) (-1.5588279724121094e-05, 2.30859375) (-1.4825790405273436e-05, 2.310546875) (-1.4124624252319335e-05, 2.3125) (-1.3486918449401855e-05, 2.314453125) (-1.2914098739624023e-05, 2.31640625) (-1.2406919479370116e-05, 2.318359375) (-1.196552848815918e-05, 2.3203125) (-1.1589529037475586e-05, 2.322265625) (-1.1278052330017089e-05, 2.32421875) (-1.1029812812805176e-05, 2.326171875) (-1.0843161582946777e-05, 2.328125) (-1.0716124534606933e-05, 2.330078125) (-1.0646435737609863e-05, 2.33203125) (-1.0631574630737305e-05, 2.333984375) (-1.0668785095214844e-05, 2.3359375) (-1.0755105972290038e-05, 2.337890625) (-1.0887403488159179e-05, 2.33984375) (-1.1062417984008789e-05, 2.341796875) (-1.1276811599731445e-05, 2.34375) (-1.1527236938476561e-05, 2.345703125) (-1.1810388565063475e-05, 2.34765625) (-1.2123030662536621e-05, 2.349609375) (-1.2462032318115234e-05, 2.3515625) (-1.2824384689331054e-05, 2.353515625) (-1.3207202911376953e-05, 2.35546875) (-1.3607733726501464e-05, 2.357421875) (-1.4023327827453612e-05, 2.359375) (-1.4451416015624999e-05, 2.361328125) (-1.4889507293701171e-05, 2.36328125) (-1.533519172668457e-05, 2.365234375) (-1.578615951538086e-05, 2.3671875) (-1.6240238189697265e-05, 2.369140625) (-1.6695430755615234e-05, 2.37109375) (-1.7149925231933594e-05, 2.373046875) (-1.7602134704589844e-05, 2.375) (-1.805069351196289e-05, 2.376953125) (-1.849448776245117e-05, 2.37890625) (-1.893264007568359e-05, 2.380859375) (-1.936447525024414e-05, 2.3828125) (-1.9789501190185545e-05, 2.384765625) (-2.0207366943359373e-05, 2.38671875) (-2.0617845535278318e-05, 2.388671875) (-2.1020826339721677e-05, 2.390625) (-2.141632080078125e-05, 2.392578125) (-2.1804452896118164e-05, 2.39453125) (-2.2185457229614256e-05, 2.396484375) (-2.2559684753417968e-05, 2.3984375) (-2.292759895324707e-05, 2.400390625) (-2.328977394104004e-05, 2.40234375) (-2.364687156677246e-05, 2.404296875) (-2.3999599456787108e-05, 2.40625) (-2.4348682403564454e-05, 2.408203125) (-2.4694822311401366e-05, 2.41015625) (-2.5038681030273438e-05, 2.412109375) (-2.538086700439453e-05, 2.4140625) (-2.5721940994262694e-05, 2.416015625) (-2.606241226196289e-05, 2.41796875) (-2.6402755737304685e-05, 2.419921875) (-2.6743427276611327e-05, 2.421875) (-2.7084901809692382e-05, 2.423828125) (-2.7427673339843748e-05, 2.42578125) (-2.777226448059082e-05, 2.427734375) (-2.8119211196899412e-05, 2.4296875) (-2.8469020843505857e-05, 2.431640625) (-2.8822147369384765e-05, 2.43359375) (-2.9178987503051757e-05, 2.435546875) (-2.953983688354492e-05, 2.4375) (-2.9904907226562497e-05, 2.439453125) (-3.0274293899536132e-05, 2.44140625) (-3.064798545837402e-05, 2.443359375) (-3.102586936950683e-05, 2.4453125) (-3.1407768249511715e-05, 2.447265625) (-3.1793457031249995e-05, 2.44921875) (-3.218265533447265e-05, 2.451171875) (-3.257504272460937e-05, 2.453125) (-3.297023773193359e-05, 2.455078125) (-3.3367782592773436e-05, 2.45703125) (-3.3767147064208986e-05, 2.458984375) (-3.4167747497558595e-05, 2.4609375) (-3.4568912506103514e-05, 2.462890625) (-3.496990585327148e-05, 2.46484375) (-3.536992645263672e-05, 2.466796875) (-3.5768161773681636e-05, 2.46875) (-3.6163768768310545e-05, 2.470703125) (-3.655595016479492e-05, 2.47265625) (-3.694393920898437e-05, 2.474609375) (-3.7327026367187497e-05, 2.4765625) (-3.7704521179199214e-05, 2.478515625) (-3.80758056640625e-05, 2.48046875) (-3.8440269470214844e-05, 2.482421875) (-3.879736709594726e-05, 2.484375) (-3.9146537780761716e-05, 2.486328125) (-3.948724365234375e-05, 2.48828125) (-3.981896591186523e-05, 2.490234375) (-4.014118957519531e-05, 2.4921875) (-4.0453453063964845e-05, 2.494140625) (-4.075537109375e-05, 2.49609375) (-4.104660415649414e-05, 2.498046875) (-4.1326908111572265e-05, 2.5) (-4.159613037109375e-05, 2.501953125) (-4.185418701171875e-05, 2.50390625) (-4.210107421875e-05, 2.505859375) (-4.233688354492187e-05, 2.5078125) (-4.256174468994141e-05, 2.509765625) (-4.277585983276367e-05, 2.51171875) (-4.297945785522461e-05, 2.513671875) (-4.317280578613281e-05, 2.515625) (-4.3356220245361326e-05, 2.517578125) (-4.3530075073242184e-05, 2.51953125) (-4.3694782257080074e-05, 2.521484375) (-4.3850799560546876e-05, 2.5234375) (-4.3998615264892577e-05, 2.525390625) (-4.413874053955078e-05, 2.52734375) (-4.427173233032226e-05, 2.529296875) (-4.439813995361328e-05, 2.53125) (-4.45185432434082e-05, 2.533203125) (-4.463348388671875e-05, 2.53515625) (-4.474350357055664e-05, 2.537109375) (-4.484908676147461e-05, 2.5390625) (-4.495071029663086e-05, 2.541015625) (-4.504880523681641e-05, 2.54296875) (-4.514377593994141e-05, 2.544921875) (-4.5235954284667966e-05, 2.546875) (-4.532563400268555e-05, 2.548828125) (-4.541304397583008e-05, 2.55078125) (-4.5498352050781245e-05, 2.552734375) (-4.5581676483154293e-05, 2.5546875) (-4.566304779052734e-05, 2.556640625) (-4.574245071411133e-05, 2.55859375) (-4.581975936889648e-05, 2.560546875) (-4.5894794464111324e-05, 2.5625) (-4.596728134155273e-05, 2.564453125) (-4.603687286376953e-05, 2.56640625) (-4.610315704345703e-05, 2.568359375) (-4.61656265258789e-05, 2.5703125) (-4.622370910644531e-05, 2.572265625) (-4.6276786804199215e-05, 2.57421875) (-4.632419204711914e-05, 2.576171875) (-4.636524200439453e-05, 2.578125) (-4.6399234771728514e-05, 2.580078125) (-4.6425472259521484e-05, 2.58203125) (-4.644326019287109e-05, 2.583984375) (-4.6451927185058595e-05, 2.5859375) (-4.6450866699218745e-05, 2.587890625) (-4.643947601318359e-05, 2.58984375) (-4.6417205810546875e-05, 2.591796875) (-4.6383510589599605e-05, 2.59375) (-4.633787155151367e-05, 2.595703125) (-4.627977752685547e-05, 2.59765625) (-4.620875549316406e-05, 2.599609375) (-4.61243667602539e-05, 2.6015625) (-4.6026222229003906e-05, 2.603515625) (-4.5913978576660153e-05, 2.60546875) (-4.578736495971679e-05, 2.607421875) (-4.564621353149414e-05, 2.609375) (-4.5490478515625e-05, 2.611328125) (-4.532020950317383e-05, 2.61328125) (-4.51355972290039e-05, 2.615234375) (-4.493690490722656e-05, 2.6171875) (-4.472450256347656e-05, 2.619140625) (-4.449887084960937e-05, 2.62109375) (-4.4260612487792966e-05, 2.623046875) (-4.4010444641113276e-05, 2.625) (-4.374919128417968e-05, 2.626953125) (-4.347781372070312e-05, 2.62890625) (-4.3197402954101564e-05, 2.630859375) (-4.290918731689453e-05, 2.6328125) (-4.261455154418945e-05, 2.634765625) (-4.231498718261719e-05, 2.63671875) (-4.201207733154297e-05, 2.638671875) (-4.170744323730469e-05, 2.640625) (-4.140272521972656e-05, 2.642578125) (-4.109955978393554e-05, 2.64453125) (-4.0799556732177734e-05, 2.646484375) (-4.05042839050293e-05, 2.6484375) (-4.0215232849121095e-05, 2.650390625) (-3.9933834075927735e-05, 2.65234375) (-3.966149139404297e-05, 2.654296875) (-3.939957809448242e-05, 2.65625) (-3.914949035644531e-05, 2.658203125) (-3.891261291503906e-05, 2.66015625) (-3.869032287597656e-05, 2.662109375) (-3.848395538330078e-05, 2.6640625) (-3.8294799804687495e-05, 2.666015625) (-3.812409210205078e-05, 2.66796875) (-3.79729995727539e-05, 2.669921875) (-3.784257125854492e-05, 2.671875) (-3.7733734130859374e-05, 2.673828125) (-3.7647254943847656e-05, 2.67578125) (-3.7583808898925776e-05, 2.677734375) (-3.754396820068359e-05, 2.6796875) (-3.752821731567383e-05, 2.681640625) (-3.753691101074219e-05, 2.68359375) (-3.757028579711914e-05, 2.685546875) (-3.762839889526367e-05, 2.6875) (-3.771114349365234e-05, 2.689453125) (-3.781822967529297e-05, 2.69140625) (-3.794916534423828e-05, 2.693359375) (-3.810319900512695e-05, 2.6953125) (-3.827937316894531e-05, 2.697265625) (-3.847651672363281e-05, 2.69921875) (-3.869329452514648e-05, 2.701171875) (-3.892829895019531e-05, 2.703125) (-3.918006896972656e-05, 2.705078125) (-3.9447143554687496e-05, 2.70703125) (-3.9728031158447265e-05, 2.708984375) (-4.002129745483398e-05, 2.7109375) (-4.032554244995117e-05, 2.712890625) (-4.0639419555664064e-05, 2.71484375) (-4.096160888671875e-05, 2.716796875) (-4.129076766967773e-05, 2.71875) (-4.1625518798828125e-05, 2.720703125) (-4.1964462280273435e-05, 2.72265625) (-4.2306198120117186e-05, 2.724609375) (-4.264936065673828e-05, 2.7265625) (-4.299262237548828e-05, 2.728515625) (-4.333470153808593e-05, 2.73046875) (-4.367438125610351e-05, 2.732421875) (-4.401053619384766e-05, 2.734375) (-4.434214401245117e-05, 2.736328125) (-4.466827392578125e-05, 2.73828125) (-4.4988056182861325e-05, 2.740234375) (-4.530067443847656e-05, 2.7421875) (-4.560534286499023e-05, 2.744140625) (-4.590132522583008e-05, 2.74609375) (-4.6188007354736326e-05, 2.748046875) (-4.6464916229248044e-05, 2.75) (-4.673176193237305e-05, 2.751953125) (-4.698846435546875e-05, 2.75390625) (-4.7235160827636715e-05, 2.755859375) (-4.7472259521484376e-05, 2.7578125) (-4.77004165649414e-05, 2.759765625) (-4.79205322265625e-05, 2.76171875) (-4.8133644104003906e-05, 2.763671875) (-4.8340877532958985e-05, 2.765625) (-4.854336929321289e-05, 2.767578125) (-4.874224853515625e-05, 2.76953125) (-4.893861770629883e-05, 2.771484375) (-4.913351821899414e-05, 2.7734375) (-4.932789993286133e-05, 2.775390625) (-4.952265548706054e-05, 2.77734375) (-4.9718601226806636e-05, 2.779296875) (-4.991652679443359e-05, 2.78125) (-5.011721801757812e-05, 2.783203125) (-5.032140350341797e-05, 2.78515625) (-5.0529701232910155e-05, 2.787109375) (-5.074264526367187e-05, 2.7890625) (-5.096062469482422e-05, 2.791015625) (-5.118386840820312e-05, 2.79296875) (-5.1412475585937495e-05, 2.794921875) (-5.1646373748779294e-05, 2.796875) (-5.188531112670898e-05, 2.798828125) (-5.212893676757812e-05, 2.80078125) (-5.237686157226562e-05, 2.802734375) (-5.2628582000732416e-05, 2.8046875) (-5.2883583068847654e-05, 2.806640625) (-5.3141281127929683e-05, 2.80859375) (-5.340092086791992e-05, 2.810546875) (-5.366156005859375e-05, 2.8125) (-5.392206192016601e-05, 2.814453125) (-5.4180934906005856e-05, 2.81640625) (-5.4436393737792965e-05, 2.818359375) (-5.468638610839843e-05, 2.8203125) (-5.492852401733398e-05, 2.822265625) (-5.5160194396972654e-05, 2.82421875) (-5.5378646850585937e-05, 2.826171875) (-5.55810317993164e-05, 2.828125) (-5.576453018188476e-05, 2.830078125) (-5.5926383972167964e-05, 2.83203125) (-5.6063808441162107e-05, 2.833984375) (-5.617414093017578e-05, 2.8359375) (-5.625482940673828e-05, 2.837890625) (-5.6303375244140623e-05, 2.83984375) (-5.6317375183105466e-05, 2.841796875) (-5.629450607299804e-05, 2.84375) (-5.623242950439453e-05, 2.845703125) (-5.6129058837890625e-05, 2.84765625) (-5.598256683349609e-05, 2.849609375) (-5.579128265380859e-05, 2.8515625) (-5.555376434326172e-05, 2.853515625) (-5.5268920898437496e-05, 2.85546875) (-5.493590545654296e-05, 2.857421875) (-5.455411911010742e-05, 2.859375) (-5.412336730957031e-05, 2.861328125) (-5.36434211730957e-05, 2.86328125) (-5.311400604248047e-05, 2.865234375) (-5.253507995605469e-05, 2.8671875) (-5.190663146972656e-05, 2.869140625) (-5.122868347167969e-05, 2.87109375) (-5.050155639648437e-05, 2.873046875) (-4.972572326660156e-05, 2.875) (-4.890190124511718e-05, 2.876953125) (-4.803138732910156e-05, 2.87890625) (-4.7115909576416016e-05, 2.880859375) (-4.615741729736328e-05, 2.8828125) (-4.5158355712890624e-05, 2.884765625) (-4.412134552001953e-05, 2.88671875) (-4.3049091339111324e-05, 2.888671875) (-4.194448852539062e-05, 2.890625) (-4.081034851074219e-05, 2.892578125) (-3.964945602416992e-05, 2.89453125) (-3.846474075317382e-05, 2.896484375) (-3.7259033203125e-05, 2.8984375) (-3.6035003662109376e-05, 2.900390625) (-3.479553985595703e-05, 2.90234375) (-3.354355239868164e-05, 2.904296875) (-3.228194427490234e-05, 2.90625) (-3.101383590698242e-05, 2.908203125) (-2.9742000579833982e-05, 2.91015625) (-2.8468681335449217e-05, 2.912109375) (-2.7196258544921873e-05, 2.9140625) (-2.5927106857299804e-05, 2.916015625) (-2.466303443908691e-05, 2.91796875) (-2.3405710220336915e-05, 2.919921875) (-2.2156604766845702e-05, 2.921875) (-2.091657257080078e-05, 2.923828125) (-1.968730354309082e-05, 2.92578125) (-1.8471561431884764e-05, 2.927734375) (-1.7272012710571287e-05, 2.9296875) (-1.6091747283935546e-05, 2.931640625) (-1.4934999465942383e-05, 2.93359375) (-1.3806139945983887e-05, 2.935546875) (-1.2710354804992675e-05, 2.9375) (-1.165431785583496e-05, 2.939453125) (-1.0643746376037597e-05, 2.94140625) (-9.68391990661621e-06, 2.943359375) (-8.781105995178222e-06, 2.9453125) (-7.940997123718262e-06, 2.947265625) (-7.16933536529541e-06, 2.94921875) (-6.473131656646728e-06, 2.951171875) (-5.858890533447265e-06, 2.953125) (-5.3328905105590814e-06, 2.955078125) (-4.90302848815918e-06, 2.95703125) (-4.5758762359619135e-06, 2.958984375) (-4.357583999633789e-06, 2.9609375) (-4.256340980529785e-06, 2.962890625) (-4.2773389816284175e-06, 2.96484375) (-4.424477577209472e-06, 2.966796875) (-4.70140552520752e-06, 2.96875) (-5.106890201568604e-06, 2.970703125) (-5.640835285186768e-06, 2.97265625) (-6.307505130767822e-06, 2.974609375) (-7.1092691421508785e-06, 2.9765625) (-8.048868179321289e-06, 2.978515625) (-9.13527488708496e-06, 2.98046875) (-1.0375911712646485e-05, 2.982421875) (-1.1781229019165038e-05, 2.984375) (-1.336982536315918e-05, 2.986328125) (-1.5151261329650878e-05, 2.98828125) (-1.7133316040039062e-05, 2.990234375) (-1.9327301025390626e-05, 2.9921875) (-2.1734962463378905e-05, 2.994140625) (-2.4356746673583984e-05, 2.99609375) (-2.7192544937133788e-05, 2.998046875) (-3.023283004760742e-05, 3.0) (-3.346775436401367e-05, 3.001953125) (-3.6887756347656246e-05, 3.00390625) (-4.046775817871094e-05, 3.005859375) (-4.4174774169921875e-05, 3.0078125) (-4.797021102905273e-05, 3.009765625) (-5.179088592529297e-05, 3.01171875) (-5.5567626953125e-05, 3.013671875) (-5.92193603515625e-05, 3.015625) (-6.263976287841797e-05, 3.017578125) (-6.573507690429688e-05, 3.01953125) (-6.841277313232421e-05, 3.021484375) (-7.057276916503906e-05, 3.0234375) (-7.213582611083984e-05, 3.025390625) (-7.303711700439453e-05, 3.02734375) (-7.322955322265624e-05, 3.029296875) (-7.27100830078125e-05, 3.03125) (-7.150115203857421e-05, 3.033203125) (-6.963388061523437e-05, 3.03515625) (-6.716754150390625e-05, 3.037109375) (-6.416760253906249e-05, 3.0390625) (-6.072411346435547e-05, 3.041015625) (-5.6998077392578124e-05, 3.04296875) (-5.3184249877929686e-05, 3.044921875) (-4.951878356933594e-05, 3.046875) (-4.6266197204589844e-05, 3.048828125) (-4.364219284057617e-05, 3.05078125) (-4.1912555694580074e-05, 3.052734375) (-4.1444679260253904e-05, 3.0546875) (-4.2550853729248046e-05, 3.056640625) (-4.5393039703369136e-05, 3.05859375) (-4.985380935668945e-05, 3.060546875) (-5.5478797912597654e-05, 3.0625) (-6.171939086914063e-05, 3.064453125) (-6.812197875976563e-05, 3.06640625) (-7.41785888671875e-05, 3.068359375) (-7.923246765136718e-05, 3.0703125) (-8.264916992187499e-05, 3.072265625) (-8.412564086914062e-05, 3.07421875) (-8.425889587402344e-05, 3.076171875) (-8.442007446289061e-05, 3.078125) (-8.617822265624999e-05, 3.080078125) (-9.111009216308593e-05, 3.08203125) (-0.00010042216491699218, 3.083984375) (-0.0001151519317626953, 3.0859375) (-0.0001365222930908203, 3.087890625) (-0.00016372227478027342, 3.08984375) (-0.00019263499450683592, 3.091796875) (-0.00021837310791015624, 3.09375) (-0.00023519485473632811, 3.095703125) (-0.00024013931274414062, 3.09765625) (-0.00023653504943847654, 3.099609375) (-0.00022561662292480466, 3.1015625) (-0.000205306640625, 3.103515625) (-0.00016981765747070313, 3.10546875) (-0.00010485173797607421, 3.107421875) (5.20904541015625e-07, 3.109375) (0.00014906890869140625, 3.111328125) (0.000337278076171875, 3.11328125) (0.0005479508056640624, 3.115234375) (0.0007583959960937499, 3.1171875) (0.0009451601562499999, 3.119140625) (0.0010844572753906248, 3.12109375) (0.0011633670654296875, 3.123046875) (0.0011762675781249999, 3.125) (0.001126517333984375, 3.126953125) (0.001025314208984375, 3.12890625) (0.0008810418701171874, 3.130859375) (0.0007062347412109375, 3.1328125) (0.0005143011474609374, 3.134765625) (0.00031892327880859376, 3.13671875) (0.00014062928771972657, 3.138671875) (-5.165573120117187e-06, 3.140625) (-0.00011178984069824218, 3.142578125) (-0.00018019345092773438, 3.14453125) (-0.0002220359191894531, 3.146484375) (-0.00025016404724121093, 3.1484375) (-0.00027090716552734376, 3.150390625) (-0.00028576837158203125, 3.15234375) (-0.0002912882080078125, 3.154296875) (-0.00028371188354492187, 3.15625) (-0.0002643433532714844, 3.158203125) (-0.00023704115295410154, 3.16015625) (-0.00020723606872558592, 3.162109375) (-0.000179873046875, 3.1640625) (-0.00015662576293945312, 3.166015625) (-0.00013781326293945312, 3.16796875) (-0.0001231261749267578, 3.169921875) (-0.00011139608764648436, 3.171875) (-0.00010233340454101562, 3.173828125) (-9.617857360839844e-05, 3.17578125) (-9.2032470703125e-05, 3.177734375) (-8.920516967773437e-05, 3.1796875) (-8.713017272949218e-05, 3.181640625) (-8.459331512451171e-05, 3.18359375) (-8.122139739990235e-05, 3.185546875) (-7.722726440429688e-05, 3.1875) (-7.219975280761718e-05, 3.189453125) (-6.560277557373047e-05, 3.19140625) (-5.75814208984375e-05, 3.193359375) (-4.832234954833984e-05, 3.1953125) (-3.844965744018555e-05, 3.197265625) (-2.9287391662597654e-05, 3.19921875) (-2.143657302856445e-05, 3.201171875) (-1.502200412750244e-05, 3.203125) (-1.0369651794433593e-05, 3.205078125) (-7.69491958618164e-06, 3.20703125) (-7.034270286560058e-06, 3.208984375) (-8.36282730102539e-06, 3.2109375) (-1.1241758346557616e-05, 3.212890625) (-1.4828544616699218e-05, 3.21484375) (-1.8597696304321288e-05, 3.216796875) (-2.2292751312255857e-05, 3.21875) (-2.5722896575927733e-05, 3.220703125) (-2.884454345703125e-05, 3.22265625) (-3.156106948852539e-05, 3.224609375) (-3.373282241821289e-05, 3.2265625) (-3.535502624511719e-05, 3.228515625) (-3.653641891479492e-05, 3.23046875) (-3.7365364074707027e-05, 3.232421875) (-3.7880172729492185e-05, 3.234375) (-3.807091522216797e-05, 3.236328125) (-3.7865447998046874e-05, 3.23828125) (-3.722495651245117e-05, 3.240234375) (-3.618625259399414e-05, 3.2421875) (-3.4814514160156246e-05, 3.244140625) (-3.319190597534179e-05, 3.24609375) (-3.1391218185424804e-05, 3.248046875) (-2.9453943252563477e-05, 3.25) (-2.7407978057861328e-05, 3.251953125) (-2.5289072036743163e-05, 3.25390625) (-2.314142608642578e-05, 3.255859375) (-2.099647331237793e-05, 3.2578125) (-1.8873950958251954e-05, 3.259765625) (-1.677646446228027e-05, 3.26171875) (-1.4692306518554686e-05, 3.263671875) (-1.2628904342651366e-05, 3.265625) (-1.0609472274780272e-05, 3.267578125) (-8.66753387451172e-06, 3.26953125) (-6.841107845306396e-06, 3.271484375) (-5.144837856292724e-06, 3.2734375) (-3.5725464820861813e-06, 3.275390625) (-2.1111590862274167e-06, 3.27734375) (-7.459804415702819e-07, 3.279296875) (5.344072580337524e-07, 3.28125) (1.7390508651733397e-06, 3.283203125) (2.8850116729736325e-06, 3.28515625) (3.998442649841308e-06, 3.287109375) (5.099814414978027e-06, 3.2890625) (6.204998016357422e-06, 3.291015625) (7.325114727020264e-06, 3.29296875) (8.46601676940918e-06, 3.294921875) (9.643486022949218e-06, 3.296875) (1.088112735748291e-05, 3.298828125) (1.2205768585205077e-05, 3.30078125) (1.3648267745971679e-05, 3.302734375) (1.523253059387207e-05, 3.3046875) (1.697480773925781e-05, 3.306640625) (1.888968849182129e-05, 3.30859375) (2.0989490509033203e-05, 3.310546875) (2.328302001953125e-05, 3.3125) (2.57772216796875e-05, 3.314453125) (2.8475021362304687e-05, 3.31640625) (3.13737907409668e-05, 3.318359375) (3.447293090820312e-05, 3.3203125) (3.777358245849609e-05, 3.322265625) (4.127597045898437e-05, 3.32421875) (4.498115921020507e-05, 3.326171875) (4.888765716552734e-05, 3.328125) (5.299053955078125e-05, 3.330078125) (5.7283241271972657e-05, 3.33203125) (6.175796127319335e-05, 3.333984375) (6.640454864501952e-05, 3.3359375) (7.121257019042968e-05, 3.337890625) (7.617422485351563e-05, 3.33984375) (8.127975463867187e-05, 3.341796875) (8.652032470703125e-05, 3.34375) (9.188768768310547e-05, 3.345703125) (9.736670684814453e-05, 3.34765625) (0.00010294226074218749, 3.349609375) (0.00010860162353515625, 3.3515625) (0.00011432933807373046, 3.353515625) (0.00012010804748535156, 3.35546875) (0.00012592112731933593, 3.357421875) (0.00013174647521972655, 3.359375) (0.00013756121826171875, 3.361328125) (0.00014335261535644532, 3.36328125) (0.00014910563659667968, 3.365234375) (0.00015480642700195312, 3.3671875) (0.0001604432678222656, 3.369140625) (0.00016599253845214843, 3.37109375) (0.000171431884765625, 3.373046875) (0.00017674090576171874, 3.375) (0.00018189648437499998, 3.376953125) (0.00018688691711425781, 3.37890625) (0.0001917027130126953, 3.380859375) (0.00019632397460937499, 3.3828125) (0.00020073268127441404, 3.384765625) (0.00020491972351074217, 3.38671875) (0.00020887149047851562, 3.388671875) (0.0002125845947265625, 3.390625) (0.00021605833435058594, 3.392578125) (0.00021926324462890625, 3.39453125) (0.00022217225646972656, 3.396484375) (0.00022476318359375, 3.3984375) (0.0002270093078613281, 3.400390625) (0.00022890325927734374, 3.40234375) (0.00023043902587890623, 3.404296875) (0.00023160311889648436, 3.40625) (0.00023238668823242185, 3.408203125) (0.00023277629089355468, 3.41015625) (0.00023275625610351562, 3.412109375) (0.00023232577514648438, 3.4140625) (0.00023148526000976561, 3.416015625) (0.00023021969604492185, 3.41796875) (0.00022852207946777342, 3.419921875) (0.00022637782287597655, 3.421875) (0.00022377030944824218, 3.423828125) (0.00022072471618652344, 3.42578125) (0.00021726747131347655, 3.427734375) (0.00021341688537597654, 3.4296875) (0.00020920007324218748, 3.431640625) (0.00020462915039062498, 3.43359375) (0.00019971556091308594, 3.435546875) (0.00019448564147949218, 3.4375) (0.00018896461486816405, 3.439453125) (0.00018317358398437498, 3.44140625) (0.00017713845825195312, 3.443359375) (0.00017087728881835936, 3.4453125) (0.00016440762329101563, 3.447265625) (0.00015776702880859373, 3.44921875) (0.00015098907470703125, 3.451171875) (0.00014411193847656248, 3.453125) (0.00013717810058593748, 3.455078125) (0.0001301991424560547, 3.45703125) (0.0001231862564086914, 3.458984375) (0.00011616097259521484, 3.4609375) (0.0001091392822265625, 3.462890625) (0.00010214534759521484, 3.46484375) (9.520571136474609e-05, 3.466796875) (8.833526611328125e-05, 3.46875) (8.15490951538086e-05, 3.470703125) (7.48728790283203e-05, 3.47265625) (6.832917022705077e-05, 3.474609375) (6.194192504882813e-05, 3.4765625) (5.573616790771484e-05, 3.478515625) (4.9722763061523435e-05, 3.48046875) (4.391284942626953e-05, 3.482421875) (3.831721115112305e-05, 3.484375) (3.2942775726318356e-05, 3.486328125) (2.780789756774902e-05, 3.48828125) (2.2930105209350586e-05, 3.490234375) (1.8319475173950194e-05, 3.4921875) (1.3986586570739745e-05, 3.494140625) (9.939091682434081e-06, 3.49609375) (6.181263923645019e-06, 3.498046875) (2.720576763153076e-06, 3.5) (-4.370242357254028e-07, 3.501953125) (-3.2952260971069336e-06, 3.50390625) (-5.858649253845214e-06, 3.505859375) (-8.13265323638916e-06, 3.5078125) (-1.0125507354736328e-05, 3.509765625) (-1.1842037200927734e-05, 3.51171875) (-1.32883243560791e-05, 3.513671875) (-1.4473731994628906e-05, 3.515625) (-1.5408008575439453e-05, 3.517578125) (-1.610334014892578e-05, 3.51953125) (-1.657330322265625e-05, 3.521484375) (-1.683086585998535e-05, 3.5234375) (-1.6889934539794923e-05, 3.525390625) (-1.676603317260742e-05, 3.52734375) (-1.647478675842285e-05, 3.529296875) (-1.6032859802246092e-05, 3.53125) (-1.5457422256469727e-05, 3.533203125) (-1.476350212097168e-05, 3.53515625) (-1.3966120719909668e-05, 3.537109375) (-1.3080904006958008e-05, 3.5390625) (-1.2122879981994628e-05, 3.541015625) (-1.1107364654541015e-05, 3.54296875) (-1.0049470901489257e-05, 3.544921875) (-8.963043212890625e-06, 3.546875) (-7.861364364624023e-06, 3.548828125) (-6.757871627807617e-06, 3.55078125) (-5.6651859283447265e-06, 3.552734375) (-4.595054149627685e-06, 3.5546875) (-3.5585176944732664e-06, 3.556640625) (-2.565258741378784e-06, 3.55859375) (-1.623953104019165e-06, 3.560546875) (-7.425690293312072e-07, 3.5625) (7.196368277072906e-08, 3.564453125) (8.137962818145752e-07, 3.56640625) (1.4780082702636718e-06, 3.568359375) (2.060683965682983e-06, 3.5703125) (2.558874130249023e-06, 3.572265625) (2.9704043865203857e-06, 3.57421875) (3.2939462661743162e-06, 3.576171875) (3.5290305614471434e-06, 3.578125) (3.6759445667266843e-06, 3.580078125) (3.7357418537139892e-06, 3.58203125) (3.7102208137512205e-06, 3.583984375) (3.6018054485321042e-06, 3.5859375) (3.4135200977325437e-06, 3.587890625) (3.1489927768707273e-06, 3.58984375) (2.8123135566711425e-06, 3.591796875) (2.4080057144165037e-06, 3.59375) (1.9409680366516112e-06, 3.595703125) (1.4162758588790893e-06, 3.59765625) (8.391767740249633e-07, 3.599609375) (2.1510523557662964e-07, 3.6015625) (-4.5045602321624756e-07, 3.603515625) (-1.1520510911941527e-06, 3.60546875) (-1.8842147588729857e-06, 3.607421875) (-2.641634941101074e-06, 3.609375) (-3.4191765785217284e-06, 3.611328125) (-4.21173095703125e-06, 3.61328125) (-5.014451503753662e-06, 3.615234375) (-5.822836399078369e-06, 3.6171875) (-6.63267707824707e-06, 3.619140625) (-7.440199375152587e-06, 3.62109375) (-8.242071151733399e-06, 3.623046875) (-9.035337448120117e-06, 3.625) (-9.817481040954589e-06, 3.626953125) (-1.0586484909057616e-05, 3.62890625) (-1.1340718269348145e-05, 3.630859375) (-1.2078947067260742e-05, 3.6328125) (-1.2800342559814453e-05, 3.634765625) (-1.3504387855529784e-05, 3.63671875) (-1.4190900802612303e-05, 3.638671875) (-1.4860011100769042e-05, 3.640625) (-1.5512121200561523e-05, 3.642578125) (-1.6147924423217773e-05, 3.64453125) (-1.676839256286621e-05, 3.646484375) (-1.7374725341796873e-05, 3.6484375) (-1.796832847595215e-05, 3.650390625) (-1.85507755279541e-05, 3.65234375) (-1.9123760223388672e-05, 3.654296875) (-1.96890869140625e-05, 3.65625) (-2.0248649597167967e-05, 3.658203125) (-2.080434799194336e-05, 3.66015625) (-2.1358078002929685e-05, 3.662109375) (-2.1911708831787107e-05, 3.6640625) (-2.2467025756835938e-05, 3.666015625) (-2.3025749206542966e-05, 3.66796875) (-2.3589542388916015e-05, 3.669921875) (-2.4159942626953124e-05, 3.671875) (-2.4738346099853515e-05, 3.673828125) (-2.5325998306274414e-05, 3.67578125) (-2.592391777038574e-05, 3.677734375) (-2.653290557861328e-05, 3.6796875) (-2.7153549194335935e-05, 3.681640625) (-2.7786149978637695e-05, 3.68359375) (-2.843072509765625e-05, 3.685546875) (-2.908699607849121e-05, 3.6875) (-2.9754377365112303e-05, 3.689453125) (-3.0432025909423827e-05, 3.69140625) (-3.1118875503540036e-05, 3.693359375) (-3.181365966796875e-05, 3.6953125) (-3.251489639282226e-05, 3.697265625) (-3.322095489501953e-05, 3.69921875) (-3.39300422668457e-05, 3.701171875) (-3.464028167724609e-05, 3.703125) (-3.53497314453125e-05, 3.705078125) (-3.605638122558594e-05, 3.70703125) (-3.6758182525634766e-05, 3.708984375) (-3.7453041076660155e-05, 3.7109375) (-3.813883972167969e-05, 3.712890625) (-3.881351852416992e-05, 3.71484375) (-3.947506713867187e-05, 3.716796875) (-4.012154388427734e-05, 3.71875) (-4.0751091003417967e-05, 3.720703125) (-4.136193084716797e-05, 3.72265625) (-4.195240020751953e-05, 3.724609375) (-4.252094268798828e-05, 3.7265625) (-4.3066173553466795e-05, 3.728515625) (-4.358681106567382e-05, 3.73046875) (-4.408168411254882e-05, 3.732421875) (-4.4549728393554683e-05, 3.734375) (-4.499002075195312e-05, 3.736328125) (-4.5401786804199214e-05, 3.73828125) (-4.5784461975097656e-05, 3.740234375) (-4.613766479492187e-05, 3.7421875) (-4.646120452880859e-05, 3.744140625) (-4.67551155090332e-05, 3.74609375) (-4.701966857910156e-05, 3.748046875) (-4.7255397796630855e-05, 3.75) (-4.7463096618652345e-05, 3.751953125) (-4.7643795013427735e-05, 3.75390625) (-4.779871368408203e-05, 3.755859375) (-4.792922592163086e-05, 3.7578125) (-4.803684997558593e-05, 3.759765625) (-4.812325668334961e-05, 3.76171875) (-4.819019317626953e-05, 3.763671875) (-4.823947906494141e-05, 3.765625) (-4.8272941589355464e-05, 3.767578125) (-4.8292404174804686e-05, 3.76953125) (-4.829967498779297e-05, 3.771484375) (-4.829653167724609e-05, 3.7734375) (-4.8284721374511714e-05, 3.775390625) (-4.826590728759765e-05, 3.77734375) (-4.824164199829102e-05, 3.779296875) (-4.82133674621582e-05, 3.78125) (-4.8182407379150386e-05, 3.783203125) (-4.814996337890625e-05, 3.78515625) (-4.8117164611816406e-05, 3.787109375) (-4.808501434326172e-05, 3.7890625) (-4.805440521240234e-05, 3.791015625) (-4.802614593505859e-05, 3.79296875) (-4.800096893310547e-05, 3.794921875) (-4.797956466674805e-05, 3.796875) (-4.796257400512695e-05, 3.798828125) (-4.7950561523437496e-05, 3.80078125) (-4.7943996429443356e-05, 3.802734375) (-4.794321823120117e-05, 3.8046875) (-4.794847106933593e-05, 3.806640625) (-4.79598388671875e-05, 3.80859375) (-4.797726058959961e-05, 3.810546875) (-4.800050735473633e-05, 3.8125) (-4.80291519165039e-05, 3.814453125) (-4.806259155273437e-05, 3.81640625) (-4.8100082397460935e-05, 3.818359375) (-4.814075469970703e-05, 3.8203125) (-4.818366241455078e-05, 3.822265625) (-4.822779846191406e-05, 3.82421875) (-4.827206420898437e-05, 3.826171875) (-4.831537628173828e-05, 3.828125) (-4.835665893554687e-05, 3.830078125) (-4.839488983154297e-05, 3.83203125) (-4.842915344238281e-05, 3.833984375) (-4.845861053466796e-05, 3.8359375) (-4.8482528686523435e-05, 3.837890625) (-4.8500305175781245e-05, 3.83984375) (-4.851153564453125e-05, 3.841796875) (-4.85159683227539e-05, 3.84375) (-4.8513549804687496e-05, 3.845703125) (-4.850439834594726e-05, 3.84765625) (-4.848877716064453e-05, 3.849609375) (-4.846706390380859e-05, 3.8515625) (-4.843979263305664e-05, 3.853515625) (-4.8407577514648434e-05, 3.85546875) (-4.8371105194091795e-05, 3.857421875) (-4.8331119537353515e-05, 3.859375) (-4.828837966918945e-05, 3.861328125) (-4.8243679046630854e-05, 3.86328125) (-4.819788360595703e-05, 3.865234375) (-4.815190887451172e-05, 3.8671875) (-4.810676956176758e-05, 3.869140625) (-4.806356811523437e-05, 3.87109375) (-4.802350616455078e-05, 3.873046875) (-4.798789596557617e-05, 3.875) (-4.795819473266601e-05, 3.876953125) (-4.793598175048828e-05, 3.87890625) (-4.792291641235351e-05, 3.880859375) (-4.792076873779297e-05, 3.8828125) (-4.793134307861328e-05, 3.884765625) (-4.795647048950195e-05, 3.88671875) (-4.799800109863281e-05, 3.888671875) (-4.805777359008789e-05, 3.890625) (-4.813756942749023e-05, 3.892578125) (-4.8239070892333985e-05, 3.89453125) (-4.836382675170898e-05, 3.896484375) (-4.8513229370117187e-05, 3.8984375) (-4.86884765625e-05, 3.900390625) (-4.889055633544921e-05, 3.90234375) (-4.912020492553711e-05, 3.904296875) (-4.937788391113281e-05, 3.90625) (-4.966376495361328e-05, 3.908203125) (-4.997773742675781e-05, 3.91015625) (-5.0319469451904295e-05, 3.912109375) (-5.0688385009765626e-05, 3.9140625) (-5.108370208740234e-05, 3.916015625) (-5.150446701049804e-05, 3.91796875) (-5.194956970214843e-05, 3.919921875) (-5.2417781829833983e-05, 3.921875) (-5.290777969360351e-05, 3.923828125) (-5.3418148040771484e-05, 3.92578125) (-5.394734573364258e-05, 3.927734375) (-5.4493751525878904e-05, 3.9296875) (-5.505559539794922e-05, 3.931640625) (-5.563099670410156e-05, 3.93359375) (-5.621792602539062e-05, 3.935546875) (-5.6814247131347655e-05, 3.9375) (-5.741767120361328e-05, 3.939453125) (-5.802579116821289e-05, 3.94140625) (-5.863609313964843e-05, 3.943359375) (-5.9245967864990233e-05, 3.9453125) (-5.9852722167968745e-05, 3.947265625) (-6.045362091064453e-05, 3.94921875) (-6.104589080810547e-05, 3.951171875) (-6.162674331665039e-05, 3.953125) (-6.219340515136719e-05, 3.955078125) (-6.274315643310546e-05, 3.95703125) (-6.327339172363281e-05, 3.958984375) (-6.378163528442383e-05, 3.9609375) (-6.426559448242188e-05, 3.962890625) (-6.472323608398438e-05, 3.96484375) (-6.515274810791015e-05, 3.966796875) (-6.555265808105468e-05, 3.96875) (-6.592179107666016e-05, 3.970703125) (-6.625927734375e-05, 3.97265625) (-6.656452941894531e-05, 3.974609375) (-6.68372344970703e-05, 3.9765625) (-6.707734680175781e-05, 3.978515625) (-6.728500366210937e-05, 3.98046875) (-6.746052551269531e-05, 3.982421875) (-6.760443115234375e-05, 3.984375) (-6.771736145019531e-05, 3.986328125) (-6.780008697509765e-05, 3.98828125) (-6.785359191894531e-05, 3.990234375) (-6.787897491455078e-05, 3.9921875) (-6.787751007080078e-05, 3.994140625) (-6.785061645507813e-05, 3.99609375) (-6.779984283447266e-05, 3.998046875) (-6.772686004638671e-05, 4.0) (-6.763349914550781e-05, 4.001953125) (-6.752166748046874e-05, 4.00390625) (-6.73933868408203e-05, 4.005859375) (-6.725071716308594e-05, 4.0078125) (-6.709582519531249e-05, 4.009765625) (-6.693089294433593e-05, 4.01171875) (-6.675826263427734e-05, 4.013671875) (-6.658023834228515e-05, 4.015625) (-6.639916229248047e-05, 4.017578125) (-6.621736145019532e-05, 4.01953125) (-6.603707885742187e-05, 4.021484375) (-6.586047363281249e-05, 4.0234375) (-6.568954467773437e-05, 4.025390625) (-6.552608489990234e-05, 4.02734375) (-6.537160491943359e-05, 4.029296875) (-6.5227294921875e-05, 4.03125) (-6.509403228759766e-05, 4.033203125) (-6.4972412109375e-05, 4.03515625) (-6.486275482177734e-05, 4.037109375) (-6.476512145996094e-05, 4.0390625) (-6.467924499511718e-05, 4.041015625) (-6.460464477539062e-05, 4.04296875) (-6.454061889648437e-05, 4.044921875) (-6.448625946044921e-05, 4.046875) (-6.44405288696289e-05, 4.048828125) (-6.440215301513672e-05, 4.05078125) (-6.436955261230469e-05, 4.052734375) (-6.434091186523437e-05, 4.0546875) (-6.431417846679688e-05, 4.056640625) (-6.428713989257812e-05, 4.05859375) (-6.425755310058594e-05, 4.060546875) (-6.422298431396485e-05, 4.0625) (-6.418084716796875e-05, 4.064453125) (-6.412850189208984e-05, 4.06640625) (-6.406320190429687e-05, 4.068359375) (-6.398221969604492e-05, 4.0703125) (-6.388287353515625e-05, 4.072265625) (-6.376237487792969e-05, 4.07421875) (-6.361782073974609e-05, 4.076171875) (-6.344626617431641e-05, 4.078125) (-6.324475479125976e-05, 4.080078125) (-6.301035308837891e-05, 4.08203125) (-6.274030303955078e-05, 4.083984375) (-6.243194580078125e-05, 4.0859375) (-6.208267211914062e-05, 4.087890625) (-6.169010162353515e-05, 4.08984375) (-6.125216674804688e-05, 4.091796875) (-6.076710510253906e-05, 4.09375) (-6.023352813720703e-05, 4.095703125) (-5.965035247802734e-05, 4.09765625) (-5.901661682128906e-05, 4.099609375) (-5.833162307739257e-05, 4.1015625) (-5.75950698852539e-05, 4.103515625) (-5.680691146850586e-05, 4.10546875) (-5.5967399597167965e-05, 4.107421875) (-5.507699203491211e-05, 4.109375) (-5.4136165618896484e-05, 4.111328125) (-5.314573287963867e-05, 4.11328125) (-5.210703659057617e-05, 4.115234375) (-5.102181243896484e-05, 4.1171875) (-4.989216613769531e-05, 4.119140625) (-4.872039031982422e-05, 4.12109375) (-4.750865936279297e-05, 4.123046875) (-4.6259387969970703e-05, 4.125) (-4.4975311279296876e-05, 4.126953125) (-4.365925598144531e-05, 4.12890625) (-4.231421661376953e-05, 4.130859375) (-4.094315338134765e-05, 4.1328125) (-3.9548843383789064e-05, 4.134765625) (-3.813422393798828e-05, 4.13671875) (-3.670258331298828e-05, 4.138671875) (-3.5257266998291015e-05, 4.140625) (-3.380170440673828e-05, 4.142578125) (-3.2339424133300776e-05, 4.14453125) (-3.08736515045166e-05, 4.146484375) (-2.9407619476318358e-05, 4.1484375) (-2.7944808959960937e-05, 4.150390625) (-2.6488544464111326e-05, 4.15234375) (-2.5041921615600584e-05, 4.154296875) (-2.3607980728149414e-05, 4.15625) (-2.218953704833984e-05, 4.158203125) (-2.0789230346679685e-05, 4.16015625) (-1.9410114288330077e-05, 4.162109375) (-1.805519676208496e-05, 4.1640625) (-1.6726993560791016e-05, 4.166015625) (-1.5428393363952636e-05, 4.16796875) (-1.4162806510925292e-05, 4.169921875) (-1.2933977127075195e-05, 4.171875) (-1.1746460914611817e-05, 4.173828125) (-1.0605178833007812e-05, 4.17578125) (-9.51418685913086e-06, 4.177734375) (-8.47796058654785e-06, 4.1796875) (-7.502132892608642e-06, 4.181640625) (-6.592605590820312e-06, 4.18359375) (-5.7560005187988275e-06, 4.185546875) (-4.99878978729248e-06, 4.1875) (-4.3262009620666506e-06, 4.189453125) (-3.7440226078033447e-06, 4.19140625) (-3.2598257064819333e-06, 4.193359375) (-2.881587266921997e-06, 4.1953125) (-2.617624759674072e-06, 4.197265625) (-2.475090026855469e-06, 4.19921875) (-2.4575531482696532e-06, 4.201171875) (-2.569130420684814e-06, 4.203125) (-2.815760374069214e-06, 4.205078125) (-3.201859951019287e-06, 4.20703125) (-3.732192993164062e-06, 4.208984375) (-4.40852689743042e-06, 4.2109375) (-5.225780963897705e-06, 4.212890625) (-6.180735111236572e-06, 4.21484375) (-7.276166915893554e-06, 4.216796875) (-8.515810012817382e-06, 4.21875) (-9.906629562377929e-06, 4.220703125) (-1.145572853088379e-05, 4.22265625) (-1.3160298347473143e-05, 4.224609375) (-1.5018606185913085e-05, 4.2265625) (-1.7036136627197265e-05, 4.228515625) (-1.9219072341918944e-05, 4.23046875) (-2.157764434814453e-05, 4.232421875) (-2.411581039428711e-05, 4.234375) (-2.682185173034668e-05, 4.236328125) (-2.9682239532470703e-05, 4.23828125) (-3.268762969970703e-05, 4.240234375) (-3.5831710815429686e-05, 4.2421875) (-3.911598587036133e-05, 4.244140625) (-4.252834701538086e-05, 4.24609375) (-4.6025390625e-05, 4.248046875) (-4.9555118560791016e-05, 4.25) (-5.3059123992919916e-05, 4.251953125) (-5.647101593017578e-05, 4.25390625) (-5.973834228515625e-05, 4.255859375) (-6.279916381835937e-05, 4.2578125) (-6.556424713134765e-05, 4.259765625) (-6.794364166259766e-05, 4.26171875) (-6.985354614257813e-05, 4.263671875) (-7.122523498535155e-05, 4.265625) (-7.202819061279296e-05, 4.267578125) (-7.225726318359374e-05, 4.26953125) (-7.190934753417969e-05, 4.271484375) (-7.099215698242187e-05, 4.2734375) (-6.952739715576171e-05, 4.275390625) (-6.755564880371094e-05, 4.27734375) (-6.516148376464844e-05, 4.279296875) (-6.246765136718749e-05, 4.28125) (-5.961246109008789e-05, 4.283203125) (-5.674862670898437e-05, 4.28515625) (-5.403590393066406e-05, 4.287109375) (-5.163752746582031e-05, 4.2890625) (-4.9735649108886715e-05, 4.291015625) (-4.859805297851562e-05, 4.29296875) (-4.855310821533203e-05, 4.294921875) (-4.982398223876953e-05, 4.296875) (-5.2500785827636716e-05, 4.298828125) (-5.647246551513672e-05, 4.30078125) (-6.138114929199218e-05, 4.302734375) (-6.681327056884765e-05, 4.3046875) (-7.237751007080078e-05, 4.306640625) (-7.745301055908203e-05, 4.30859375) (-8.118598175048828e-05, 4.310546875) (-8.298612213134765e-05, 4.3125) (-8.258079528808593e-05, 4.314453125) (-8.02038116455078e-05, 4.31640625) (-7.699396514892577e-05, 4.318359375) (-7.447096252441406e-05, 4.3203125) (-7.4033447265625e-05, 4.322265625) (-7.753008270263672e-05, 4.32421875) (-8.615414428710938e-05, 4.326171875) (-9.886530303955078e-05, 4.328125) (-0.00011384072875976562, 4.330078125) (-0.00012843258666992186, 4.33203125) (-0.0001414076232910156, 4.333984375) (-0.00015563182067871093, 4.3359375) (-0.00017403005981445313, 4.337890625) (-0.00019588485717773437, 4.33984375) (-0.00021330059814453123, 4.341796875) (-0.0002107362060546875, 4.34375) (-0.00017058354187011717, 4.345703125) (-8.091954803466797e-05, 4.34765625) (6.015823364257812e-05, 4.349609375) (0.000245074462890625, 4.3515625) (0.00045595831298828125, 4.353515625) (0.000670194580078125, 4.35546875) (0.0008635164794921874, 4.357421875) (0.0010111538696289063, 4.359375) (0.0010980150146484376, 4.361328125) (0.0011184749755859375, 4.36328125) (0.0010770682373046874, 4.365234375) (0.0009863309936523437, 4.3671875) (0.0008568829345703124, 4.369140625) (0.0007015051269531249, 4.37109375) (0.0005312828979492188, 4.373046875) (0.0003587587890625, 4.375) (0.00020242552185058594, 4.376953125) (7.181707763671874e-05, 4.37890625) (-2.8143554687499997e-05, 4.380859375) (-9.963459014892578e-05, 4.3828125) (-0.00015575936889648437, 4.384765625) (-0.00020249539184570312, 4.38671875) (-0.00024124386596679687, 4.388671875) (-0.0002711824951171875, 4.390625) (-0.0002853895263671875, 4.392578125) (-0.0002821942443847656, 4.39453125) (-0.0002658616943359375, 4.396484375) (-0.000241367431640625, 4.3984375) (-0.00021543363952636718, 4.400390625) (-0.00019289666748046873, 4.40234375) (-0.00017471685791015624, 4.404296875) (-0.00016069793701171874, 4.40625) (-0.00015031639099121093, 4.408203125) (-0.00014273912048339842, 4.41015625) (-0.00013696273803710937, 4.412109375) (-0.0001318836212158203, 4.4140625) (-0.00012602821350097656, 4.416015625) (-0.00011785540008544922, 4.41796875) (-0.00010695544433593749, 4.419921875) (-9.366090393066405e-05, 4.421875) (-7.849449920654296e-05, 4.423828125) (-6.233245086669921e-05, 4.42578125) (-4.60079231262207e-05, 4.427734375) (-3.0197086334228516e-05, 4.4296875) (-1.5784963607788086e-05, 4.431640625) (-3.6470746994018553e-06, 4.43359375) (5.827545642852783e-06, 4.435546875) (1.2553276062011717e-05, 4.4375) (1.6668088912963865e-05, 4.439453125) (1.8539039611816404e-05, 4.44140625) (1.84625186920166e-05, 4.443359375) (1.6694181442260742e-05, 4.4453125) (1.3573858261108398e-05, 4.447265625) (9.448493003845215e-06, 4.44921875) (4.631919384002686e-06, 4.451171875) (-5.959545373916626e-07, 4.453125) (-6.0189733505249025e-06, 4.455078125) (-1.146226692199707e-05, 4.45703125) (-1.675638961791992e-05, 4.458984375) (-2.1734527587890624e-05, 4.4609375) (-2.6217357635498046e-05, 4.462890625) (-3.0050827026367184e-05, 4.46484375) (-3.312271499633789e-05, 4.466796875) (-3.534517669677734e-05, 4.46875) (-3.669216156005859e-05, 4.470703125) (-3.718418884277344e-05, 4.47265625) (-3.6853416442871094e-05, 4.474609375) (-3.576630783081055e-05, 4.4765625) (-3.401075744628906e-05, 4.478515625) (-3.1675170898437496e-05, 4.48046875) (-2.8867925643920898e-05, 4.482421875) (-2.570071792602539e-05, 4.484375) (-2.2267480850219724e-05, 4.486328125) (-1.86610107421875e-05, 4.48828125) (-1.4958831787109374e-05, 4.490234375) (-1.122453212738037e-05, 4.4921875) (-7.538370609283447e-06, 4.494140625) (-3.975132942199707e-06, 4.49609375) (-5.990147590637207e-07, 4.498046875) (2.5240216255187987e-06, 4.5) (5.358598232269287e-06, 4.501953125) (7.895040988922119e-06, 4.50390625) (1.0126611709594725e-05, 4.505859375) (1.2063374519348144e-05, 4.5078125) (1.3728315353393555e-05, 4.509765625) (1.5143430709838867e-05, 4.51171875) (1.634198760986328e-05, 4.513671875) (1.736496353149414e-05, 4.515625) (1.8243343353271482e-05, 4.517578125) (1.900641059875488e-05, 4.51953125) (1.9680559158325193e-05, 4.521484375) (2.0285036087036133e-05, 4.5234375) (2.0847089767456054e-05, 4.525390625) (2.139807891845703e-05, 4.52734375) (2.196913146972656e-05, 4.529296875) (2.2595804214477537e-05, 4.53125) (2.330662727355957e-05, 4.533203125) (2.412188148498535e-05, 4.53515625) (2.5061601638793943e-05, 4.537109375) (2.6142074584960937e-05, 4.5390625) (2.737412643432617e-05, 4.541015625) (2.8767522811889647e-05, 4.54296875) (3.03278694152832e-05, 4.544921875) (3.2055999755859374e-05, 4.546875) (3.395606994628906e-05, 4.548828125) (3.603403091430664e-05, 4.55078125) (3.829519653320312e-05, 4.552734375) (4.0746360778808594e-05, 4.5546875) (4.33934097290039e-05, 4.556640625) (4.624030303955078e-05, 4.55859375) (4.928975677490234e-05, 4.560546875) (5.254280090332031e-05, 4.5625) (5.599868011474609e-05, 4.564453125) (5.96553955078125e-05, 4.56640625) (6.351035308837891e-05, 4.568359375) (6.755999755859375e-05, 4.5703125) (7.179986572265625e-05, 4.572265625) (7.622514343261718e-05, 4.57421875) (8.082939147949218e-05, 4.576171875) (8.560408020019531e-05, 4.578125) (9.054246520996093e-05, 4.580078125) (9.563868713378906e-05, 4.58203125) (0.00010088561248779297, 4.583984375) (0.00010627664184570312, 4.5859375) (0.00011179804992675781, 4.587890625) (0.00011742773437499999, 4.58984375) (0.00012314590454101562, 4.591796875) (0.00012893447875976562, 4.59375) (0.00013477273559570313, 4.595703125) (0.000140640380859375, 4.59765625) (0.00014651351928710938, 4.599609375) (0.00015236260986328123, 4.6015625) (0.00015816827392578124, 4.603515625) (0.00016391990661621092, 4.60546875) (0.00016960646057128905, 4.607421875) (0.00017522018432617186, 4.609375) (0.00018074337768554687, 4.611328125) (0.00018614756774902342, 4.61328125) (0.00019140751647949217, 4.615234375) (0.00019649737548828124, 4.6171875) (0.00020140017700195312, 4.619140625) (0.00020611280822753906, 4.62109375) (0.00021062408447265624, 4.623046875) (0.00021491418457031248, 4.625) (0.0002189740447998047, 4.626953125) (0.00022279864501953124, 4.62890625) (0.00022638839721679686, 4.630859375) (0.00022975622558593748, 4.6328125) (0.00023288832092285155, 4.634765625) (0.00023574345397949216, 4.63671875) (0.0002382869415283203, 4.638671875) (0.00024048345947265623, 4.640625) (0.00024231161499023437, 4.642578125) (0.00024377005004882812, 4.64453125) (0.0002448501892089844, 4.646484375) (0.0002455395965576172, 4.6484375) (0.00024582492065429684, 4.650390625) (0.00024568469238281246, 4.65234375) (0.00024510894775390624, 4.654296875) (0.00024410281372070313, 4.65625) (0.00024265545654296873, 4.658203125) (0.00024074717712402343, 4.66015625) (0.00023835707092285154, 4.662109375) (0.00023545278930664062, 4.6640625) (0.00023204034423828125, 4.666015625) (0.00022816726684570313, 4.66796875) (0.00022387258911132812, 4.669921875) (0.00021919439697265625, 4.671875) (0.00021416293334960938, 4.673828125) (0.00020879113769531248, 4.67578125) (0.00020310443115234374, 4.677734375) (0.00019714059448242187, 4.6796875) (0.00019093045043945311, 4.681640625) (0.00018450396728515625, 4.68359375) (0.00017788648986816406, 4.685546875) (0.00017109324645996093, 4.6875) (0.00016415777587890624, 4.689453125) (0.00015712857055664062, 4.69140625) (0.00015005363464355468, 4.693359375) (0.00014298907470703125, 4.6953125) (0.00013596340942382813, 4.697265625) (0.00012897311401367188, 4.69921875) (0.0001220242691040039, 4.701171875) (0.00011512747955322265, 4.703125) (0.00010829581451416015, 4.705078125) (0.00010155288696289062, 4.70703125) (9.491302490234374e-05, 4.708984375) (8.837924194335936e-05, 4.7109375) (8.196572875976562e-05, 4.712890625) (7.569470977783203e-05, 4.71484375) (6.958733367919922e-05, 4.716796875) (6.366808319091797e-05, 4.71875) (5.794923400878906e-05, 4.720703125) (5.243019866943359e-05, 4.72265625) (4.711158752441406e-05, 4.724609375) (4.199114227294922e-05, 4.7265625) (3.707570648193359e-05, 4.728515625) (3.2384349822998043e-05, 4.73046875) (2.7929407119750977e-05, 4.732421875) (2.3717887878417967e-05, 4.734375) (1.975609016418457e-05, 4.736328125) (1.6045846939086913e-05, 4.73828125) (1.2590758323669433e-05, 4.740234375) (9.398099899291991e-06, 4.7421875) (6.465936660766601e-06, 4.744140625) (3.7837424278259276e-06, 4.74609375) (1.3413628339767456e-06, 4.748046875) (-8.729847073554993e-07, 4.75) (-2.868574857711792e-06, 4.751953125) (-4.6506381034851075e-06, 4.75390625) (-6.227250099182129e-06, 4.755859375) (-7.608557701110839e-06, 4.7578125) (-8.80602741241455e-06, 4.759765625) (-9.833522796630858e-06, 4.76171875) (-1.0704349517822265e-05, 4.763671875) (-1.1430900573730468e-05, 4.765625) (-1.2027007102966309e-05, 4.767578125) (-1.250720977783203e-05, 4.76953125) (-1.2886250495910644e-05, 4.771484375) (-1.317961311340332e-05, 4.7734375) (-1.3400473594665526e-05, 4.775390625) (-1.3559356689453124e-05, 4.77734375) (-1.3667098999023438e-05, 4.779296875) (-1.3734380722045898e-05, 4.78125) (-1.3771580696105956e-05, 4.783203125) (-1.3789288520812987e-05, 4.78515625) (-1.3796859741210937e-05, 4.787109375) (-1.3802209854125975e-05, 4.7890625) (-1.3813346862792969e-05, 4.791015625) (-1.3838214874267578e-05, 4.79296875) (-1.3883729934692382e-05, 4.794921875) (-1.3955997467041014e-05, 4.796875) (-1.4059930801391601e-05, 4.798828125) (-1.4199090957641601e-05, 4.80078125) (-1.4376465797424316e-05, 4.802734375) (-1.4594512939453124e-05, 4.8046875) (-1.4854841232299803e-05, 4.806640625) (-1.5158355712890624e-05, 4.80859375) (-1.5505365371704102e-05, 4.810546875) (-1.5895565032958982e-05, 4.8125) (-1.6328226089477537e-05, 4.814453125) (-1.6802251815795896e-05, 4.81640625) (-1.7316011428833006e-05, 4.818359375) (-1.7867374420166014e-05, 4.8203125) (-1.8453765869140623e-05, 4.822265625) (-1.907218551635742e-05, 4.82421875) (-1.9719310760498046e-05, 4.826171875) (-2.0391597747802734e-05, 4.828125) (-2.1085241317749023e-05, 4.830078125) (-2.1796276092529297e-05, 4.83203125) (-2.2520694732666016e-05, 4.833984375) (-2.325446891784668e-05, 4.8359375) (-2.399371337890625e-05, 4.837890625) (-2.473475646972656e-05, 4.83984375) (-2.5474010467529296e-05, 4.841796875) (-2.620796966552734e-05, 4.84375) (-2.6933361053466795e-05, 4.845703125) (-2.764710235595703e-05, 4.84765625) (-2.8346372604370117e-05, 4.849609375) (-2.9028703689575194e-05, 4.8515625) (-2.9691772460937497e-05, 4.853515625) (-3.0333412170410154e-05, 4.85546875) (-3.095187950134277e-05, 4.857421875) (-3.154582595825195e-05, 4.859375) (-3.211427307128906e-05, 4.861328125) (-3.265666580200195e-05, 4.86328125) (-3.317269515991211e-05, 4.865234375) (-3.366223526000977e-05, 4.8671875) (-3.4125438690185547e-05, 4.869140625) (-3.456268692016601e-05, 4.87109375) (-3.4974487304687495e-05, 4.873046875) (-3.536152267456054e-05, 4.875) (-3.572456359863281e-05, 4.876953125) (-3.606451416015625e-05, 4.87890625) (-3.638247680664062e-05, 4.880859375) (-3.667975616455078e-05, 4.8828125) (-3.6957847595214845e-05, 4.884765625) (-3.721844863891601e-05, 4.88671875) (-3.746340942382812e-05, 4.888671875) (-3.7694664001464844e-05, 4.890625) (-3.7914222717285156e-05, 4.892578125) (-3.812411499023437e-05, 4.89453125) (-3.832634735107422e-05, 4.896484375) (-3.8522914886474605e-05, 4.8984375) (-3.8715724945068356e-05, 4.900390625) (-3.890663146972656e-05, 4.90234375) (-3.909738159179687e-05, 4.904296875) (-3.928969573974609e-05, 4.90625) (-3.948519897460937e-05, 4.908203125) (-3.9685443878173824e-05, 4.91015625) (-3.9891841888427734e-05, 4.912109375) (-4.0105644226074217e-05, 4.9140625) (-4.032790374755859e-05, 4.916015625) (-4.0559478759765626e-05, 4.91796875) (-4.080097198486328e-05, 4.919921875) (-4.105276870727539e-05, 4.921875) (-4.13150634765625e-05, 4.923828125) (-4.158784484863281e-05, 4.92578125) (-4.1870983123779296e-05, 4.927734375) (-4.2164268493652345e-05, 4.9296875) (-4.2467445373535156e-05, 4.931640625) (-4.2780235290527344e-05, 4.93359375) (-4.3102348327636715e-05, 4.935546875) (-4.343347930908203e-05, 4.9375) (-4.3773277282714844e-05, 4.939453125) (-4.412131881713867e-05, 4.94140625) (-4.4477081298828124e-05, 4.943359375) (-4.483995056152344e-05, 4.9453125) (-4.520919036865234e-05, 4.947265625) (-4.558396148681641e-05, 4.94921875) (-4.596334075927734e-05, 4.951171875) (-4.634632492065429e-05, 4.953125) (-4.673188781738281e-05, 4.955078125) (-4.711898040771484e-05, 4.95703125) (-4.7506568908691405e-05, 4.958984375) (-4.789360427856445e-05, 4.9609375) (-4.8279026031494136e-05, 4.962890625) (-4.8661746978759765e-05, 4.96484375) (-4.9040676116943355e-05, 4.966796875) (-4.941470718383789e-05, 4.96875) (-4.9782768249511715e-05, 4.970703125) (-5.014377593994141e-05, 4.97265625) (-5.0496765136718746e-05, 4.974609375) (-5.084086990356445e-05, 4.9765625) (-5.117536926269531e-05, 4.978515625) (-5.1499755859375e-05, 4.98046875) (-5.1813720703125e-05, 4.982421875) (-5.211714172363281e-05, 4.984375) (-5.241006851196289e-05, 4.986328125) (-5.269263076782226e-05, 4.98828125) (-5.296506881713867e-05, 4.990234375) (-5.322765350341797e-05, 4.9921875) (-5.3480663299560544e-05, 4.994140625) (-5.372434616088867e-05, 4.99609375) (-5.3958915710449214e-05, 4.998046875) (-5.4184555053710935e-05, 5.0) (-5.4401439666748046e-05, 5.001953125) (-5.4609771728515624e-05, 5.00390625) (-5.4809791564941405e-05, 5.005859375) (-5.5001762390136716e-05, 5.0078125) (-5.5185970306396484e-05, 5.009765625) (-5.536270904541016e-05, 5.01171875) (-5.5532272338867186e-05, 5.013671875) (-5.56949348449707e-05, 5.015625) (-5.5850952148437496e-05, 5.017578125) (-5.6000560760498046e-05, 5.01953125) (-5.6143943786621094e-05, 5.021484375) (-5.6281280517578125e-05, 5.0234375) (-5.641275405883789e-05, 5.025390625) (-5.653861618041992e-05, 5.02734375) (-5.665914154052734e-05, 5.029296875) (-5.6774658203124995e-05, 5.03125) (-5.6885490417480465e-05, 5.033203125) (-5.6991943359374995e-05, 5.03515625) (-5.7094268798828125e-05, 5.037109375) (-5.719259643554687e-05, 5.0390625) (-5.728692626953125e-05, 5.041015625) (-5.737705993652343e-05, 5.04296875) (-5.7462608337402343e-05, 5.044921875) (-5.754298400878906e-05, 5.046875) (-5.761743927001953e-05, 5.048828125) (-5.7685157775878904e-05, 5.05078125) (-5.774525451660156e-05, 5.052734375) (-5.779682159423828e-05, 5.0546875) (-5.783895874023437e-05, 5.056640625) (-5.787080383300781e-05, 5.05859375) (-5.7891551971435544e-05, 5.060546875) (-5.790048599243164e-05, 5.0625) (-5.7896930694580075e-05, 5.064453125) (-5.7880260467529294e-05, 5.06640625) (-5.7849899291992186e-05, 5.068359375) (-5.7805343627929686e-05, 5.0703125) (-5.774618148803711e-05, 5.072265625) (-5.767214584350586e-05, 5.07421875) (-5.758312606811523e-05, 5.076171875) (-5.747917938232422e-05, 5.078125) (-5.7360527038574214e-05, 5.080078125) (-5.7227546691894526e-05, 5.08203125) (-5.7080776214599604e-05, 5.083984375) (-5.6920860290527344e-05, 5.0859375) (-5.674854278564453e-05, 5.087890625) (-5.656459045410156e-05, 5.08984375) (-5.6369762420654295e-05, 5.091796875) (-5.6164833068847656e-05, 5.09375) (-5.5950599670410155e-05, 5.095703125) (-5.5727935791015624e-05, 5.09765625) (-5.549781799316406e-05, 5.099609375) (-5.526134490966796e-05, 5.1015625) (-5.501977157592773e-05, 5.103515625) (-5.477455139160156e-05, 5.10546875) (-5.452734375e-05, 5.107421875) (-5.428001022338867e-05, 5.109375) (-5.403456878662109e-05, 5.111328125) (-5.3793109893798825e-05, 5.11328125) (-5.355778503417969e-05, 5.115234375) (-5.333073806762695e-05, 5.1171875) (-5.31141242980957e-05, 5.119140625) (-5.291004943847656e-05, 5.12109375) (-5.272057723999023e-05, 5.123046875) (-5.25477066040039e-05, 5.125) (-5.239331817626953e-05, 5.126953125) (-5.2259243011474607e-05, 5.12890625) (-5.214721298217773e-05, 5.130859375) (-5.2058815002441404e-05, 5.1328125) (-5.199544525146484e-05, 5.134765625) (-5.1958251953124996e-05, 5.13671875) (-5.194810485839844e-05, 5.138671875) (-5.1965541839599604e-05, 5.140625) (-5.2010829925537105e-05, 5.142578125) (-5.2083919525146485e-05, 5.14453125) (-5.2184501647949214e-05, 5.146484375) (-5.2312030792236325e-05, 5.1484375) (-5.246573638916015e-05, 5.150390625) (-5.264472961425781e-05, 5.15234375) (-5.2848026275634764e-05, 5.154296875) (-5.307455825805664e-05, 5.15625) (-5.332315444946289e-05, 5.158203125) (-5.359249114990234e-05, 5.16015625) (-5.388109588623047e-05, 5.162109375) (-5.4187309265136715e-05, 5.1640625) (-5.450927734375e-05, 5.166015625) (-5.4844940185546874e-05, 5.16796875) (-5.5192024230957026e-05, 5.169921875) (-5.554806137084961e-05, 5.171875) (-5.5910392761230465e-05, 5.173828125) (-5.627629089355469e-05, 5.17578125) (-5.66429557800293e-05, 5.177734375) (-5.7007560729980465e-05, 5.1796875) (-5.736727523803711e-05, 5.181640625) (-5.7719230651855465e-05, 5.18359375) (-5.8060554504394525e-05, 5.185546875) (-5.8388378143310546e-05, 5.1875) (-5.8699867248535154e-05, 5.189453125) (-5.899223709106445e-05, 5.19140625) (-5.926273345947265e-05, 5.193359375) (-5.9508728027343746e-05, 5.1953125) (-5.972772216796875e-05, 5.197265625) (-5.991749572753906e-05, 5.19921875) (-6.007610321044922e-05, 5.201171875) (-6.020193481445312e-05, 5.203125) (-6.0293701171875e-05, 5.205078125) (-6.0350440979003906e-05, 5.20703125) (-6.037147521972656e-05, 5.208984375) (-6.035639953613281e-05, 5.2109375) (-6.03050537109375e-05, 5.212890625) (-6.021746063232422e-05, 5.21484375) (-6.009379196166992e-05, 5.216796875) (-5.993434143066406e-05, 5.21875) (-5.973954010009765e-05, 5.220703125) (-5.951003265380859e-05, 5.22265625) (-5.9246646881103515e-05, 5.224609375) (-5.895043182373046e-05, 5.2265625) (-5.862264251708984e-05, 5.228515625) (-5.826473236083984e-05, 5.23046875) (-5.787837982177734e-05, 5.232421875) (-5.74654541015625e-05, 5.234375) (-5.7027992248535155e-05, 5.236328125) (-5.6568134307861326e-05, 5.23828125) (-5.6088092803955075e-05, 5.240234375) (-5.5590141296386715e-05, 5.2421875) (-5.5076625823974605e-05, 5.244140625) (-5.454997253417968e-05, 5.24609375) (-5.401272201538086e-05, 5.248046875) (-5.346749114990234e-05, 5.25) (-5.29169692993164e-05, 5.251953125) (-5.236392593383789e-05, 5.25390625) (-5.181114959716797e-05, 5.255859375) (-5.126144790649414e-05, 5.2578125) (-5.071754455566406e-05, 5.259765625) (-5.018203735351562e-05, 5.26171875) (-4.965731430053711e-05, 5.263671875) (-4.914552307128906e-05, 5.265625) (-4.864856719970703e-05, 5.267578125) (-4.8168113708496093e-05, 5.26953125) (-4.770560836791992e-05, 5.271484375) (-4.7262271881103516e-05, 5.2734375) (-4.683914184570312e-05, 5.275390625) (-4.64371109008789e-05, 5.27734375) (-4.6056911468505856e-05, 5.279296875) (-4.569920349121093e-05, 5.28125) (-4.536446762084961e-05, 5.283203125) (-4.505297088623047e-05, 5.28515625) (-4.4764808654785156e-05, 5.287109375) (-4.449984741210937e-05, 5.2890625) (-4.4257774353027344e-05, 5.291015625) (-4.403804016113281e-05, 5.29296875) (-4.383988952636719e-05, 5.294921875) (-4.3662353515625e-05, 5.296875) (-4.3504337310791016e-05, 5.298828125) (-4.336466598510742e-05, 5.30078125) (-4.3242034912109374e-05, 5.302734375) (-4.3135021209716796e-05, 5.3046875) (-4.304206085205078e-05, 5.306640625) (-4.296141052246093e-05, 5.30859375) (-4.2891174316406246e-05, 5.310546875) (-4.2829246520996094e-05, 5.3125) (-4.277329635620117e-05, 5.314453125) (-4.272078704833984e-05, 5.31640625) (-4.2669025421142575e-05, 5.318359375) (-4.261524200439453e-05, 5.3203125) (-4.2556625366210934e-05, 5.322265625) (-4.2490402221679684e-05, 5.32421875) (-4.241387939453125e-05, 5.326171875) (-4.2324493408203126e-05, 5.328125) (-4.2219791412353515e-05, 5.330078125) (-4.209743118286133e-05, 5.33203125) (-4.195523452758789e-05, 5.333984375) (-4.179117965698242e-05, 5.3359375) (-4.1603332519531246e-05, 5.337890625) (-4.138984680175781e-05, 5.33984375) (-4.114892196655273e-05, 5.341796875) (-4.087882232666015e-05, 5.34375) (-4.0578056335449215e-05, 5.345703125) (-4.024542617797851e-05, 5.34765625) (-3.987983703613281e-05, 5.349609375) (-3.948031616210937e-05, 5.3515625) (-3.9046112060546876e-05, 5.353515625) (-3.857672119140625e-05, 5.35546875) (-3.807191467285156e-05, 5.357421875) (-3.753176116943359e-05, 5.359375) (-3.695626068115234e-05, 5.361328125) (-3.6345386505126954e-05, 5.36328125) (-3.5699241638183595e-05, 5.365234375) (-3.5018157958984376e-05, 5.3671875) (-3.4302593231201173e-05, 5.369140625) (-3.355321884155273e-05, 5.37109375) (-3.27708625793457e-05, 5.373046875) (-3.195656585693359e-05, 5.375) (-3.1111751556396483e-05, 5.376953125) (-3.0238225936889648e-05, 5.37890625) (-2.9338037490844724e-05, 5.380859375) (-2.841333770751953e-05, 5.3828125) (-2.7466312408447264e-05, 5.384765625) (-2.6499191284179687e-05, 5.38671875) (-2.5514183044433594e-05, 5.388671875) (-2.4513446807861326e-05, 5.390625) (-2.349920845031738e-05, 5.392578125) (-2.2473726272583008e-05, 5.39453125) (-2.1439064025878904e-05, 5.396484375) (-2.0397144317626952e-05, 5.3984375) (-1.934998893737793e-05, 5.400390625) (-1.8299671173095704e-05, 5.40234375) (-1.724840545654297e-05, 5.404296875) (-1.6198514938354492e-05, 5.40625) (-1.5151908874511718e-05, 5.408203125) (-1.4110058784484862e-05, 5.41015625) (-1.3074588775634765e-05, 5.412109375) (-1.2047348022460937e-05, 5.4140625) (-1.1029802322387695e-05, 5.416015625) (-1.0023173332214356e-05, 5.41796875) (-9.028270721435546e-06, 5.419921875) (-8.045531272888184e-06, 5.421875) (-7.076236248016357e-06, 5.423828125) (-6.1226487159729e-06, 5.42578125) (-5.187071800231934e-06, 5.427734375) (-4.2718577384948726e-06, 5.4296875) (-3.380387783050537e-06, 5.431640625) (-2.5166985988616944e-06, 5.43359375) (-1.6858191490173338e-06, 5.435546875) (-8.936868906021118e-07, 5.4375) (-1.450880765914917e-07, 5.439453125) (5.559158325195312e-07, 5.44140625) (1.2047438621520995e-06, 5.443359375) (1.796242594718933e-06, 5.4453125) (2.324772596359253e-06, 5.447265625) (2.7842049598693847e-06, 5.44921875) (3.16856837272644e-06, 5.451171875) (3.4717421531677244e-06, 5.453125) (3.6861777305603024e-06, 5.455078125) (3.804012298583984e-06, 5.45703125) (3.816426277160644e-06, 5.458984375) (3.714548349380493e-06, 5.4609375) (3.4933271408081053e-06, 5.462890625) (3.149322509765625e-06, 5.46484375) (2.6812407970428467e-06, 5.466796875) (2.0900709629058835e-06, 5.46875) (1.372162103652954e-06, 5.470703125) (5.206063985824585e-07, 5.47265625) (-4.69336062669754e-07, 5.474609375) (-1.6027660369873045e-06, 5.4765625) (-2.889390230178833e-06, 5.478515625) (-4.34083080291748e-06, 5.48046875) (-5.973865509033203e-06, 5.482421875) (-7.807916641235351e-06, 5.484375) (-9.850079536437988e-06, 5.486328125) (-1.210022258758545e-05, 5.48828125) (-1.4557708740234374e-05, 5.490234375) (-1.722138214111328e-05, 5.4921875) (-2.0094682693481446e-05, 5.494140625) (-2.3178810119628906e-05, 5.49609375) (-2.6469337463378907e-05, 5.498046875) (-2.9958133697509766e-05, 5.5) (-3.362722015380859e-05, 5.501953125) (-3.7451282501220704e-05, 5.50390625) (-4.140082168579101e-05, 5.505859375) (-4.5432350158691405e-05, 5.5078125) (-4.948029327392578e-05, 5.509765625) (-5.346636199951172e-05, 5.51171875) (-5.729624938964843e-05, 5.513671875) (-6.086542129516601e-05, 5.515625) (-6.40943603515625e-05, 5.517578125) (-6.691648101806641e-05, 5.51953125) (-6.925950622558594e-05, 5.521484375) (-7.105583953857422e-05, 5.5234375) (-7.223851776123046e-05, 5.525390625) (-7.27554931640625e-05, 5.52734375) (-7.258593749999999e-05, 5.529296875) (-7.174308776855468e-05, 5.53125) (-7.027294921875e-05, 5.533203125) (-6.824012756347656e-05, 5.53515625) (-6.573775482177735e-05, 5.537109375) (-6.287837982177735e-05, 5.5390625) (-5.979134750366211e-05, 5.541015625) (-5.6655639648437494e-05, 5.54296875) (-5.368886566162109e-05, 5.544921875) (-5.1124427795410153e-05, 5.546875) (-4.918064498901367e-05, 5.548828125) (-4.80458984375e-05, 5.55078125) (-4.788065338134765e-05, 5.552734375) (-4.8936492919921873e-05, 5.5546875) (-5.15831298828125e-05, 5.556640625) (-5.60083999633789e-05, 5.55859375) (-6.219811248779297e-05, 5.560546875) (-6.989117431640625e-05, 5.5625) (-7.843106842041015e-05, 5.564453125) (-8.718190765380859e-05, 5.56640625) (-9.566578674316406e-05, 5.568359375) (-0.00010308727264404296, 5.5703125) (-0.00010842092895507813, 5.572265625) (-0.0001111455078125, 5.57421875) (-0.00011113761901855468, 5.576171875) (-0.00010887020874023437, 5.578125) (-0.0001061874771118164, 5.580078125) (-0.00010495946502685547, 5.58203125) (-0.000106440673828125, 5.583984375) (-0.00011266609191894531, 5.5859375) (-0.00012452601623535154, 5.587890625) (-0.00014003646850585936, 5.58984375) (-0.00015691453552246093, 5.591796875) (-0.00017168055725097655, 5.59375) (-0.0001815406799316406, 5.595703125) (-0.00018981317138671875, 5.59765625) (-0.0001991593017578125, 5.599609375) (-0.00020750050354003904, 5.6015625) (-0.00020783059692382812, 5.603515625) (-0.00018228346252441405, 5.60546875) (-0.00011272169494628905, 5.607421875) (9.608528137207031e-06, 5.609375) (0.0001852331085205078, 5.611328125) (0.0003988547973632812, 5.61328125) (0.000625259765625, 5.615234375) (0.0008383237915039062, 5.6171875) (0.0010103880004882812, 5.619140625) (0.0011221973876953124, 5.62109375) (0.00116576416015625, 5.623046875) (0.001142864990234375, 5.625) (0.0010635029296875, 5.626953125) (0.0009393278808593749, 5.62890625) (0.0007845765380859375, 5.630859375) (0.0006109439697265625, 5.6328125) (0.0004316435546875, 5.634765625) (0.0002643674011230469, 5.63671875) (0.00011789122009277343, 5.638671875) (-1.9186019897460938e-06, 5.640625) (-9.504270935058594e-05, 5.642578125) (-0.00017155014038085936, 5.64453125) (-0.0002352875518798828, 5.646484375) (-0.00028699468994140625, 5.6484375) (-0.0003258567199707031, 5.650390625) (-0.00034545089721679686, 5.65234375) (-0.0003437825927734375, 5.654296875) (-0.00032385791015625, 5.65625) (-0.0002902894897460937, 5.658203125) (-0.00025072689819335937, 5.66015625) (-0.00021146562194824218, 5.662109375) (-0.00017533871459960937, 5.6640625) (-0.00014419125366210936, 5.666015625) (-0.00011869328308105469, 5.66796875) (-9.924557495117187e-05, 5.669921875) (-8.678317260742187e-05, 5.671875) (-8.122491455078125e-05, 5.673828125) (-8.09057388305664e-05, 5.67578125) (-8.355364990234375e-05, 5.677734375) (-8.711793518066405e-05, 5.6796875) (-8.971443176269531e-05, 5.681640625) (-9.048509216308593e-05, 5.68359375) (-8.908136749267577e-05, 5.685546875) (-8.462907409667968e-05, 5.6875) (-7.686354827880858e-05, 5.689453125) (-6.645156860351562e-05, 5.69140625) (-5.4385169982910155e-05, 5.693359375) (-4.207656097412109e-05, 5.6953125) (-3.1088844299316405e-05, 5.697265625) (-2.2113407135009764e-05, 5.69921875) (-1.5405576705932618e-05, 5.701171875) (-1.1409511566162109e-05, 5.703125) (-1.016577625274658e-05, 5.705078125) (-1.1470830917358397e-05, 5.70703125) (-1.5062778472900389e-05, 5.708984375) (-2.0231258392333985e-05, 5.7109375) (-2.6114145278930664e-05, 5.712890625) (-3.221834564208984e-05, 5.71484375) (-3.82138671875e-05, 5.716796875) (-4.38408088684082e-05, 5.71875) (-4.900959396362305e-05, 5.720703125) (-5.355606842041015e-05, 5.72265625) (-5.727835083007812e-05, 5.724609375) (-6.0128368377685545e-05, 5.7265625) (-6.212699890136719e-05, 5.728515625) (-6.32977294921875e-05, 5.73046875) (-6.368821334838867e-05, 5.732421875) (-6.331232070922851e-05, 5.734375) (-6.216506958007812e-05, 5.736328125) (-6.0303611755371094e-05, 5.73828125) (-5.7821708679199214e-05, 5.740234375) (-5.4836410522460936e-05, 5.7421875) (-5.147776794433594e-05, 5.744140625) (-4.7850318908691404e-05, 5.74609375) (-4.4037895202636715e-05, 5.748046875) (-4.0111232757568356e-05, 5.75) (-3.6145397186279296e-05, 5.751953125) (-3.222990417480469e-05, 5.75390625) (-2.845639419555664e-05, 5.755859375) (-2.490713119506836e-05, 5.7578125) (-2.163611602783203e-05, 5.759765625) (-1.866855239868164e-05, 5.76171875) (-1.601587677001953e-05, 5.763671875) (-1.3686572074890136e-05, 5.765625) (-1.1680435180664062e-05, 5.767578125) (-9.982007026672362e-06, 5.76953125) (-8.562467575073242e-06, 5.771484375) (-7.37798261642456e-06, 5.7734375) (-6.385547161102295e-06, 5.775390625) (-5.553043365478516e-06, 5.77734375) (-4.854270935058594e-06, 5.779296875) (-4.267973899841309e-06, 5.78125) (-3.7681596279144284e-06, 5.783203125) (-3.321775913238525e-06, 5.78515625) (-2.8924052715301514e-06, 5.787109375) (-2.442359924316406e-06, 5.7890625) (-1.9418009519577024e-06, 5.791015625) (-1.3679592609405516e-06, 5.79296875) (-6.998633742332459e-07, 5.794921875) (8.224979043006897e-08, 5.796875) (9.95566725730896e-07, 5.798828125) (2.0535223484039306e-06, 5.80078125) (3.264228820800781e-06, 5.802734375) (4.6307067871093745e-06, 5.8046875) (6.158385276794434e-06, 5.806640625) (7.856007575988769e-06, 5.80859375) (9.733266830444336e-06, 5.810546875) (1.1800699234008789e-05, 5.8125) (1.4066336631774902e-05, 5.814453125) (1.6535945892333982e-05, 5.81640625) (1.9214168548583984e-05, 5.818359375) (2.2104179382324218e-05, 5.8203125) (2.5208663940429687e-05, 5.822265625) (2.8529491424560544e-05, 5.82421875) (3.2066864013671875e-05, 5.826171875) (3.5819686889648436e-05, 5.828125) (3.978618240356445e-05, 5.830078125) (4.396353149414062e-05, 5.83203125) (4.8348461151123044e-05, 5.833984375) (5.293735885620117e-05, 5.8359375) (5.772420883178711e-05, 5.837890625) (6.270075225830078e-05, 5.83984375) (6.785723114013672e-05, 5.841796875) (7.318202209472655e-05, 5.84375) (7.866228485107422e-05, 5.845703125) (8.428422546386719e-05, 5.84765625) (9.003247070312499e-05, 5.849609375) (9.589014434814453e-05, 5.8515625) (0.00010183978271484374, 5.853515625) (0.00010786315155029297, 5.85546875) (0.00011394134521484374, 5.857421875) (0.00012005490112304687, 5.859375) (0.00012618359375, 5.861328125) (0.00013230653381347655, 5.86328125) (0.0001384024963378906, 5.865234375) (0.00014444984436035155, 5.8671875) (0.00015042668151855467, 5.869140625) (0.0001563109436035156, 5.87109375) (0.0001620804443359375, 5.873046875) (0.00016771304321289062, 5.875) (0.0001731867980957031, 5.876953125) (0.00017847979736328125, 5.87890625) (0.00018357046508789062, 5.880859375) (0.00018843777465820313, 5.8828125) (0.00019306118774414061, 5.884765625) (0.0001974208526611328, 5.88671875) (0.0002014977569580078, 5.888671875) (0.00020527365112304688, 5.890625) (0.00020873127746582032, 5.892578125) (0.00021185450744628904, 5.89453125) (0.00021462832641601563, 5.896484375) (0.0002170388946533203, 5.8984375) (0.00021907383728027343, 5.900390625) (0.00022072213745117186, 5.90234375) (0.00022197421264648438, 5.904296875) (0.00022282208251953124, 5.90625) (0.0002232593994140625, 5.908203125) (0.00022328155517578125, 5.91015625) (0.00022288566589355468, 5.912109375) (0.00022207069396972654, 5.9140625) (0.0002208372802734375, 5.916015625) (0.00021918780517578125, 5.91796875) (0.0002171263732910156, 5.919921875) (0.00021465881347656248, 5.921875) (0.00021179277038574219, 5.923828125) (0.0002085375061035156, 5.92578125) (0.00020490393066406248, 5.927734375) (0.00020090457153320313, 5.9296875) (0.0001965535888671875, 5.931640625) (0.0001918666534423828, 5.93359375) (0.00018686100769042967, 5.935546875) (0.00018155517578124998, 5.9375) (0.0001759690704345703, 5.939453125) (0.00017012384033203125, 5.94140625) (0.00016404165649414062, 5.943359375) (0.0001577456817626953, 5.9453125) (0.00015125994873046875, 5.947265625) (0.0001446091613769531, 5.94921875) (0.00013781860351562498, 5.951171875) (0.00013091390991210936, 5.953125) (0.00012392100524902342, 5.955078125) (0.00011686589813232421, 5.95703125) (0.0001097745361328125, 5.958984375) (0.00010267271423339843, 5.9609375) (9.558584594726562e-05, 5.962890625) (8.853887939453125e-05, 5.96484375) (8.155607604980468e-05, 5.966796875) (7.466092681884765e-05, 5.96875) (6.787599945068359e-05, 5.970703125) (6.122286987304688e-05, 5.97265625) (5.472193145751953e-05, 5.974609375) (4.839235687255859e-05, 5.9765625) (4.225200653076172e-05, 5.978515625) (3.631733703613281e-05, 5.98046875) (3.0603410720825194e-05, 5.982421875) (2.5123813629150388e-05, 5.984375) (1.989064598083496e-05, 5.986328125) (1.4914454460144042e-05, 5.98828125) (1.0204212188720703e-05, 5.990234375) (5.767299652099609e-06, 5.9921875) (1.609495759010315e-06, 5.994140625) (-2.2650370597839355e-06, 5.99609375) (-5.853760719299316e-06, 5.998046875) (-9.15576934814453e-06, 6.0) (-1.2171764373779296e-05, 6.001953125) (-1.4903993606567382e-05, 6.00390625) (-1.7356185913085936e-05, 6.005859375) (-1.9533447265625e-05, 6.0078125) (-2.1442216873168945e-05, 6.009765625) (-2.3090166091918943e-05, 6.01171875) (-2.4486106872558592e-05, 6.013671875) (-2.5639888763427735e-05, 6.015625) (-2.6562271118164063e-05, 6.017578125) (-2.7264835357666014e-05, 6.01953125) (-2.7759880065917968e-05, 6.021484375) (-2.8060338973999022e-05, 6.0234375) (-2.8179643630981444e-05, 6.025390625) (-2.813161849975586e-05, 6.02734375) (-2.7930313110351562e-05, 6.029296875) (-2.758990097045898e-05, 6.03125) (-2.7124568939208984e-05, 6.033203125) (-2.654840278625488e-05, 6.03515625) (-2.587532806396484e-05, 6.037109375) (-2.511898422241211e-05, 6.0390625) (-2.429267883300781e-05, 6.041015625) (-2.3409313201904294e-05, 6.04296875) (-2.248137855529785e-05, 6.044921875) (-2.1520900726318358e-05, 6.046875) (-2.05394229888916e-05, 6.048828125) (-1.954793357849121e-05, 6.05078125) (-1.8556819915771484e-05, 6.052734375) (-1.7575798034667967e-05, 6.0546875) (-1.6613872528076173e-05, 6.056640625) (-1.5679296493530272e-05, 6.05859375) (-1.4779506683349608e-05, 6.060546875) (-1.3921100616455078e-05, 6.0625) (-1.3109803199768066e-05, 6.064453125) (-1.2350483894348143e-05, 6.06640625) (-1.1647188186645507e-05, 6.068359375) (-1.1003173828125e-05, 6.0703125) (-1.0420951843261718e-05, 6.072265625) (-9.90230941772461e-06, 6.07421875) (-9.448330879211425e-06, 6.076171875) (-9.059444427490234e-06, 6.078125) (-8.735450744628906e-06, 6.080078125) (-8.475555419921875e-06, 6.08203125) (-8.278401374816893e-06, 6.083984375) (-8.142109870910644e-06, 6.0859375) (-8.064332008361815e-06, 6.087890625) (-8.042329788208007e-06, 6.08984375) (-8.073062896728516e-06, 6.091796875) (-8.153275489807129e-06, 6.09375) (-8.279565811157226e-06, 6.095703125) (-8.448451995849609e-06, 6.09765625) (-8.65640640258789e-06, 6.099609375) (-8.899889945983886e-06, 6.1015625) (-9.17536449432373e-06, 6.103515625) (-9.479301452636718e-06, 6.10546875) (-9.808171272277832e-06, 6.107421875) (-1.0158453941345215e-05, 6.109375) (-1.0526636123657226e-05, 6.111328125) (-1.0909246444702148e-05, 6.11328125) (-1.1302903175354004e-05, 6.115234375) (-1.1704374313354492e-05, 6.1171875) (-1.211063003540039e-05, 6.119140625) (-1.2518890380859375e-05, 6.12109375) (-1.2926668167114258e-05, 6.123046875) (-1.3331792831420898e-05, 6.125) (-1.3732417106628418e-05, 6.126953125) (-1.4127010345458984e-05, 6.12890625) (-1.4514334678649901e-05, 6.130859375) (-1.4893419265747069e-05, 6.1328125) (-1.5263534545898437e-05, 6.134765625) (-1.562419033050537e-05, 6.13671875) (-1.597512149810791e-05, 6.138671875) (-1.631631088256836e-05, 6.140625) (-1.6647987365722655e-05, 6.142578125) (-1.697064208984375e-05, 6.14453125) (-1.728501510620117e-05, 6.146484375) (-1.7592090606689452e-05, 6.1484375) (-1.789303207397461e-05, 6.150390625) (-1.8189146041870117e-05, 6.15234375) (-1.8481813430786133e-05, 6.154296875) (-1.877242660522461e-05, 6.15625) (-1.9062326431274414e-05, 6.158203125) (-1.935277557373047e-05, 6.16015625) (-1.9644929885864256e-05, 6.162109375) (-1.993986129760742e-05, 6.1640625) (-2.0238571166992187e-05, 6.166015625) (-2.0542034149169923e-05, 6.16796875) (-2.085120391845703e-05, 6.169921875) (-2.116702651977539e-05, 6.171875) (-2.1490440368652343e-05, 6.173828125) (-2.1822359085083007e-05, 6.17578125) (-2.2163631439208983e-05, 6.177734375) (-2.2514991760253906e-05, 6.1796875) (-2.2877002716064452e-05, 6.181640625) (-2.3250017166137695e-05, 6.18359375) (-2.3634172439575193e-05, 6.185546875) (-2.4029361724853514e-05, 6.1875) (-2.4435277938842774e-05, 6.189453125) (-2.4851425170898437e-05, 6.19140625) (-2.527715492248535e-05, 6.193359375) (-2.5711685180664063e-05, 6.1953125) (-2.615411376953125e-05, 6.197265625) (-2.6603424072265625e-05, 6.19921875) (-2.705848693847656e-05, 6.201171875) (-2.7518049240112303e-05, 6.203125) (-2.798067855834961e-05, 6.205078125) (-2.844478416442871e-05, 6.20703125) (-2.8908601760864257e-05, 6.208984375) (-2.9370227813720703e-05, 6.2109375) (-2.9827674865722656e-05, 6.212890625) (-3.0278919219970703e-05, 6.21484375) (-3.072197723388672e-05, 6.216796875) (-3.115493392944336e-05, 6.21875) (-3.157600402832031e-05, 6.220703125) (-3.198354721069336e-05, 6.22265625) (-3.237607955932617e-05, 6.224609375) (-3.275225067138672e-05, 6.2265625) (-3.3110809326171876e-05, 6.228515625) (-3.345055389404297e-05, 6.23046875) (-3.377030944824219e-05, 6.232421875) (-3.40689582824707e-05, 6.234375) (-3.434541320800781e-05, 6.236328125) (-3.459869384765625e-05, 6.23828125) (-3.4827919006347656e-05, 6.240234375) (-3.5032386779785154e-05, 6.2421875) (-3.521158599853516e-05, 6.244140625) (-3.536525726318359e-05, 6.24609375) (-3.549337005615234e-05, 6.248046875) (-3.5596134185791015e-05, 6.25) (-3.567396545410156e-05, 6.251953125) (-3.57274284362793e-05, 6.25390625) (-3.575723648071289e-05, 6.255859375) (-3.5764244079589844e-05, 6.2578125) (-3.574939727783203e-05, 6.259765625) (-3.5713802337646485e-05, 6.26171875) (-3.565869522094726e-05, 6.263671875) (-3.558545684814453e-05, 6.265625) (-3.549564361572265e-05, 6.267578125) (-3.5390975952148434e-05, 6.26953125) (-3.527333831787109e-05, 6.271484375) (-3.514474105834961e-05, 6.2734375) (-3.5007240295410156e-05, 6.275390625) (-3.4862907409667966e-05, 6.27734375) (-3.4713737487792966e-05, 6.279296875) (-3.456163787841797e-05, 6.28125) (-3.440840911865234e-05, 6.283203125) (-3.425573348999023e-05, 6.28515625) (-3.4105167388916014e-05, 6.287109375) (-3.395816802978516e-05, 6.2890625) (-3.3816150665283204e-05, 6.291015625) (-3.368049621582031e-05, 6.29296875) (-3.3552589416503906e-05, 6.294921875) (-3.3433757781982424e-05, 6.296875) (-3.3325328826904294e-05, 6.298828125) (-3.3228515625e-05, 6.30078125) (-3.314442825317383e-05, 6.302734375) (-3.307402420043945e-05, 6.3046875) (-3.301809310913086e-05, 6.306640625) (-3.297724914550781e-05, 6.30859375) (-3.295191192626953e-05, 6.310546875) (-3.2942344665527344e-05, 6.3125) (-3.2948661804199215e-05, 6.314453125) (-3.2970855712890626e-05, 6.31640625) (-3.3008834838867185e-05, 6.318359375) (-3.306238555908203e-05, 6.3203125) (-3.313119506835937e-05, 6.322265625) 